Dividing Wavelength (nm)	Counts (n)	Blue Motor Position (mm): 0.000000	Red Motor Position (mm): 16.400000	
326.493990	1982.169089
326.888308	1982.169089
327.282561	1982.169089
327.676750	1956.197065
328.070874	1958.415172
328.464933	1964.439351
328.858929	1971.731380
329.252859	1987.013638
329.646726	2003.024343
330.040528	2013.265447
330.434265	2034.985258
330.827938	2055.139791
331.221547	2072.042780
331.615091	2094.327201
332.008571	2116.110027
332.401986	2136.415794
332.795338	2156.565286
333.188625	2176.505570
333.581847	2196.589527
333.975006	2213.696683
334.368100	2231.333159
334.761129	2247.520304
335.154095	2262.033786
335.546996	2278.241096
335.939833	2297.095011
336.332606	2307.426856
336.725315	2319.596202
337.117960	2327.019301
337.510540	2334.641525
337.903056	2343.067814
338.295508	2350.710203
338.687896	2356.759588
339.080220	2365.082533
339.472480	2369.574201
339.864676	2373.589480
340.256807	2374.910262
340.648875	2377.113246
341.040879	2378.655839
341.432818	2378.023175
341.824694	2382.209853
342.216506	2381.020141
342.608253	2383.205481
342.999937	2379.404451
343.391557	2377.186343
343.783113	2377.566950
344.174605	2376.979656
344.566033	2373.990252
344.957397	2373.750797
345.348697	2370.574870
345.739934	2370.053110
346.131106	2368.881042
346.522215	2367.406505
346.913260	2365.352234
347.304241	2360.694208
347.695159	2362.269569
348.086012	2358.070288
348.476802	2356.066429
348.867528	2357.256141
349.258191	2357.276306
349.648789	2355.574917
350.039324	2353.656758
350.429796	2353.497961
350.820203	2353.482838
351.210548	2351.194154
351.600828	2351.695749
351.991045	2351.857066
352.381198	2353.687004
352.771288	2351.874710
353.161314	2351.249607
353.551276	2352.308249
353.941175	2353.999556
354.331010	2353.190451
354.720782	2353.266068
355.110490	2353.772704
355.500135	2352.517457
355.889717	2353.069463
356.279235	2355.010307
356.668689	2355.622808
357.058080	2355.348065
357.447408	2353.611387
357.836672	2351.226921
358.225873	2352.774556
358.615010	2351.975533
359.004084	2357.351923
359.393095	2358.937366
359.782043	2358.723117
360.170927	2362.806452
360.559748	2360.573221
360.948505	2360.038858
361.337199	2360.104393
361.725830	2362.761081
362.114398	2363.048427
362.502903	2366.244519
362.891344	2362.940042
363.279722	2364.472553
363.668037	2366.983048
364.056289	2366.027749
364.444478	2368.253418
364.832603	2369.244005
365.220665	2371.751979
365.608665	2370.678213
365.996601	2368.961701
366.384474	2370.642925
366.772284	2371.638553
367.160031	2371.618389
367.547715	2372.619058
367.935336	2375.802546
368.322893	2374.779192
368.710388	2377.251878
369.097820	2376.780530
369.485189	2378.033257
369.872495	2379.157434
370.259738	2381.783875
370.646918	2383.386962
371.034035	2380.942003
371.421090	2387.447612
371.808081	2389.882489
372.195010	2393.809548
372.581875	2397.051010
372.968678	2405.149623
373.355418	2412.945768
373.742096	2424.681574
374.128710	2431.288006
374.515262	2442.630602
374.901751	2459.710032
375.288177	2475.839203
375.674540	2495.255207
376.060841	2516.412930
376.447079	2540.212217
376.833254	2563.774570
377.219367	2585.259968
377.605417	2624.142388
377.991404	2646.426808
378.377329	2688.618745
378.763191	2721.721482
379.148991	2769.932557
379.534727	2820.202943
379.920402	2861.351361
380.306013	2910.013619
380.691563	2973.133907
381.077049	3026.330683
381.462474	3080.465113
381.847835	3155.661485
382.233134	3224.437947
382.618371	3282.194446
383.003545	3366.127137
383.388657	3445.621092
383.773706	3537.919578
384.158693	3607.621092
384.543618	3700.751368
384.928480	3782.052576
385.313280	3880.912124
385.698017	3981.589007
386.082692	4102.087708
386.467305	4159.836646
386.851856	4284.199390
387.236344	4438.657824
387.620770	4498.093028
388.005133	4616.396305
388.389435	4763.905508
388.773674	4843.593547
389.157851	4977.068178
389.541965	5108.954845
389.926018	5130.241117
390.310008	5306.063960
390.693936	5428.289256
391.077802	5538.491399
391.461606	5674.269837
391.845348	5785.134893
392.229027	5903.627214
392.612645	6123.023270
392.996200	6237.044088
393.379694	6404.992649
393.763125	6627.947760
394.146494	6716.278858
394.529801	6852.236256
394.913047	7090.955056
395.296230	7085.482883
395.679351	7142.279043
396.062410	7391.833802
396.445408	7280.358767
396.828343	7437.216790
397.211217	7563.651449
397.594028	7453.519881
397.976778	7650.502968
398.359466	7810.458779
398.742092	7786.243597
399.124656	7931.743900
399.507158	8111.778627
399.889598	8138.126218
400.271977	8335.358841
400.654294	8366.424952
401.036549	8555.871513
401.418742	8585.160617
401.800874	8877.953353
402.182944	8954.619221
402.564952	9313.882091
402.946898	9129.597671
403.328783	9189.345426
403.710606	9381.612513
404.092367	9624.550758
404.474067	9979.465633
404.855705	9768.077450
405.237282	9718.457372
405.618797	10130.032296
406.000250	10369.046003
406.381642	10701.729389
406.762972	10651.779116
407.144240	10440.791704
407.525447	10676.548825
407.906593	10597.296846
408.287677	10832.144039
408.668700	10959.811260
409.049661	10912.426934
409.430560	11045.833509
409.811399	10984.545681
410.192176	11111.068561
410.572891	11146.568366
410.953545	11562.806357
411.334138	11030.911694
411.714669	11544.015456
412.095139	10844.199958
412.475547	11252.241033
412.855894	11060.412526
413.236180	11294.992538
413.616405	10938.240163
413.996568	11119.835127
414.376670	11022.737463
414.756711	10837.810296
415.136691	10995.989101
415.516609	11057.781044
415.896466	11025.028667
416.276262	11165.064359
416.655997	11419.546847
417.035670	11349.845333
417.415283	11760.893456
417.794834	11713.972917
418.174324	11391.276056
418.553753	11188.306599
418.933121	11432.754670
419.312428	11151.516258
419.691674	10952.746083
420.070859	11141.214661
420.449983	10756.315003
420.829045	10996.039512
421.208047	10671.588330
421.586988	10827.533904
421.965867	10835.206540
422.344686	10665.607001
422.723444	10866.759122
423.102141	9880.923678
423.480777	10442.205748
423.859352	9985.540224
424.237866	10451.239495
424.616319	10103.808213
424.994712	10293.403489
425.373044	9997.107151
425.751314	10161.993211
426.129524	9528.978043
426.507673	9879.267659
426.885762	9548.855313
427.263789	9443.883366
427.641756	9333.976130
428.019662	9169.780708
428.397508	8999.961879
428.775292	8930.222557
429.153016	8725.828974
429.530679	8562.689674
429.908282	8380.406592
430.285824	8101.713963
430.663305	8161.257552
431.040726	7841.721495
431.418086	7604.941019
431.795385	7629.602344
432.172624	7573.143942
432.549802	7267.866788
432.926920	7144.998745
433.303977	6944.582633
433.680974	6842.000193
434.057910	6750.069712
434.434786	6590.234888
434.811601	6411.185706
435.188355	6481.968547
435.565050	6249.679740
435.941683	6080.816210
436.318257	6101.701710
436.694770	5917.303864
437.071222	5870.774014
437.447614	5559.402106
437.823946	5415.734262
438.200218	5307.344413
438.576429	5137.802848
438.952580	5049.461668
439.328670	4919.256226
439.704700	4854.457234
440.080670	4682.148075
440.456580	4636.581085
440.832429	4546.563722
441.208218	4332.007173
441.583947	4272.755971
441.959616	4182.912527
442.335224	4111.802011
442.710773	4031.652706
443.086261	3981.717557
443.461689	3849.387268
443.837057	3774.568983
444.212365	3739.928695
444.587612	3664.850791
444.962800	3566.029052
445.337927	3516.408974
445.712995	3388.409037
446.088002	3417.791402
446.462949	3368.332642
446.837837	3316.058397
447.212664	3258.332144
447.587431	3312.280052
447.962139	3363.319214
448.336786	3394.077815
448.711374	3295.253555
449.085901	3126.795838
449.460369	3072.903383
449.834776	3026.159283
450.209124	3046.326419
450.583412	3006.934843
450.957640	2981.837459
451.331808	2919.884199
451.705917	2861.179962
452.079965	2834.000581
452.453954	2816.986687
452.827883	2790.258489
453.201752	2768.785694
453.575562	2750.085534
453.949311	2745.004051
454.323001	2729.661299
454.696632	2711.145141
455.070202	2716.587067
455.443713	2706.708926
455.817164	2702.280272
456.190556	2689.057326
456.563888	2675.589883
456.937160	2666.485559
457.310373	2646.114257
457.683526	2642.333391
458.056619	2634.973307
458.429653	2624.583489
458.802628	2624.586009
459.175542	2616.172323
459.548398	2619.307921
459.921194	2628.361833
460.293930	2627.409055
460.666607	2640.170736
461.039224	2643.543268
461.411782	2642.918165
461.784280	2630.015332
462.156719	2619.539814
462.529099	2613.354318
462.901419	2603.708071
463.273680	2589.025710
463.645882	2588.279619
464.018024	2583.392221
464.390106	2585.638055
464.762130	2600.554829
465.134094	2617.853548
465.505999	2646.078969
465.877845	2668.015550
466.249631	2668.559994
466.621358	2658.523057
466.993026	2646.673825
467.364634	2631.373923
467.736184	2615.191819
468.107674	2605.444748
468.479105	2599.849067
468.850477	2596.408480
469.221790	2581.048084
469.593043	2572.725139
469.964238	2566.766495
470.335373	2563.721638
470.706449	2571.812690
471.077467	2583.316603
471.448425	2604.849892
471.819324	2615.935389
472.190164	2608.444235
472.560945	2590.401945
472.931667	2567.671382
473.302330	2565.206258
473.672934	2558.418344
474.043479	2559.368602
474.413965	2555.378529
474.784393	2550.286963
475.154761	2557.969682
475.525070	2556.785011
475.895321	2552.439536
476.265513	2551.199412
476.635645	2561.846329
477.005719	2557.165618
477.375734	2560.465053
477.745691	2563.404046
478.115588	2571.008626
478.485427	2573.544327
478.855207	2591.359764
479.224928	2604.255036
479.594591	2610.115377
479.964194	2604.237392
480.333739	2605.638832
480.703226	2603.070365
481.072653	2607.783843
481.442022	2610.072527
481.811333	2610.160747
482.180584	2604.174377
482.549777	2601.868049
482.918912	2598.029211
483.287988	2597.699015
483.657005	2593.275403
484.025964	2591.460587
484.394864	2589.297932
484.763706	2590.921184
485.132489	2585.832139
485.501213	2581.065728
485.869879	2584.725606
486.238487	2586.580750
486.607036	2581.617734
486.975527	2583.054463
487.343959	2581.872313
487.712333	2582.172261
488.080648	2582.409196
488.448905	2583.452714
488.817104	2584.728126
489.185244	2586.321131
489.553326	2596.428644
489.921350	2607.307454
490.289315	2620.038888
490.657222	2623.202212
491.025070	2623.887809
491.392861	2622.753550
491.760593	2613.881119
492.128267	2604.713781
492.495883	2598.435024
492.863440	2597.172215
493.230939	2586.245514
493.598380	2584.236614
493.965763	2575.354101
494.333088	2577.307548
494.700354	2574.035839
495.067563	2574.247567
495.434713	2571.467371
495.801805	2575.651529
496.168839	2573.866960
496.535815	2573.632547
496.902733	2575.414595
497.269593	2572.188256
497.636395	2575.611200
498.003139	2574.335788
498.369825	2572.533575
498.736453	2575.858216
499.103023	2573.413257
499.469535	2571.989131
499.835989	2572.747824
500.202385	2576.374934
500.568723	2572.773030
500.935003	2576.435428
501.301226	2576.274111
501.667390	2579.974318
502.033497	2585.033116
502.399546	2581.756366
502.765537	2579.303845
503.131470	2583.326686
503.497345	2584.032447
503.863163	2583.568661
504.228923	2585.590164
504.594625	2590.243149
504.960269	2590.336410
505.325856	2594.051740
505.691385	2594.618870
506.056856	2593.623242
506.422270	2599.987699
506.787625	2599.551639
507.152924	2602.445262
507.518164	2608.227465
507.883347	2604.567587
508.248472	2608.925665
508.613540	2613.039246
508.978550	2616.643671
509.343503	2618.859258
509.708398	2622.456122
510.073236	2623.469394
510.438016	2627.164559
510.802738	2624.409569
511.167403	2634.696043
511.532010	2631.409211
511.896561	2640.319450
512.261053	2649.045688
512.625488	2641.040335
512.989866	2642.766931
513.354186	2646.230203
513.718449	2645.370687
514.082655	2656.153715
514.446803	2656.478869
514.810894	2664.559839
515.174927	2662.228305
515.538904	2663.339879
515.902822	2666.901455
516.266684	2669.167453
516.630488	2668.638132
516.994235	2670.765499
517.357925	2673.533092
517.721558	2674.584173
518.085133	2679.393434
518.448651	2682.970132
518.812112	2684.300997
519.175516	2682.120698
519.538863	2684.767304
519.902152	2687.746626
520.265385	2689.190916
520.628560	2692.805424
520.991678	2689.816019
521.354739	2690.254600
521.717743	2693.962368
522.080690	2691.645958
522.443580	2696.982020
522.806413	2699.585776
523.169189	2700.122658
523.531908	2702.502083
523.894569	2701.617361
524.257174	2700.543595
524.619722	2700.843543
524.982213	2705.690613
525.344647	2703.374203
525.707025	2704.087526
526.069345	2709.289997
526.431608	2704.866384
526.793815	2708.932075
527.155964	2703.233050
527.518057	2706.517362
527.880093	2705.877136
528.242072	2709.506766
528.603995	2706.981148
528.965860	2708.690099
529.327669	2708.475850
529.689421	2706.068699
530.051117	2707.129862
530.412755	2705.599872
530.774337	2707.480222
531.135862	2706.482074
531.497331	2702.930581
531.858743	2701.660210
532.220098	2703.462423
532.581396	2700.268852
532.942638	2697.057637
533.303824	2698.229705
533.664953	2701.929912
534.026025	2699.013605
534.387040	2699.109387
534.747999	2697.511341
535.108902	2697.473532
535.469748	2695.376412
535.830537	2693.619570
536.191270	2692.820547
536.551947	2690.191585
536.912567	2688.144877
537.273131	2688.712007
537.633638	2682.468538
537.994089	2680.328568
538.354483	2677.077024
538.714821	2678.788495
539.075103	2680.031140
539.435328	2677.591221
539.795497	2671.239367
540.155609	2667.849192
540.515665	2669.870694
540.875665	2663.730569
541.235609	2664.093532
541.595496	2660.143788
541.955328	2660.756288
542.315102	2659.468273
542.674821	2650.525266
543.034483	2648.866727
543.394090	2643.024029
543.753640	2640.556385
544.113134	2643.812970
544.472571	2636.581435
544.831953	2635.696712
545.191278	2631.310908
545.550548	2625.256483
545.909761	2625.314456
546.268918	2621.047119
546.628019	2619.625514
546.987064	2615.027982
547.346053	2606.841148
547.704986	2608.275356
548.063863	2602.588934
548.422684	2603.894593
548.781449	2596.257245
549.140158	2592.367995
549.498811	2593.247676
549.857408	2588.829105
550.215949	2587.707448
550.574434	2580.889288
550.932864	2577.942733
551.291237	2576.241344
551.649555	2577.473906
552.007817	2573.551888
552.366022	2568.498132
552.724173	2569.556774
553.082267	2567.772205
553.440305	2566.327915
553.798288	2560.550752
554.156215	2556.948848
554.514086	2556.727037
554.871902	2554.546738
555.229661	2554.670247
555.587365	2548.204967
555.945014	2551.184289
556.302606	2546.364946
556.660143	2547.073228
557.017625	2542.720191
557.375050	2540.318082
557.732421	2537.739531
558.089735	2538.939326
558.446994	2539.312371
558.804197	2537.643749
559.161345	2537.361445
559.518437	2529.300640
559.875474	2529.928263
560.232455	2530.255938
560.589381	2529.446833
560.946251	2528.494055
561.303065	2530.515558
561.659825	2525.978519
562.016528	2521.212108
562.373177	2521.945596
562.729770	2521.131450
563.086307	2522.321162
563.442789	2521.688498
563.799216	2521.010462
564.155587	2518.865451
564.511904	2519.364526
564.868164	2518.656243
565.224370	2518.164731
565.580520	2515.210615
565.936615	2519.130112
566.292654	2514.630882
566.648638	2516.544000
567.004567	2512.894205
567.360441	2513.272291
567.716260	2515.780265
568.072023	2513.249606
568.427732	2508.226096
568.783385	2510.532424
569.138982	2510.381189
569.494525	2509.577125
569.850013	2507.709378
570.205445	2509.572084
570.560823	2509.166271
570.916145	2511.588546
571.271412	2511.311282
571.626625	2509.975377
571.981782	2509.045284
572.336884	2510.590397
572.691931	2510.358504
573.046923	2507.212824
573.401860	2505.413132
573.756743	2505.498832
574.111570	2505.972700
574.466342	2506.746517
574.821059	2505.055210
575.175722	2505.561846
575.530330	2506.076044
575.884882	2505.692916
576.239380	2503.608399
576.593823	2505.130828
576.948211	2501.687720
577.302544	2501.854078
577.656823	2500.230826
578.011047	2501.569253
578.365216	2499.588079
578.719330	2502.758965
579.073389	2501.531444
579.427394	2502.758965
579.781344	2498.050527
580.135239	2498.405928
580.489080	2498.441217
580.842866	2499.134375
581.196597	2499.247801
581.550273	2500.981958
581.903895	2498.410970
582.257463	2497.395177
582.610975	2495.653458
582.964434	2499.078923
583.317837	2499.620847
583.671186	2495.015752
584.024481	2494.355361
584.377721	2496.674292
584.730906	2497.788387
585.084037	2493.954590
585.437113	2497.957266
585.790135	2495.005670
586.143103	2493.609271
586.496016	2493.856287
586.848874	2492.187665
587.201679	2489.074753
587.554428	2491.060967
587.907124	2492.482573
588.259765	2485.251038
588.612352	2490.607263
588.964884	2488.389156
589.317362	2489.205823
589.669786	2491.411328
590.022155	2489.178096
590.374470	2491.978457
590.726731	2490.120792
591.078937	2491.103817
591.431090	2487.282622
591.783188	2488.368991
592.135232	2487.499392
592.487222	2485.808085
592.839157	2486.042499
593.191038	2484.893116
593.542866	2487.340596
593.894639	2485.467807
594.246358	2486.017293
594.598022	2486.206336
594.949633	2485.422437
595.301190	2485.220791
595.652692	2485.074597
596.004141	2483.617704
596.355535	2484.971253
596.706876	2482.551500
597.058162	2479.378093
597.409395	2481.480254
597.760573	2480.774493
598.111698	2481.220635
598.462768	2482.264154
598.813785	2481.311376
599.164748	2479.378093
599.515657	2481.772641
599.866511	2478.246354
600.217312	2479.786427
600.568060	2477.885912
600.918753	2483.484113
601.269392	2480.172075
601.619978	2479.824235
601.970510	2480.151910
602.320988	2479.557054
602.671412	2480.721561
603.021783	2478.251395
603.372100	2476.348360
603.722363	2476.169399
604.072572	2478.576550
604.422728	2477.850624
604.772830	2475.660242
605.122878	2474.805767
605.472872	2477.442290
605.822813	2472.864922
606.172701	2479.751139
606.522534	2478.465644
606.872314	2476.081179
607.222041	2477.734677
607.571714	2476.744090
607.921333	2476.174440
608.270899	2476.486992
608.620411	2479.869606
608.969870	2477.154944
609.319276	2476.605459
609.668627	2477.409523
610.017926	2475.403143
610.367171	2477.354070
610.716362	2476.688638
611.065500	2476.751652
611.414585	2476.391210
611.763616	2477.457414
612.112594	2475.917341
612.461518	2477.933803
612.810389	2476.996148
613.159207	2475.438432
613.507971	2477.880871
613.856682	2479.037815
614.205340	2475.115798
614.553945	2478.503453
614.902496	2477.827938
615.250994	2476.988586
615.599439	2474.931796
615.947830	2479.509163
616.296169	2477.560757
616.644454	2479.589822
616.992686	2477.371714
617.340864	2480.202322
617.688990	2477.255767
618.037063	2479.650316
618.385082	2475.766107
618.733048	2479.504122
619.080961	2477.868268
619.428821	2481.495378
619.776628	2476.807105
620.124382	2477.273412
620.472083	2476.444142
620.819731	2478.014461
621.167326	2475.884574
621.514868	2477.671663
621.862357	2477.278453
622.209793	2473.429532
622.557176	2474.334419
622.904506	2473.116980
623.251783	2468.857205
623.599007	2471.150930
623.946179	2468.640436
624.293297	2471.677731
624.640363	2469.252936
624.987376	2472.368369
625.334336	2468.688327
625.681243	2467.695219
626.028097	2468.295117
626.374899	2470.422483
626.721647	2468.035497
627.068343	2469.557926
627.414987	2468.920220
627.761577	2468.602627
628.108115	2465.562811
628.454600	2464.194138
628.801032	2467.521299
629.147412	2466.155147
629.493739	2465.986268
629.840014	2465.905610
630.186236	2465.855198
630.532405	2466.603809
630.878521	2467.357462
631.224585	2466.316464
631.570597	2464.156329
631.916556	2463.745475
632.262462	2465.136834
632.608316	2463.533747
632.954117	2462.200362
633.299866	2465.285548
633.645562	2466.268573
633.991206	2461.756740
634.336797	2458.643828
634.682336	2461.703808
635.027823	2462.558283
635.373257	2461.784466
635.718639	2460.191462
636.063968	2458.805144
636.409245	2460.534260
636.754470	2463.019549
637.099642	2459.299177
637.444762	2455.997222
637.789829	2457.444033
638.134845	2457.514609
638.479808	2458.036368
638.824719	2456.027469
639.169577	2453.436316
639.514383	2455.765329
639.859137	2454.870524
640.203839	2458.800103
640.548489	2454.767180
640.893086	2451.450101
641.237632	2451.238372
641.582125	2450.640996
641.926566	2450.502364
642.270955	2453.113682
642.615292	2454.996553
642.959576	2455.157870
643.303809	2455.122582
643.647990	2454.157201
