Dividing Wavelength (nm)	Counts (n)	Blue Motor Position (mm): 0.000000	Red Motor Position (mm): 21.400000	
326.493990	1986.370891
326.888308	1986.370891
327.282561	1986.370891
327.676750	1960.406428
328.070874	1962.858950
328.464933	1966.985134
328.858929	1976.802781
329.252859	1990.940697
329.646726	2005.302944
330.040528	2018.220901
330.434265	2038.950126
330.827938	2059.197920
331.221547	2078.969326
331.615091	2095.806779
332.008571	2118.993567
332.401986	2138.107101
332.795338	2162.707932
333.188625	2180.049501
333.581847	2199.921730
333.975006	2216.822198
334.368100	2235.222410
334.761129	2252.329565
335.154095	2266.447317
335.546996	2283.206633
335.939833	2303.643470
336.332606	2315.868268
336.725315	2328.945021
337.117960	2337.761999
337.510540	2337.061279
337.903056	2351.852024
338.295508	2358.337469
338.687896	2364.810310
339.080220	2372.440097
339.472480	2377.483771
339.864676	2383.011396
340.256807	2382.895450
340.648875	2385.295039
341.040879	2387.908877
341.432818	2388.675133
341.824694	2388.047509
342.216506	2390.636142
342.608253	2386.152035
342.999937	2388.687736
343.391557	2388.458363
343.783113	2387.641696
344.174605	2383.152549
344.566033	2378.749101
344.957397	2382.129194
345.348697	2379.152393
345.739934	2377.453524
346.131106	2375.578215
346.522215	2374.418750
346.913260	2373.095447
347.304241	2371.013450
347.695159	2369.972452
348.086012	2367.567822
348.476802	2370.690816
348.867528	2366.584797
349.258191	2362.498941
349.648789	2364.475074
350.039324	2361.581451
350.429796	2361.241173
350.820203	2360.565659
351.210548	2363.078674
351.600828	2357.722448
351.991045	2359.935515
352.381198	2359.111286
352.771288	2361.639425
353.161314	2358.221522
353.551276	2362.448530
353.941175	2360.059023
354.331010	2360.424507
354.720782	2359.943076
355.110490	2363.368540
355.500135	2360.275793
355.889717	2362.135978
356.279235	2360.973992
356.668689	2364.918695
357.058080	2363.565145
357.447408	2360.817717
357.836672	2360.250587
358.225873	2360.187572
358.615010	2359.232274
359.004084	2368.805425
359.393095	2365.432893
359.782043	2365.319467
360.170927	2368.495394
360.559748	2368.767616
360.948505	2369.352390
361.337199	2369.019674
361.725830	2371.373893
362.114398	2375.114429
362.502903	2374.028060
362.891344	2375.805067
363.279722	2375.154758
363.668037	2376.533514
364.056289	2374.416229
364.444478	2378.068545
364.832603	2375.447145
365.220665	2373.531507
365.608665	2379.180119
365.996601	2377.650129
366.384474	2381.577188
366.772284	2381.940151
367.160031	2381.967877
367.547715	2382.217415
367.935336	2381.246993
368.322893	2384.674977
368.710388	2381.302445
369.097820	2390.225288
369.485189	2385.816798
369.872495	2388.680174
370.259738	2391.296533
370.646918	2392.687891
371.034035	2393.577655
371.421090	2398.641494
371.808081	2399.695095
372.195010	2402.840775
372.581875	2408.953174
372.968678	2418.362488
373.355418	2423.955648
373.742096	2433.241453
374.128710	2440.898966
374.515262	2456.508899
374.901751	2467.604478
375.288177	2486.239104
375.674540	2505.818945
376.060841	2525.436595
376.447079	2549.046839
376.833254	2574.895356
377.219367	2601.152206
377.605417	2633.650004
377.991404	2661.167142
378.377329	2699.787422
378.763191	2736.013153
379.148991	2782.737088
379.534727	2830.771722
379.920402	2875.302755
380.306013	2922.321597
380.691563	2985.192347
381.077049	3041.128990
381.462474	3098.404059
381.847835	3165.529543
382.233134	3237.968403
382.618371	3296.382774
383.003545	3383.408213
383.388657	3459.418730
383.773706	3552.102864
384.158693	3625.242445
384.543618	3715.894994
384.928480	3793.790903
385.313280	3893.477200
385.698017	4001.050382
386.082692	4121.236531
386.467305	4181.725336
386.851856	4307.892813
387.236344	4461.101041
387.620770	4524.549003
388.005133	4642.388495
388.389435	4784.622130
388.773674	4873.318711
389.157851	5003.778732
389.541965	5132.683556
389.926018	5157.523842
390.310008	5329.366694
390.693936	5453.492504
391.077802	5566.525256
391.461606	5697.965781
391.845348	5809.831505
392.229027	5931.298107
392.612645	6150.197610
392.996200	6266.156751
393.379694	6436.762000
393.763125	6659.162585
394.146494	6743.735502
394.529801	6880.814557
394.913047	7123.135261
395.296230	7113.700742
395.679351	7172.735174
396.062410	7424.893689
396.445408	7321.393760
396.828343	7471.650391
397.211217	7602.717871
397.594028	7490.166549
397.976778	7692.488218
398.359466	7850.825819
398.742092	7825.115934
399.124656	7973.063717
399.507158	8155.808065
399.889598	8182.493413
400.271977	8384.936069
400.654294	8417.532170
401.036549	8602.860108
401.418742	8630.737689
401.800874	8928.400180
402.182944	9004.640070
402.564952	9369.604485
402.946898	9199.422693
403.328783	9248.742822
403.710606	9438.839692
404.092367	9700.876348
404.474067	10049.222600
404.855705	9843.848513
405.237282	9802.185897
405.618797	10223.517973
406.000250	10467.391352
406.381642	10822.424694
406.762972	10769.001066
407.144240	10569.434388
407.525447	10818.094343
407.906593	10755.233675
408.287677	11011.896462
408.668700	11165.318938
409.049661	11137.811882
409.430560	11305.074846
409.811399	11269.373394
410.192176	11428.096644
410.572891	11499.199598
410.953545	11971.006228
411.334138	11458.754421
411.714669	12041.839480
412.095139	11367.075997
412.475547	11854.333763
412.855894	11711.124665
413.236180	12025.730473
413.616405	11724.697971
413.996568	11985.925522
414.376670	11959.111625
414.756711	11842.265241
415.136691	12105.473965
415.516609	12281.354782
415.896466	12345.337107
416.276262	12625.872277
416.655997	13082.247935
417.035670	13104.686110
417.415283	13745.865427
417.794834	13825.732427
418.174324	13579.356115
418.553753	13482.082011
418.933121	13956.016007
419.312428	13768.666566
419.691674	13676.426053
420.070859	14121.300318
420.449983	13784.062250
420.829045	14319.241224
421.208047	14062.081884
421.586988	14516.972922
421.965867	14760.889151
422.344686	14745.034722
422.723444	15295.178362
423.102141	14017.006407
423.480777	15169.252859
423.859352	14686.048181
424.237866	15749.310706
424.616319	15454.100737
424.994712	16079.728094
425.373044	15868.105497
425.751314	16512.430493
426.129524	15653.765717
426.507673	16683.149168
426.885762	16380.029628
427.263789	16543.025256
427.641756	16686.209148
428.019662	16727.362608
428.397508	16737.003815
428.775292	16988.542268
429.153016	16916.209272
429.530679	16961.390613
429.908282	16944.384281
430.285824	16640.211140
430.663305	17251.133451
431.040726	16833.539390
431.418086	16628.855941
431.795385	17160.596849
432.172624	17494.641347
432.549802	17014.642842
432.926920	17126.863968
433.303977	16942.332531
433.680974	17096.841376
434.057910	17295.906459
434.434786	17214.022997
434.811601	17040.637552
435.188355	17896.146565
435.565050	17473.012276
435.941683	17315.854305
436.318257	17995.858068
436.694770	17702.062142
437.071222	18097.752390
437.447614	17154.169378
437.823946	17056.431487
438.200218	17053.807566
438.576429	16735.350316
438.952580	16822.337946
439.328670	16652.650187
439.704700	16849.519848
440.080670	16362.776279
440.456580	16671.302457
440.832429	16648.670196
441.208218	15714.539347
441.583947	15895.191616
441.959616	15820.116232
442.335224	15831.010166
442.710773	15753.774648
443.086261	15967.829602
443.461689	15344.213665
443.837057	15247.257153
444.212365	15511.156516
444.587612	15323.764225
444.962800	14852.338202
445.337927	14948.805722
445.712995	13947.604842
446.088002	14932.865594
446.462949	14865.351941
446.837837	14770.222847
447.212664	14530.301733
447.587431	15985.899618
447.962139	17527.166871
448.336786	18730.144975
448.711374	17530.657870
449.085901	15185.664336
449.460369	14869.089957
449.834776	14566.187187
450.209124	15616.148627
450.583412	15166.306305
450.957640	15183.161403
451.331808	14259.984981
451.705917	13336.042304
452.079965	13096.007764
452.453954	13016.904498
452.827883	12722.836351
453.201752	12397.034139
453.575562	12239.014131
453.949311	12472.086838
454.323001	12259.571956
454.696632	11942.501023
455.070202	12310.792600
455.443713	12138.299439
455.817164	12098.769231
456.190556	12053.991182
456.563888	11621.379523
456.937160	11527.321675
457.310373	10738.527291
457.683526	10632.242124
458.056619	10401.609336
458.429653	10160.929528
458.802628	10115.523855
459.175542	9931.499054
459.548398	10075.817207
459.921194	10294.376432
460.293930	10285.567015
460.666607	10597.107803
461.039224	10819.334467
461.411782	10663.096506
461.784280	10105.043296
462.156719	9726.097241
462.529099	9346.763017
462.901419	8831.962907
463.273680	8379.569761
463.645882	8184.814864
464.018024	7972.728481
464.390106	7940.018954
464.762130	8254.682736
465.134094	8827.309922
465.505999	9588.682949
465.877845	10173.993678
466.249631	10076.664121
466.621358	9473.611051
466.993026	8832.353596
467.364634	8256.474866
467.736184	7736.005978
468.107674	7353.422731
468.479105	7062.502783
468.850477	6788.574045
469.221790	6440.777279
469.593043	6083.898875
469.964238	5831.674825
470.335373	5669.374877
470.706449	5682.441547
471.077467	5781.530467
471.448425	6049.868566
471.819324	6168.958264
472.190164	5871.315938
472.560945	5443.258962
472.931667	5074.312036
473.302330	4861.008213
473.672934	4691.267522
474.043479	4616.045945
474.413965	4469.118996
474.784393	4350.069627
475.154761	4307.487001
475.525070	4222.828383
475.895321	4117.604379
476.265513	4063.676636
476.635645	4034.753016
477.005719	3949.670942
477.375734	3900.401225
477.745691	3857.193495
478.115588	3839.098273
478.485427	3850.009851
478.855207	3911.123759
479.224928	3938.093932
479.594591	3924.203032
479.964194	3827.269206
480.333739	3758.787651
480.703226	3699.886810
481.072653	3668.009073
481.442022	3627.962147
481.811333	3583.400868
482.180584	3506.762727
482.549777	3454.788430
482.918912	3399.973444
483.287988	3353.793954
483.657005	3303.528609
484.025964	3259.940273
484.394864	3230.230232
484.763706	3192.779500
485.132489	3149.549086
485.501213	3125.255765
485.869879	3104.458485
486.238487	3078.451172
486.607036	3061.548183
486.975527	3039.155378
487.343959	3020.495547
487.712333	3008.890811
488.080648	2992.252483
488.448905	2983.836276
488.817104	2969.214410
489.185244	2968.377578
489.553326	2976.350163
489.921350	2996.124089
490.289315	3024.974612
490.657222	3018.239631
491.025070	3012.850637
491.392861	2992.781804
491.760593	2965.398256
492.128267	2939.637960
492.495883	2911.402457
492.863440	2888.445043
493.230939	2867.614995
493.598380	2848.350226
493.965763	2834.313133
494.333088	2824.460197
494.700354	2809.568629
495.067563	2804.156950
495.434713	2794.440126
495.801805	2792.257307
496.168839	2783.558796
496.535815	2778.210132
496.902733	2771.346601
497.269593	2765.365272
497.636395	2759.845208
498.003139	2762.748913
498.369825	2751.305493
498.736453	2753.626945
499.103023	2744.787282
499.469535	2742.307034
499.835989	2737.714543
500.202385	2735.304871
500.568723	2730.808162
500.935003	2732.139027
501.301226	2727.516288
501.667390	2729.389077
502.033497	2733.348903
502.399546	2723.465721
502.765537	2717.953220
503.131470	2719.263920
503.497345	2720.594784
503.863163	2714.757128
504.228923	2717.570092
504.594625	2721.272819
504.960269	2711.278732
505.325856	2717.247458
505.691385	2715.281408
506.056856	2717.280226
506.422270	2719.011862
506.787625	2716.125801
507.152924	2719.813405
507.518164	2721.103941
507.883347	2715.283929
508.248472	2718.578323
508.613540	2720.262068
508.978550	2723.957234
509.343503	2725.837584
509.708398	2728.022924
510.073236	2734.165570
510.438016	2732.887638
510.802738	2730.447719
511.167403	2737.391909
511.532010	2737.858216
511.896561	2744.036150
512.261053	2753.085021
512.625488	2746.554206
512.989866	2744.550347
513.354186	2743.814339
513.718449	2743.721077
514.082655	2756.691966
514.446803	2754.481420
514.810894	2763.684047
515.174927	2761.687750
515.538904	2761.135743
515.902822	2766.534819
516.266684	2765.128337
516.630488	2769.887187
516.994235	2765.831578
517.357925	2773.037908
517.721558	2776.049997
518.085133	2778.416819
518.448651	2780.738270
518.812112	2778.129473
519.175516	2781.048301
519.538863	2783.120215
519.902152	2782.568209
520.265385	2787.208591
520.628560	2787.596760
520.991678	2788.826802
521.354739	2789.819909
521.717743	2796.398615
522.080690	2793.709159
522.443580	2798.611681
522.806413	2801.732155
523.169189	2798.536064
523.531908	2798.425158
523.894569	2798.669654
524.257174	2801.427166
524.619722	2803.521765
524.982213	2805.056796
525.344647	2803.284831
525.707025	2805.253401
526.069345	2807.284986
526.431608	2805.818011
526.793815	2809.543423
527.155964	2806.329688
527.518057	2806.740542
527.880093	2809.896304
528.242072	2810.508804
528.603995	2809.656849
528.965860	2806.412867
529.327669	2808.366314
529.689421	2805.160140
530.051117	2807.814307
530.412755	2807.963022
530.774337	2811.249854
531.135862	2809.528300
531.497331	2808.290697
531.858743	2803.907413
532.220098	2808.394040
532.581396	2801.989254
532.942638	2802.306847
533.303824	2808.399081
533.664953	2806.186015
534.026025	2802.508493
534.387040	2807.642908
534.747999	2806.178453
535.108902	2807.658032
535.469748	2802.085036
535.830537	2804.787095
536.191270	2805.341622
536.551947	2804.648463
536.912567	2804.716518
537.273131	2807.206848
537.633638	2799.025056
537.994089	2803.703247
538.354483	2798.435241
538.714821	2803.259625
539.075103	2808.562919
539.435328	2805.644091
539.795497	2802.894141
540.155609	2805.785243
540.515665	2806.617033
540.875665	2801.593524
541.235609	2801.666620
541.595496	2803.080664
541.955328	2808.557878
542.315102	2804.020839
542.674821	2799.723256
543.034483	2799.279634
543.394090	2798.049592
543.753640	2799.009932
544.113134	2804.345994
544.472571	2796.184366
544.831953	2802.810962
545.191278	2798.077319
545.550548	2794.510702
545.909761	2799.438430
546.268918	2799.912299
546.628019	2803.506642
546.987064	2797.663944
547.346053	2792.476597
547.704986	2796.159160
548.063863	2788.201698
548.422684	2794.084725
548.781449	2790.329065
549.140158	2794.225877
549.498811	2790.487862
549.857408	2786.273457
550.215949	2791.155815
550.574434	2784.869496
550.932864	2782.331275
551.291237	2786.580967
551.649555	2785.250103
552.007817	2784.819084
552.366022	2782.469907
552.724173	2780.332457
553.082267	2781.554937
553.440305	2783.387397
553.798288	2775.402209
554.156215	2776.067641
554.514086	2778.575615
554.871902	2775.669390
555.229661	2771.550767
555.587365	2765.725714
555.945014	2767.260745
556.302606	2764.840992
556.660143	2760.124992
557.017625	2760.188007
557.375050	2755.905546
557.732421	2755.582912
558.089735	2754.955289
558.446994	2750.803899
558.804197	2751.880185
559.161345	2746.478589
559.518437	2738.417784
559.875474	2737.051631
560.232455	2737.228071
560.589381	2734.853688
560.946251	2733.956362
561.303065	2732.159191
561.659825	2729.099211
562.016528	2724.615104
562.373177	2718.520349
562.729770	2717.484392
563.086307	2711.929041
563.442789	2713.012889
563.799216	2708.904348
564.155587	2705.844368
564.511904	2700.803214
564.868164	2699.104345
565.224370	2699.409335
565.580520	2692.757533
565.936615	2690.126050
566.292654	2687.222346
566.648638	2684.290915
567.004567	2682.662622
567.360441	2679.277487
567.716260	2676.572908
568.072023	2672.693740
568.427732	2667.839109
568.783385	2662.112358
569.138982	2663.218892
569.494525	2659.342244
569.850013	2655.957110
570.205445	2654.785041
570.560823	2652.922335
570.916145	2648.312200
571.271412	2648.246665
571.626625	2642.598052
571.981782	2642.472023
572.336884	2637.491363
572.691931	2638.635705
573.046923	2634.141516
573.401860	2630.191772
573.756743	2625.871503
574.111570	2628.066926
574.466342	2623.444188
574.821059	2623.000566
575.175722	2620.729527
575.530330	2615.617797
575.884882	2615.146449
576.239380	2612.910697
576.593823	2613.694596
576.948211	2609.611262
577.302544	2606.712598
577.656823	2602.480550
578.011047	2603.806373
578.365216	2600.315374
578.719330	2599.624736
579.073389	2599.642380
579.427394	2597.520054
579.781344	2593.585434
580.135239	2593.756833
580.489080	2590.568303
580.842866	2588.670309
581.196597	2587.851121
581.550273	2587.291553
581.903895	2589.131574
582.257463	2588.529156
582.610975	2584.380287
582.964434	2585.524629
583.317837	2583.104875
583.671186	2581.010275
584.024481	2582.225193
584.377721	2578.668659
584.730906	2580.339802
585.084037	2582.021027
585.437113	2581.295101
585.790135	2576.994996
586.143103	2573.922413
586.496016	2577.363001
586.848874	2570.595252
587.201679	2575.059193
587.554428	2570.620457
587.907124	2571.752196
588.259765	2568.331773
588.612352	2571.124573
588.964884	2566.816907
589.317362	2569.304716
589.669786	2567.542833
590.022155	2567.391598
590.374470	2570.955694
590.726731	2568.167936
591.078937	2564.429920
591.431090	2567.074006
591.783188	2564.553429
592.135232	2561.143088
592.487222	2563.068809
592.839157	2562.884807
593.191038	2562.423541
593.542866	2558.534291
593.894639	2561.634601
594.246358	2560.875907
594.598022	2558.861966
594.949633	2558.882131
595.301190	2557.384908
595.652692	2555.186965
596.004141	2557.475649
596.355535	2554.408107
596.706876	2553.883827
597.058162	2553.440205
597.409395	2552.253013
597.760573	2555.214691
598.111698	2550.952396
598.462768	2551.176727
598.813785	2550.927190
599.164748	2548.182282
599.515657	2548.857796
599.866511	2548.671273
600.217312	2551.088507
600.568060	2547.017775
600.918753	2550.602035
601.269392	2550.357539
601.619978	2547.390820
601.970510	2548.726726
602.320988	2545.858310
602.671412	2548.212528
603.021783	2542.770603
603.372100	2548.101623
603.722363	2541.941333
604.072572	2549.858465
604.422728	2547.912580
604.772830	2542.362269
605.122878	2539.624923
605.472872	2542.763041
605.822813	2540.063503
606.172701	2543.521735
606.522534	2540.300438
606.872314	2545.452497
607.222041	2545.676828
607.571714	2544.978628
607.921333	2540.764224
608.270899	2544.013247
608.620411	2544.386293
608.969870	2544.139276
609.319276	2540.867567
609.668627	2546.130532
610.017926	2545.749925
610.367171	2547.184133
610.716362	2543.335212
611.065500	2546.548948
611.414585	2543.388144
611.763616	2544.124153
612.112594	2545.432332
612.461518	2544.328319
612.810389	2541.477547
613.159207	2542.216076
613.507971	2542.037115
613.856682	2543.851930
614.205340	2544.605583
614.553945	2544.245140
614.902496	2540.784388
615.250994	2545.742363
615.599439	2543.196580
615.947830	2542.400078
616.296169	2545.477703
616.644454	2543.788916
616.992686	2543.735984
617.340864	2546.493495
617.688990	2542.357228
618.037063	2542.566436
618.385082	2544.146838
618.733048	2546.652291
619.080961	2545.964174
619.428821	2544.701365
619.776628	2543.925027
620.124382	2544.025850
620.472083	2544.038453
620.819731	2546.281767
621.167326	2545.603731
621.514868	2542.405119
621.862357	2539.571991
622.209793	2540.776827
622.557176	2538.354552
622.904506	2537.149716
623.251783	2531.848943
623.599007	2534.482946
623.946179	2529.219981
624.293297	2531.312060
624.640363	2534.172915
624.987376	2531.715353
625.334336	2530.447502
625.681243	2529.353572
626.028097	2531.014632
626.374899	2528.859539
626.721647	2528.249559
627.068343	2527.246370
627.414987	2527.170752
627.761577	2524.531708
628.108115	2525.101359
628.454600	2523.498272
628.801032	2523.243693
629.147412	2522.265710
629.493739	2523.248735
629.840014	2520.947448
630.186236	2521.355781
630.532405	2522.358971
630.878521	2520.108096
631.224585	2520.481141
631.570597	2520.279495
631.916556	2520.206398
632.262462	2522.303518
632.608316	2518.535256
632.954117	2519.127591
633.299866	2520.476100
633.645562	2515.848321
633.991206	2518.217663
634.336797	2512.364883
634.682336	2516.818743
635.027823	2513.967970
635.373257	2515.850841
635.718639	2509.201559
636.063968	2512.054852
636.409245	2511.147445
636.754470	2511.465038
637.099642	2508.843637
637.444762	2507.119563
637.789829	2507.684172
638.134845	2506.922958
638.479808	2505.254336
638.824719	2507.149810
639.169577	2504.094871
639.514383	2505.677793
639.859137	2501.377689
640.203839	2505.690396
640.548489	2502.080930
640.893086	2501.942298
641.237632	2498.763850
641.582125	2500.082112
641.926566	2495.159425
642.270955	2500.762668
