Dividing Wavelength (nm)	Counts (n)	Blue Motor Position (mm): 0.000000	Red Motor Position (mm): 48.200000	
326.493990	1998.643580
326.888308	1998.643580
327.282561	1998.643580
327.676750	1973.977214
328.070874	1974.385548
328.464933	1983.842752
328.858929	1991.764926
329.252859	2004.680362
329.646726	2019.050171
330.040528	2031.784126
330.434265	2052.959492
330.827938	2073.668552
331.221547	2091.746130
331.615091	2114.290170
332.008571	2134.364045
332.401986	2153.349030
332.795338	2174.912566
333.188625	2195.961903
333.581847	2214.820860
333.975006	2232.099415
334.368100	2251.603639
334.761129	2268.148706
335.154095	2281.202774
335.546996	2327.316729
335.939833	2411.710685
336.332606	2426.413210
336.725315	2440.074737
337.117960	2449.368104
337.510540	2456.551749
337.903056	2466.008953
338.295508	2472.131435
338.687896	2480.310707
339.080220	2489.160452
339.472480	2492.263283
339.864676	2497.279231
340.256807	2499.020949
340.648875	2500.266114
341.040879	2502.297699
341.432818	2502.522031
341.824694	2506.381034
342.216506	2503.855416
342.608253	2506.713750
342.999937	2503.535302
343.391557	2503.182422
343.783113	2502.945488
344.174605	2501.637308
344.566033	2494.287306
344.957397	2498.531957
345.348697	2493.851246
345.739934	2493.717655
346.131106	2492.439723
346.522215	2491.008035
346.913260	2486.450832
347.304241	2492.653972
347.695159	2484.696511
348.086012	2485.941676
348.476802	2483.549648
348.867528	2479.541931
349.258191	2481.238279
349.648789	2481.369349
350.039324	2477.744759
350.429796	2480.756849
350.820203	2477.036477
351.210548	2477.855665
351.600828	2478.274081
351.991045	2474.513380
352.381198	2477.538072
352.771288	2477.679224
353.161314	2473.580766
353.551276	2475.536734
353.941175	2470.540951
354.331010	2476.829790
354.720782	2475.602269
355.110490	2481.145018
355.500135	2476.857516
355.889717	2474.790643
356.279235	2478.190902
356.668689	2476.164358
357.058080	2477.661580
357.447408	2479.539410
357.836672	2475.085551
358.225873	2477.921200
358.615010	2480.764411
359.004084	2484.641058
359.393095	2483.446304
359.782043	2484.557879
360.170927	2484.399082
360.559748	2485.266161
360.948505	2485.939155
361.337199	2490.803868
361.725830	2488.923518
362.114398	2490.687922
362.502903	2489.427633
362.891344	2492.273365
363.279722	2490.924856
363.668037	2494.299909
364.056289	2493.306801
364.444478	2495.038438
364.832603	2494.892244
365.220665	2498.484066
365.608665	2498.262256
365.996601	2494.970382
366.384474	2501.017246
366.772284	2502.496825
367.160031	2500.624036
367.547715	2504.987155
367.935336	2502.257370
368.322893	2504.931702
368.710388	2504.944305
369.097820	2511.326406
369.485189	2507.379182
369.872495	2509.332629
370.259738	2513.904956
370.646918	2517.421161
371.034035	2515.928979
371.421090	2519.268744
371.808081	2522.462315
372.195010	2530.515558
372.581875	2533.885569
372.968678	2540.373534
373.355418	2547.534493
373.742096	2561.652245
374.128710	2571.434604
374.515262	2582.071438
374.901751	2598.934098
375.288177	2615.395986
375.674540	2635.411887
376.060841	2656.630104
376.447079	2682.244206
376.833254	2706.356045
377.219367	2727.816237
377.605417	2766.640683
377.991404	2794.813172
378.377329	2835.051662
378.763191	2872.215048
379.148991	2921.187337
379.534727	2972.523927
379.920402	3019.026051
380.306013	3069.835840
380.691563	3137.939308
381.077049	3193.941486
381.462474	3251.261926
381.847835	3325.744974
382.233134	3401.609298
382.618371	3463.975933
383.003545	3551.528173
383.388657	3634.487921
383.773706	3730.849577
384.158693	3806.292965
384.543618	3904.262748
384.928480	3984.671673
385.313280	4092.050770
385.698017	4202.416752
386.082692	4325.635154
386.467305	4387.351480
386.851856	4521.667983
387.236344	4678.722611
387.620770	4745.114607
388.005133	4870.979616
388.389435	5024.364283
388.773674	5109.390905
389.157851	5246.177573
389.541965	5381.015836
389.926018	5407.746554
390.310008	5591.045428
390.693936	5717.845571
391.077802	5836.721020
391.461606	5973.001052
391.845348	6090.860709
392.229027	6216.292178
392.612645	6441.500685
392.996200	6564.986269
393.379694	6747.735658
393.763125	6972.389638
394.146494	7071.125677
394.529801	7214.848973
394.913047	7465.883311
395.296230	7461.240408
395.679351	7520.887341
396.062410	7797.704660
396.445408	7684.986981
396.828343	7846.999583
397.211217	7987.378074
397.594028	7868.409363
397.976778	8077.571878
398.359466	8248.431705
398.742092	8214.769400
399.124656	8371.234213
399.507158	8563.259324
399.889598	8589.503571
400.271977	8793.834140
400.654294	8836.142023
401.036549	9041.818580
401.418742	9068.314884
401.800874	9376.646977
402.182944	9458.187640
402.564952	9833.443571
402.946898	9656.234410
403.328783	9713.154078
403.710606	9913.313092
404.092367	10180.020377
404.474067	10553.330423
404.855705	10339.643473
405.237282	10289.761255
405.618797	10726.743594
406.000250	10990.582463
406.381642	11357.215500
406.762972	11301.246089
407.144240	11102.584299
407.525447	11363.819412
407.906593	11304.613580
408.287677	11564.285935
408.668700	11729.938251
409.049661	11701.390197
409.430560	11873.119623
409.811399	11834.466576
410.192176	11998.230979
410.572891	12079.305336
410.953545	12590.783326
411.334138	12040.206147
411.714669	12675.618383
412.095139	11945.298864
412.475547	12479.477169
412.855894	12308.403093
413.236180	12655.116010
413.616405	12326.649549
413.996568	12618.318108
414.376670	12580.194382
414.756711	12451.377778
415.136691	12741.917118
415.516609	12937.241665
415.896466	13008.435360
416.276262	13296.673413
416.655997	13751.534204
417.035670	13775.305765
417.415283	14445.615389
417.794834	14546.267067
418.174324	14280.449545
418.553753	14179.649154
418.933121	14688.326782
419.312428	14488.666843
419.691674	14404.807249
420.070859	14859.834398
420.449983	14517.156924
420.829045	15078.378500
421.208047	14816.674559
421.586988	15293.723989
421.965867	15551.924327
422.344686	15550.064142
422.723444	16124.710310
423.102141	14783.753304
423.480777	16000.697925
423.859352	15501.046482
424.237866	16634.325593
424.616319	16329.716392
424.994712	17006.251842
425.373044	16796.998587
425.751314	17493.844844
426.129524	16586.207780
426.507673	17728.336636
426.885762	17399.003097
427.263789	17615.243391
427.641756	17787.769319
428.019662	17838.773193
428.397508	17895.191267
428.775292	18216.811841
429.153016	18162.049787
429.530679	18246.524402
429.908282	18274.084390
430.285824	17981.705028
430.663305	18716.712821
431.040726	18300.888205
431.418086	18123.643756
431.795385	18784.997770
432.172624	19200.688796
432.549802	18752.441999
432.926920	18944.068859
433.303977	18827.093926
433.680974	19087.744265
434.057910	19385.303412
434.434786	19410.206712
434.811601	19310.724582
435.188355	20387.719210
435.565050	20018.432005
435.941683	19976.235027
436.318257	20875.891945
436.694770	20675.599341
437.071222	21284.457300
437.447614	20338.220120
437.823946	20373.072137
438.200218	20515.671256
438.576429	20294.699839
438.952580	20577.153168
439.328670	20535.654390
439.704700	20956.565530
440.080670	20511.676142
440.456580	21120.927310
440.832429	21304.470681
441.208218	20263.222874
441.583947	20731.518340
441.959616	20840.674445
442.335224	21081.689489
442.710773	21211.030374
443.086261	21762.136874
443.461689	21113.605034
443.837057	21236.006770
444.212365	21904.078122
444.587612	21897.333058
444.962800	21452.168927
445.337927	21902.681722
445.712995	20606.530492
446.088002	22495.753308
446.462949	22702.100338
446.837837	22879.080126
447.212664	22844.018901
447.587431	25755.935556
447.962139	28740.477594
448.336786	31159.223209
448.711374	29543.974502
449.085901	25790.643900
449.460369	25749.014052
449.834776	25670.296434
450.209124	28221.760507
450.583412	27725.358088
450.957640	28252.509025
451.331808	26875.832924
451.705917	25483.743495
452.079965	25544.870006
452.453954	25904.405098
452.827883	25785.068384
453.201752	25578.872589
453.575562	25757.286585
453.949311	26913.177792
454.323001	26968.196945
454.696632	26715.042801
455.070202	28303.838053
455.443713	28433.713300
455.817164	29068.840711
456.190556	29575.217053
456.563888	29011.933646
456.937160	29451.217272
457.310373	27756.272964
457.683526	28232.243586
458.056619	28219.955774
458.429653	28154.420774
458.802628	28742.809127
459.175542	28868.411996
459.548398	30165.377372
459.921194	31767.824069
460.293930	32459.979533
460.666607	34521.420767
461.039224	36280.322193
461.411782	36690.112548
461.784280	35481.125389
462.156719	35021.717477
462.529099	34463.669308
462.901419	33150.917559
463.273680	32080.972984
463.645882	32147.843890
464.018024	32142.026398
464.390106	32988.448732
464.762130	35739.184575
465.134094	39854.197801
465.505999	45206.007712
465.877845	49804.538168
466.249631	50954.637089
466.621358	49300.430345
466.993026	47199.095941
467.364634	45109.073885
467.736184	43130.610044
468.107674	41852.682585
468.479105	41045.878679
468.850477	40360.191016
469.221790	38899.751102
469.593043	37118.968547
469.964238	36227.138020
470.335373	36143.364126
470.706449	37942.418343
471.077467	40567.652140
471.448425	45145.541592
471.819324	47944.049930
472.190164	46077.794611
472.560945	42476.275836
472.931667	39339.311991
473.302330	38241.862881
473.672934	37404.953205
474.043479	37925.553163
474.413965	37101.712678
474.784393	36723.558084
475.154761	37646.361460
475.525070	37669.621344
475.895321	37196.191462
476.265513	37792.912843
476.635645	38786.980491
477.005719	38606.918037
477.375734	39088.754042
477.745691	39796.700921
478.115588	41159.344970
478.485427	43157.413859
478.855207	46548.298103
479.224928	49145.805554
479.594591	50794.139353
479.964194	49817.546866
480.333739	49991.060860
480.703226	50022.845335
481.072653	50647.280459
481.442022	51118.784620
481.811333	51388.834190
482.180584	50077.378017
482.549777	49581.706565
482.918912	49040.110202
483.287988	48748.035830
483.657005	47918.881969
484.025964	47266.907022
484.394864	47292.727812
484.763706	46874.521250
485.132489	46002.525143
485.501213	45820.325240
485.869879	45975.577655
486.238487	45562.649182
486.607036	45770.753054
486.975527	45216.669752
487.343959	45412.339618
487.712333	45494.081928
488.080648	45414.131748
488.448905	45871.434978
488.817104	45688.206680
489.185244	46649.950449
489.553326	48364.086430
489.921350	51073.298289
490.289315	53890.801694
490.657222	54456.893024
491.025070	54730.738583
491.392861	53851.455488
491.760593	52637.898523
492.128267	51002.520489
492.495883	49493.345221
492.863440	48104.640927
493.230939	46741.638955
493.598380	45639.937632
493.965763	45309.316078
494.333088	44483.489378
494.700354	43989.927649
495.067563	43691.970251
495.434713	43556.327924
495.801805	43619.841422
496.168839	43242.609359
496.535815	42879.190057
496.902733	42939.600725
497.269593	42512.347813
497.636395	42456.731283
498.003139	42852.086294
498.369825	42305.761328
498.736453	42609.684932
499.103023	42134.919145
499.469535	42007.214115
499.835989	42104.463014
500.202385	41759.373348
500.568723	41776.825822
500.935003	41971.074083
501.301226	41757.981989
501.667390	42398.947057
502.033497	42676.155066
502.399546	42062.006416
502.765537	41383.724207
503.131470	41776.649382
503.497345	42140.797130
503.863163	40790.561881
504.228923	41420.668303
504.594625	41828.021260
504.960269	41112.966355
505.325856	41825.692247
505.691385	41165.674139
506.056856	41306.786117
506.422270	41749.268355
506.787625	41329.153717
507.152924	41508.238187
507.518164	41617.674075
507.883347	40808.757926
508.248472	41081.280182
508.613540	41562.405385
508.978550	41883.625187
509.343503	41622.130455
509.708398	41828.104439
510.073236	42369.864640
510.438016	42360.294010
510.802738	41803.601911
511.167403	42442.530352
511.532010	42683.794934
511.896561	42967.831186
512.261053	43849.105537
512.625488	43390.710897
512.989866	43258.602419
513.354186	43111.859472
513.718449	43081.907457
514.082655	43795.117300
514.446803	43445.782982
514.810894	43968.233043
515.174927	43904.863219
515.538904	43784.230928
515.902822	44494.602602
516.266684	43911.603242
516.630488	44357.876427
516.994235	44197.204772
517.357925	44790.470442
517.721558	44960.165762
518.085133	45282.517304
518.448651	45418.232727
518.812112	45187.660433
519.175516	45290.031144
519.538863	45630.961858
519.902152	45584.149703
520.265385	46042.156174
520.628560	46094.269102
520.991678	45875.656945
521.354739	46117.889428
521.717743	46462.855586
522.080690	46357.785337
522.443580	46895.815084
522.806413	46938.828729
523.169189	46884.606078
523.531908	47066.571568
523.894569	46929.610979
524.257174	47109.431458
524.619722	47411.252900
524.982213	47393.898728
525.344647	47321.611103
525.707025	47341.332096
526.069345	47753.622864
526.431608	47675.197633
526.793815	47990.809152
527.155964	47538.536994
527.518057	47682.472018
527.880093	47467.270202
528.242072	47994.567332
528.603995	47689.890076
528.965860	47706.215853
529.327669	47801.289494
529.689421	47690.381589
530.051117	47646.251328
530.412755	47790.597207
530.774337	47865.833907
531.135862	47657.455292
531.497331	47874.454280
531.858743	47743.016276
532.220098	48104.439280
532.581396	47814.111669
532.942638	47476.314032
533.303824	47788.270714
533.664953	47740.160462
534.026025	47447.524002
534.387040	47938.010627
534.747999	47882.532729
535.108902	48036.056028
535.469748	47555.371927
535.830537	47680.775670
536.191270	47864.936582
536.551947	47503.798402
536.912567	47840.302983
537.273131	47949.247359
537.633638	47422.434179
537.994089	47767.286911
538.354483	47366.600880
538.714821	47926.753731
539.075103	48291.887024
539.435328	48037.439825
539.795497	47929.848999
540.155609	47914.347451
540.515665	48379.832474
540.875665	47841.654013
541.235609	48162.702416
541.595496	48131.593456
541.955328	48819.169032
542.315102	48165.011264
542.674821	47961.406622
543.034483	48012.334879
543.394090	47967.834093
543.753640	47928.286242
544.113134	48947.186613
544.472571	47939.948951
544.831953	49218.554445
545.191278	48409.219880
545.550548	48130.436511
545.909761	48591.142520
546.268918	48788.937232
546.628019	49095.210013
546.987064	48670.311320
547.346053	47923.197197
547.704986	48816.315738
548.063863	48366.642295
548.422684	48564.900793
548.781449	48409.595446
549.140158	48818.798507
549.498811	48657.925205
549.857408	48095.460985
550.215949	48934.762689
550.574434	48877.129698
550.932864	48622.012025
551.291237	49353.044868
551.649555	48942.435325
552.007817	49176.460810
552.366022	48839.542855
552.724173	49003.403040
553.082267	49416.505433
553.440305	49696.120593
553.798288	49007.945120
554.156215	49320.171504
554.514086	49555.890816
554.871902	49296.407504
555.229661	49311.077262
555.587365	49116.886975
555.945014	49217.193333
556.302606	49131.357607
556.660143	49373.322909
557.017625	49461.654007
557.375050	49264.877608
557.732421	49606.501480
558.089735	49593.845664
558.446994	49503.011633
558.804197	49962.772426
559.161345	49924.086611
559.518437	49171.059214
559.875474	49467.786571
560.232455	49620.495723
560.589381	49823.835705
560.946251	49504.423156
561.303065	50188.598474
561.659825	50003.260453
562.016528	49660.247742
562.373177	49383.264065
562.729770	49865.039576
563.086307	49382.724661
563.442789	49838.898673
563.799216	49892.765922
564.155587	49674.236944
564.511904	49692.944666
564.868164	49797.863680
565.224370	50040.449045
565.580520	49760.115520
565.936615	49979.297328
566.292654	49710.278673
566.648638	49957.585078
567.004567	49897.562580
567.360441	49950.053594
567.716260	49804.785185
568.072023	50083.624007
568.427732	50044.313089
568.783385	49622.857504
569.138982	50004.379589
569.494525	49970.689558
569.850013	49722.258976
570.205445	49699.833403
570.560823	49661.392084
570.916145	49562.797197
571.271412	49576.738508
571.626625	49332.797073
571.981782	49385.726668
572.336884	49076.643444
572.691931	49400.295603
573.046923	48995.979941
573.401860	48841.115695
573.756743	48845.894709
574.111570	48968.281321
574.466342	48785.552097
574.821059	48887.978261
575.175722	48436.371535
575.530330	48453.294688
575.884882	48160.443979
576.239380	48129.246798
576.593823	48105.747460
576.948211	48015.722534
577.302544	47541.027324
577.656823	47562.379131
578.011047	47791.237433
578.365216	47509.187396
578.719330	47307.095100
579.073389	47147.472005
579.427394	47225.526710
579.781344	47208.369143
580.135239	46862.614045
580.489080	46949.694936
580.842866	46418.470747
581.196597	46874.488483
581.550273	46815.895152
581.903895	46683.254832
582.257463	47100.266640
582.610975	46473.106772
582.964434	46734.840959
583.317837	46389.388330
583.671186	46223.902373
584.024481	46463.591594
584.377721	45985.783471
584.730906	46299.262582
585.084037	46321.879719
585.437113	46011.692481
585.790135	46068.254228
586.143103	45654.438511
586.496016	45771.433610
586.848874	45822.818091
587.201679	45844.353900
587.554428	45301.613195
587.907124	45484.730587
588.259765	45242.515748
588.612352	45503.828999
588.964884	44871.872473
589.317362	45173.005798
589.669786	45117.225431
590.022155	44880.661725
590.374470	45325.150342
590.726731	44821.271892
591.078937	44353.089852
591.431090	44442.272904
591.783188	44106.159013
592.135232	43768.290800
592.487222	44020.550138
592.839157	44111.729488
593.191038	43774.317499
593.542866	43521.543963
593.894639	42920.709001
594.246358	43211.800347
594.598022	43197.518758
594.949633	42775.289356
595.301190	42735.136566
595.652692	42546.635221
596.004141	42880.447825
596.355535	41892.613565
596.706876	41844.147912
597.058162	41673.083917
597.409395	42156.606189
597.760573	42246.671443
598.111698	41800.307517
598.462768	41823.592607
598.813785	41861.444110
599.164748	41283.667386
599.515657	41695.161651
599.866511	41136.732875
600.217312	41775.956223
600.568060	40717.545809
600.918753	41473.474390
601.269392	41438.040119
601.619978	41082.805131
601.970510	41296.587863
602.320988	41490.324447
602.671412	41788.622122
603.021783	41533.554861
603.372100	41186.630215
603.722363	41298.311938
604.072572	41372.109389
604.422728	41396.869016
604.772830	41189.123066
605.122878	41284.037911
605.472872	41232.960940
605.822813	41517.027438
606.172701	41333.937772
606.522534	41594.688934
606.872314	41855.845909
607.222041	41582.081008
607.571714	41980.899292
607.921333	41401.635427
608.270899	41708.354350
608.620411	42062.785274
608.969870	41855.477905
609.319276	41849.332738
609.668627	41912.982347
610.017926	42391.115624
610.367171	42570.129518
610.716362	42636.715599
611.065500	42580.242073
611.414585	42768.355249
611.763616	43072.921600
612.112594	42982.342147
612.461518	43217.103641
612.810389	43518.267213
613.159207	43363.239129
613.507971	43451.119044
613.856682	43927.911374
614.205340	43811.589270
614.553945	44528.479156
614.902496	43955.693173
615.250994	44414.382721
615.599439	44489.425337
615.947830	44725.603394
616.296169	44749.362352
616.644454	44880.835645
616.992686	45064.817596
617.340864	45564.353092
617.688990	45267.373678
618.037063	45910.803869
618.385082	45847.534868
618.733048	46161.334092
619.080961	46167.892633
619.428821	46168.757191
619.776628	46314.539799
620.124382	46123.285983
620.472083	46269.696215
620.819731	46413.583348
621.167326	46080.002637
621.514868	46055.033802
621.862357	45618.333767
622.209793	45656.339026
622.557176	45323.915259
622.904506	45075.217496
623.251783	44751.441828
623.599007	44508.266649
623.946179	44279.418429
624.293297	44235.464609
624.640363	43635.834482
624.987376	43626.707473
625.334336	43364.280127
625.681243	42980.791993
626.028097	42940.316568
626.374899	42793.641677
626.721647	42756.122889
627.068343	42633.264929
627.414987	42384.806620
627.761577	42158.642815
628.108115	42486.027948
628.454600	41916.740527
628.801032	42104.629372
629.147412	42065.762076
629.493739	42075.836822
629.840014	41681.973992
630.186236	42036.730071
630.532405	41640.926397
630.878521	41845.100690
631.224585	41738.692014
631.570597	41444.180245
631.916556	41600.272012
632.262462	41518.786801
632.608316	41542.477704
632.954117	41429.959150
633.299866	41434.039964
633.645562	41352.259846
633.991206	40862.514270
634.336797	40417.143451
634.682336	40425.451273
635.027823	40171.682109
