Dividing Wavelength (nm)	Counts (n)	Blue Motor Position (mm): 0.000000	Red Motor Position (mm): 37.600000	
326.493990	1991.585965
326.888308	1991.585965
327.282561	1991.585965
327.676750	1967.700978
328.070874	1966.201235
328.464933	1973.084930
328.858929	1984.016672
329.252859	1996.382623
329.646726	2011.402741
330.040528	2027.090811
330.434265	2044.134952
330.827938	2062.424259
331.221547	2086.737744
331.615091	2108.097113
332.008571	2127.467746
332.401986	2146.672022
332.795338	2166.221616
333.188625	2188.102745
333.581847	2205.484643
333.975006	2225.815617
334.368100	2243.648698
334.761129	2259.850967
335.154095	2272.683224
335.546996	2301.546350
335.939833	2341.472289
336.332606	2357.752695
336.725315	2366.978007
337.117960	2376.997300
337.510540	2383.586088
337.903056	2394.527912
338.295508	2398.127296
338.687896	2405.207597
339.080220	2412.391241
339.472480	2421.170410
339.864676	2424.285843
340.256807	2427.174425
340.648875	2427.771801
341.040879	2430.002512
341.432818	2429.926895
341.824694	2433.198603
342.216506	2431.335897
342.608253	2433.412852
342.999937	2427.701225
343.391557	2431.426638
343.783113	2428.717018
344.174605	2428.742223
344.566033	2426.539239
344.957397	2425.349527
345.348697	2424.273241
345.739934	2419.002714
346.131106	2422.493713
346.522215	2419.799217
346.913260	2414.170768
347.304241	2417.087076
347.695159	2412.739081
348.086012	2412.701272
348.476802	2409.059038
348.867528	2411.206570
349.258191	2408.191960
349.648789	2406.253636
350.039324	2406.278842
350.429796	2410.253792
350.820203	2402.616444
351.210548	2405.580642
351.600828	2402.334139
351.991045	2405.467216
352.381198	2405.358831
352.771288	2405.111815
353.161314	2405.555436
353.551276	2402.417318
353.941175	2402.465209
354.331010	2404.998389
354.720782	2404.108625
355.110490	2406.079716
355.500135	2402.913872
355.889717	2406.024264
356.279235	2407.697927
356.668689	2410.173133
357.058080	2409.099368
357.447408	2406.581311
357.836672	2404.668193
358.225873	2405.091650
358.615010	2406.069634
359.004084	2411.128432
359.393095	2411.388051
359.782043	2413.787641
360.170927	2414.304359
360.559748	2413.979204
360.948505	2414.753022
361.337199	2417.389545
361.725830	2416.474576
362.114398	2417.971798
362.502903	2423.514547
362.891344	2421.682087
363.279722	2421.293919
363.668037	2423.181831
364.056289	2421.011614
364.444478	2422.808785
364.832603	2425.258786
365.220665	2425.808272
365.608665	2422.239135
365.996601	2425.745258
366.384474	2424.578230
366.772284	2428.217943
367.160031	2428.336411
367.547715	2429.400094
367.935336	2430.783891
368.322893	2430.793973
368.710388	2434.121135
369.097820	2437.014757
369.485189	2433.306988
369.872495	2438.028029
370.259738	2437.050045
370.646918	2445.320058
371.034035	2439.842844
371.421090	2449.108485
371.808081	2450.343568
372.195010	2455.808178
372.581875	2462.543160
372.968678	2469.411732
373.355418	2474.964563
373.742096	2486.329844
374.128710	2496.540702
374.515262	2508.163082
374.901751	2526.969106
375.288177	2544.809750
375.674540	2561.112841
376.060841	2584.632344
376.447079	2609.770058
376.833254	2635.694192
377.219367	2661.736792
377.605417	2697.223995
377.991404	2722.079404
378.377329	2765.183790
378.763191	2798.783080
379.148991	2850.792665
379.534727	2900.816034
379.920402	2947.759259
380.306013	3000.295644
380.691563	3062.833678
381.077049	3123.085548
381.462474	3180.234589
381.847835	3254.054725
382.233134	3328.777228
382.618371	3390.622104
383.003545	3478.136534
383.388657	3563.866397
383.773706	3659.650840
384.158693	3733.803693
384.543618	3830.835822
384.928480	3913.044438
385.313280	4016.481354
385.698017	4125.171151
386.082692	4250.388372
386.467305	4315.227692
386.851856	4443.739307
387.236344	4604.277372
387.620770	4667.677443
388.005133	4794.570847
388.389435	4946.092808
388.773674	5026.179099
389.157851	5163.653885
389.541965	5302.895595
389.926018	5324.920396
390.310008	5512.113562
390.693936	5638.018900
391.077802	5758.550368
391.461606	5897.527418
391.845348	6012.175859
392.229027	6129.400330
392.612645	6358.402305
392.996200	6479.032075
393.379694	6659.142420
393.763125	6888.469550
394.146494	6983.265927
394.529801	7127.465612
394.913047	7377.761421
395.296230	7368.399999
395.679351	7427.424348
396.062410	7699.558436
396.445408	7593.265707
396.828343	7751.227742
397.211217	7891.094556
397.594028	7774.810260
397.976778	7976.587484
398.359466	8157.678333
398.742092	8128.719425
399.124656	8278.978577
399.507158	8466.093605
399.889598	8487.652099
400.271977	8699.562042
400.654294	8734.840037
401.036549	8940.251933
401.418742	8967.552301
401.800874	9275.781050
402.182944	9355.358184
402.564952	9727.231501
402.946898	9545.061845
403.328783	9608.542574
403.710606	9808.431886
404.092367	10072.850488
404.474067	10441.328587
404.855705	10229.746319
405.237282	10181.638588
405.618797	10617.090936
406.000250	10871.240708
406.381642	11244.379353
406.762972	11189.261898
407.144240	10982.809004
407.525447	11247.976217
407.906593	11183.464571
408.287677	11450.585231
408.668700	11614.374840
409.049661	11580.480642
409.430560	11744.602967
409.811399	11717.695809
410.192176	11887.444062
410.572891	11956.827982
410.953545	12461.573511
411.334138	11922.780029
411.714669	12545.296994
412.095139	11830.032881
412.475547	12343.078670
412.855894	12187.203672
413.236180	12526.042307
413.616405	12198.493336
413.996568	12481.818785
414.376670	12454.677213
414.756711	12326.316833
415.136691	12625.811783
415.516609	12808.203250
415.896466	12869.372611
416.276262	13169.888394
416.655997	13617.384059
417.035670	13646.758863
417.415283	14310.469617
417.794834	14406.909410
418.174324	14147.486592
418.553753	14045.665367
418.933121	14553.077666
419.312428	14348.429505
419.691674	14269.729532
420.070859	14731.718514
420.449983	14378.147107
420.829045	14938.942705
421.208047	14684.971895
421.586988	15151.634027
421.965867	15412.823769
422.344686	15407.913685
422.723444	15977.349821
423.102141	14637.322908
423.480777	15861.932604
423.859352	15359.831160
424.237866	16490.529200
424.616319	16173.831313
424.994712	16858.339347
425.373044	16649.625495
425.751314	17330.569433
426.129524	16444.279134
426.507673	17567.710351
426.885762	17249.479953
427.263789	17456.331098
427.641756	17615.664327
428.019662	17686.671500
428.397508	17731.031133
428.775292	18035.912556
429.153016	18000.327051
429.530679	18077.804544
429.908282	18095.219210
430.285824	17813.045665
430.663305	18542.926604
431.040726	18132.254047
431.418086	17949.441644
431.795385	18602.460110
432.172624	19036.140493
432.549802	18584.473273
432.926920	18773.783724
433.303977	18660.042690
433.680974	18918.595909
434.057910	19220.054388
434.434786	19235.934023
434.811601	19158.017949
435.188355	20208.869154
435.565050	19850.218784
435.941683	19796.613674
436.318257	20694.715397
436.694770	20496.618215
437.071222	21102.343097
437.447614	20164.428862
437.823946	20191.028510
438.200218	20346.462407
438.576429	20115.375914
438.952580	20391.467308
439.328670	20362.185766
439.704700	20785.551948
440.080670	20335.502938
440.456580	20940.950556
440.832429	21120.818926
441.208218	20106.319482
441.583947	20550.583767
441.959616	20652.241155
442.335224	20888.013400
442.710773	21039.149713
443.086261	21578.802711
443.461689	20927.636869
443.837057	21049.610107
444.212365	21718.553578
444.587612	21704.718132
444.962800	21267.082963
445.337927	21708.347762
445.712995	20413.509753
446.088002	22302.417496
446.462949	22499.440912
446.837837	22685.613244
447.212664	22640.555411
447.587431	25523.709763
447.962139	28495.187650
448.336786	30915.256569
448.711374	29346.174749
449.085901	25598.727173
449.460369	25548.862600
449.834776	25459.964372
450.209124	27989.844745
450.583412	27499.390887
450.957640	28034.781590
451.331808	26675.157192
451.705917	25279.198678
452.079965	25314.643030
452.453954	25693.490783
452.827883	25570.882360
453.201752	25368.661514
453.575562	25539.954881
453.949311	26668.336511
454.323001	26732.142395
454.696632	26485.592163
455.070202	28062.359222
455.443713	28203.750985
455.817164	28805.495875
456.190556	29334.663274
456.563888	28778.041752
456.937160	29225.761748
457.310373	27518.489298
457.683526	27994.560744
458.056619	27965.145612
458.429653	27899.335869
458.802628	28493.282094
459.175542	28615.729201
459.548398	29914.353117
459.921194	31509.104492
460.293930	32187.608511
460.666607	34222.606373
461.039224	36022.993975
461.411782	36431.035049
461.784280	35221.536213
462.156719	34742.356896
462.529099	34187.945919
462.901419	32878.009654
463.273680	31810.177323
463.645882	31888.095917
464.018024	31859.815044
464.390106	32715.992011
464.762130	35425.224034
465.134094	39498.640179
465.505999	44851.980080
465.877845	49473.762858
466.249631	50652.515698
466.621358	48980.816150
466.993026	46890.897438
467.364634	44797.722141
467.736184	42806.007627
468.107674	41537.028216
468.479105	40742.292833
468.850477	40037.577334
469.221790	38600.372099
469.593043	36823.360327
469.964238	35915.070433
470.335373	35831.505746
470.706449	37580.428209
471.077467	40178.202841
471.448425	44778.626251
471.819324	47621.496742
472.190164	45770.402694
472.560945	42188.176415
472.931667	39050.625275
473.302330	37933.835778
473.672934	37106.617720
474.043479	37609.601366
474.413965	36797.105998
474.784393	36403.850627
475.154761	37317.358116
475.525070	37358.950156
475.895321	36890.568990
476.265513	37488.608633
476.635645	38474.330650
477.005719	38291.394738
477.375734	38761.691543
477.745691	39457.373294
478.115588	40819.752682
478.485427	42789.044144
478.855207	46179.845209
479.224928	48812.302980
479.594591	50449.750408
479.964194	49474.965174
480.333739	49624.465632
480.703226	49655.130971
481.072653	50301.129631
481.442022	50770.491301
481.811333	51035.340921
482.180584	49736.921172
482.549777	49232.694882
482.918912	48677.043781
483.287988	48385.697856
483.657005	47550.726504
484.025964	46919.102694
484.394864	46937.732278
484.763706	46485.024060
485.132489	45621.398789
485.501213	45435.289471
485.869879	45590.287308
486.238487	45184.166913
486.607036	45373.973917
486.975527	44827.142315
487.343959	45022.280339
487.712333	45103.014418
488.080648	45001.407442
488.448905	45495.695097
488.817104	45284.238858
489.185244	46246.673265
489.553326	47922.125952
489.921350	50625.623663
490.289315	53482.001926
490.657222	54072.381535
491.025070	54353.907292
491.392861	53471.939783
491.760593	52235.758119
492.128267	50592.828436
492.495883	49067.082895
492.863440	47659.287752
493.230939	46293.288815
493.598380	45185.754876
493.965763	44850.951685
494.333088	44015.335064
494.700354	43526.083522
495.067563	43221.779311
495.434713	43107.138432
495.801805	43159.831092
496.168839	42778.538380
496.535815	42430.252622
496.902733	42455.902013
497.269593	42028.623895
497.636395	41959.295427
498.003139	42376.382852
498.369825	41824.126969
498.736453	42120.118317
499.103023	41655.989365
499.469535	41514.769002
499.835989	41605.565223
500.202385	41270.091558
500.568723	41281.109000
500.935003	41472.947589
501.301226	41270.015941
501.667390	41894.214131
502.033497	42154.698112
502.399546	41562.803636
502.765537	40882.762064
503.131470	41264.584098
503.497345	41617.762295
503.863163	40274.234301
504.228923	40878.325849
504.594625	41291.909672
504.960269	40566.777500
505.325856	41277.650769
505.691385	40620.122990
506.056856	40778.810952
506.422270	41216.940153
506.787625	40788.857971
507.152924	40970.150466
507.518164	41068.427761
507.883347	40270.317325
508.248472	40548.967104
508.613540	41023.198528
508.978550	41326.960815
509.343503	41065.652605
509.708398	41256.157809
510.073236	41795.188225
510.438016	41792.841568
510.802738	41239.159038
511.167403	41865.383772
511.532010	42092.696961
511.896561	42392.786767
512.261053	43258.393212
512.625488	42775.922021
512.989866	42665.341791
513.354186	42507.417564
513.718449	42486.741272
514.082655	43170.508256
514.446803	42845.270654
514.810894	43365.384140
515.174927	43285.396152
515.538904	43185.961913
515.902822	43869.388619
516.266684	43293.020897
516.630488	43731.203031
516.994235	43573.190584
517.357925	44152.202391
517.721558	44326.152446
518.085133	44620.679339
518.448651	44767.152584
518.812112	44509.481567
519.175516	44630.229805
519.538863	44965.688346
519.902152	44909.965952
520.265385	45373.003495
520.628560	45429.298060
520.991678	45218.061111
521.354739	45436.595130
521.717743	45747.442758
522.080690	45642.740514
522.443580	46183.467278
522.806413	46232.810092
523.169189	46186.436518
523.531908	46352.865171
523.894569	46217.293420
524.257174	46379.852988
524.619722	46681.795418
524.982213	46664.665577
525.344647	46566.995742
525.707025	46597.837521
526.069345	46978.419431
526.431608	46900.092503
526.793815	47225.400681
527.155964	46752.510204
527.518057	46918.699402
527.880093	46671.889551
528.242072	47195.569653
528.603995	46896.160403
528.965860	46900.450425
529.327669	46978.888258
529.689421	46878.448309
530.051117	46820.580904
530.412755	46957.949826
530.774337	47016.069288
531.135862	46801.691701
531.497331	47002.644696
531.858743	46891.825011
532.220098	47235.593894
532.581396	46924.466482
532.942638	46582.217506
533.303824	46869.674181
533.664953	46811.199317
534.026025	46503.169693
534.387040	46972.027248
534.747999	46900.546207
535.108902	47072.424347
535.469748	46591.321830
535.830537	46658.306162
536.191270	46846.699122
536.551947	46477.195148
536.912567	46775.560880
537.273131	46875.342958
537.633638	46348.960797
537.994089	46672.789397
538.354483	46253.178874
538.714821	46782.676468
539.075103	47121.247922
539.435328	46843.319028
539.795497	46724.186481
540.155609	46688.364042
540.515665	47111.352137
540.875665	46555.801860
541.235609	46850.273300
541.595496	46796.685835
541.955328	47437.865151
542.315102	46778.618339
542.674821	46539.506330
543.034483	46543.871969
543.394090	46481.855695
543.753640	46407.685198
544.113134	47382.261224
544.472571	46353.686879
544.831953	47558.898214
545.191278	46726.328971
545.550548	46412.398677
545.909761	46837.534304
546.268918	46990.092223
546.628019	47249.283148
546.987064	46778.169677
547.346053	46012.463778
547.704986	46833.813933
548.063863	46339.208685
548.422684	46487.892477
548.781449	46293.999617
549.140158	46628.008827
549.498811	46434.801565
549.857408	45818.001268
550.215949	46569.579333
550.574434	46457.645553
550.932864	46162.823753
551.291237	46809.296281
551.649555	46354.175871
552.007817	46530.036523
552.366022	46113.060003
552.724173	46220.010602
553.082267	46540.645631
553.440305	46756.245699
553.798288	46024.635644
554.156215	46239.393839
554.514086	46378.572535
554.871902	46063.699545
555.229661	46003.591347
555.587365	45746.305978
555.945014	45763.834070
556.302606	45597.793586
556.660143	45751.437873
557.017625	45751.463079
557.375050	45468.765253
557.732421	45720.465024
558.089735	45598.085973
558.446994	45436.491786
558.804197	45801.199102
559.161345	45643.650442
559.518437	44815.328371
559.875474	45022.706317
560.232455	45058.869034
560.589381	45150.555020
560.946251	44763.215443
561.303065	45318.501060
561.659825	45022.489547
562.016528	44612.363956
562.373177	44227.055964
562.729770	44577.980766
563.086307	44004.163868
563.442789	44333.444475
563.799216	44270.709836
564.155587	43954.198471
564.511904	43846.579919
564.868164	43804.965194
565.224370	43922.061115
565.580520	43531.795149
565.936615	43607.593938
566.292654	43216.213877
566.648638	43319.255062
567.004567	43134.584994
567.360441	43064.926330
567.716260	42781.008545
568.072023	42885.814134
568.427732	42743.162083
568.783385	42198.230996
569.138982	42399.529310
569.494525	42221.352248
569.850013	41867.115408
570.205445	41689.329036
570.560823	41505.911694
570.916145	41238.639800
571.271412	41123.131842
571.626625	40749.358010
571.981782	40645.994192
572.336884	40226.991128
572.691931	40338.564466
573.046923	39829.072690
573.401860	39537.618381
573.756743	39362.831495
574.111570	39312.142693
574.466342	38996.410186
574.821059	38931.613715
575.175722	38344.727626
575.530330	38206.090854
575.884882	37813.468148
576.239380	37604.575336
576.593823	37418.907119
576.948211	37167.368665
577.302544	36601.403364
577.656823	36438.107788
578.011047	36436.025792
578.365216	36049.608747
578.719330	35707.097631
579.073389	35409.225932
579.427394	35313.456612
579.781344	35088.832879
580.135239	34621.979183
580.489080	34508.054147
580.842866	33927.315745
581.196597	34079.505659
581.550273	33837.895758
581.903895	33543.746952
582.257463	33661.568799
582.610975	33009.901362
582.964434	33008.046217
583.317837	32570.821903
583.671186	32245.848962
584.024481	32214.475341
584.377721	31687.314321
584.730906	31701.926106
585.084037	31536.861085
585.437113	31132.162295
585.790135	30962.159464
586.143103	30494.882311
586.496016	30397.701468
586.848874	30211.960154
587.201679	30022.528716
587.554428	29462.496853
587.907124	29386.816531
588.259765	29018.315747
588.612352	29006.617749
588.964884	28403.756243
589.317362	28375.608961
589.669786	28150.803746
590.022155	27804.786508
590.374470	27886.402788
590.726731	27390.940544
591.078937	26894.820430
591.431090	26758.439574
591.783188	26366.739400
592.135232	25992.279972
592.487222	25930.462823
592.839157	25795.349817
593.191038	25416.842342
593.542866	25075.069756
593.894639	24537.849114
594.246358	24525.450396
594.598022	24320.063706
594.949633	23903.677001
595.301190	23699.754766
595.652692	23419.141458
596.004141	23421.765378
596.355535	22702.733003
596.706876	22483.440290
597.058162	22225.141649
597.409395	22299.339872
597.760573	22160.498933
598.111698	21760.616966
598.462768	21582.727250
598.813785	21421.836304
599.164748	20961.566355
599.515657	20980.505970
599.866511	20559.350334
600.217312	20682.097389
600.568060	19998.242184
600.918753	20181.876295
601.269392	19991.698767
601.619978	19655.927673
601.970510	19580.547300
602.320988	19501.786833
602.671412	19464.268045
603.021783	19180.153656
603.372100	18844.294342
603.722363	18732.189163
604.072572	18600.972970
604.422728	18437.538762
604.772830	18191.941308
605.122878	18052.608857
605.472872	17865.491309
605.822813	17807.525601
606.172701	17569.628510
606.522534	17502.777769
606.872314	17456.444524
607.222041	17187.738421
607.571714	17180.267431
607.921333	16797.303576
608.270899	16754.305055
608.620411	16729.883185
608.969870	16501.478586
609.319276	16338.157805
609.668627	16196.183789
610.017926	16228.686628
610.367171	16130.109385
610.716362	16001.958213
611.065500	15826.984805
611.414585	15746.827938
611.763616	15693.023703
612.112594	15523.683783
612.461518	15444.968687
612.810389	15403.132151
613.159207	15198.138671
613.507971	15085.937710
613.856682	15089.305201
614.205340	14911.750721
614.553945	14983.640095
614.902496	14670.899514
615.250994	14675.834803
615.599439	14552.117326
615.947830	14483.860103
616.296169	14358.524416
616.644454	14256.660340
616.992686	14168.288913
617.340864	14183.949258
617.688990	13965.528665
618.037063	14006.518287
618.385082	13867.291700
618.733048	13817.326303
619.080961	13694.614536
619.428821	13570.576946
619.776628	13466.182212
620.124382	13291.516313
620.472083	13192.563504
620.819731	13105.404475
621.167326	12884.796021
621.514868	12752.596802
621.862357	12509.885409
622.209793	12379.327086
622.557176	12181.580265
622.904506	11993.454486
623.251783	11798.366873
623.599007	11622.775923
623.946179	11456.969852
624.293297	11338.028868
624.640363	11095.040212
624.987376	10982.612399
625.334336	10824.264715
625.681243	10646.710236
626.028097	10525.009220
626.374899	10397.856197
626.721647	10294.164703
627.068343	10175.385036
627.414987	10032.619559
627.761577	9897.395649
628.108115	9863.710659
628.454600	9683.378503
628.801032	9612.845199
629.147412	9522.769862
629.493739	9436.140154
629.840014	9287.022823
630.186236	9268.776367
630.532405	9116.094940
630.878521	9072.980472
631.224585	8977.914393
631.570597	8849.669960
631.916556	8804.788567
632.262462	8716.243220
632.608316	8647.620513
632.954117	8555.614415
633.299866	8480.007189
633.645562	8389.672233
633.991206	8235.675065
634.336797	8093.993436
634.682336	8018.792024
635.027823	7904.972852
635.373257	7806.483830
