Dividing Wavelength (nm)	Counts (n)	Blue Motor Position (mm): 0.000000	Red Motor Position (mm): 15.000000	
326.493990	1982.383338
326.888308	1982.383338
327.282561	1982.383338
327.676750	1958.029524
328.070874	1959.690584
328.464933	1964.336008
328.858929	1973.266412
329.252859	1989.710656
329.646726	2001.673314
330.040528	2015.778462
330.434265	2035.638088
330.827938	2055.853115
331.221547	2075.145610
331.615091	2092.910637
332.008571	2116.548607
332.401986	2137.136679
332.795338	2158.218785
333.188625	2174.141269
333.581847	2197.118848
333.975006	2211.266847
334.368100	2229.515823
334.761129	2245.929820
335.154095	2262.192583
335.546996	2280.179420
335.939833	2295.794394
336.332606	2307.336115
336.725315	2317.998156
337.117960	2324.155925
337.510540	2333.199755
337.903056	2343.481188
338.295508	2346.271467
338.687896	2359.582634
339.080220	2366.415918
339.472480	2368.013964
339.864676	2371.179808
340.256807	2375.139635
340.648875	2377.624923
341.040879	2380.019472
341.432818	2380.568957
341.824694	2377.526621
342.216506	2380.959647
342.608253	2381.093237
342.999937	2381.609956
343.391557	2381.156252
343.783113	2376.556199
344.174605	2374.786754
344.566033	2371.336084
344.957397	2373.566795
345.348697	2370.900024
345.739934	2368.762575
346.131106	2366.572194
346.522215	2365.561442
346.913260	2363.575228
347.304241	2362.745958
347.695159	2359.358303
348.086012	2360.605988
348.476802	2357.442664
348.867528	2357.190606
349.258191	2355.582478
349.648789	2356.096676
350.039324	2353.427385
350.429796	2356.817561
350.820203	2351.811695
351.210548	2350.448063
351.600828	2353.407220
351.991045	2350.180882
352.381198	2349.817919
352.771288	2351.554596
353.161314	2350.377487
353.551276	2348.245079
353.941175	2349.091993
354.331010	2352.613239
354.720782	2348.948320
355.110490	2352.918228
355.500135	2352.398990
355.889717	2354.203723
356.279235	2353.142560
356.668689	2353.492920
357.058080	2353.876048
357.447408	2353.140039
357.836672	2349.649040
358.225873	2353.230780
358.615010	2349.971674
359.004084	2358.196317
359.393095	2357.672037
359.782043	2358.836543
360.170927	2358.909640
360.559748	2357.891327
360.948505	2359.915350
361.337199	2360.220340
361.725830	2363.086236
362.114398	2363.544981
362.502903	2361.314270
362.891344	2364.671679
363.279722	2369.344828
363.668037	2364.361648
364.056289	2362.917357
364.444478	2365.034642
364.832603	2366.239478
365.220665	2368.157637
365.608665	2370.910107
365.996601	2368.966742
366.384474	2369.853985
366.772284	2371.701568
367.160031	2371.699047
367.547715	2372.979500
367.935336	2371.605786
368.322893	2373.191229
368.710388	2376.125180
369.097820	2376.568802
369.485189	2379.323792
369.872495	2379.389327
370.259738	2380.435367
370.646918	2381.990563
371.034035	2382.353526
371.421090	2384.765718
371.808081	2385.773949
372.195010	2394.747202
372.581875	2399.478325
372.968678	2403.778430
373.355418	2411.055335
373.742096	2418.012127
374.128710	2429.611823
374.515262	2444.803340
374.901751	2454.474793
375.288177	2474.611682
375.674540	2492.674137
376.060841	2510.837414
376.447079	2532.312729
376.833254	2560.407080
377.219367	2585.451532
377.605417	2620.101903
377.991404	2642.711478
378.377329	2686.932479
378.763191	2716.138404
379.148991	2764.084818
379.534727	2812.091727
379.920402	2858.268696
380.306013	2907.578742
380.691563	2965.178966
381.077049	3020.520753
381.462474	3075.988569
381.847835	3148.820639
382.233134	3218.869992
382.618371	3278.400978
383.003545	3361.590099
383.388657	3437.824948
383.773706	3529.193341
384.158693	3603.890638
384.543618	3695.072508
384.928480	3772.991102
385.313280	3874.091443
385.698017	3974.712873
386.082692	4090.460286
386.467305	4155.410513
386.851856	4276.821662
387.236344	4431.327986
387.620770	4494.428109
388.005133	4609.316005
388.389435	4754.045011
388.773674	4835.013504
389.157851	4969.813958
389.541965	5096.402372
389.926018	5118.127224
390.310008	5294.786899
390.693936	5417.269293
391.077802	5531.728692
391.461606	5659.433721
391.845348	5773.358757
392.229027	5887.931581
392.612645	6116.222754
392.996200	6226.992027
393.379694	6396.717595
393.763125	6612.647858
394.146494	6708.265944
394.529801	6835.610531
394.913047	7076.174392
395.296230	7075.130874
395.679351	7126.296065
396.062410	7376.579271
396.445408	7277.863396
396.828343	7424.684481
397.211217	7553.564100
397.594028	7436.695030
397.976778	7633.247098
398.359466	7794.513610
398.742092	7771.447810
399.124656	7910.939058
399.507158	8093.567459
399.889598	8110.450283
400.271977	8310.692476
400.654294	8335.114345
401.036549	8519.212243
401.418742	8545.002786
401.800874	8831.398298
402.182944	8896.298112
402.564952	9242.527079
402.946898	9056.377432
403.328783	9102.985420
403.710606	9268.957848
404.092367	9503.575669
404.474067	9830.237397
404.855705	9603.203992
405.237282	9535.995329
405.618797	9906.709180
406.000250	10111.526220
406.381642	10418.124156
406.762972	10323.509260
407.144240	10092.077448
407.525447	10269.455488
407.906593	10159.147480
408.287677	10346.282672
408.668700	10420.392675
409.049661	10328.477317
409.430560	10390.029805
409.811399	10296.952461
410.192176	10361.544766
410.572891	10331.413789
410.953545	10657.069807
411.334138	10123.536769
411.714669	10520.454538
412.095139	9847.641981
412.475547	10165.428758
412.855894	9935.358058
413.236180	10076.558256
413.616405	9720.972908
413.996568	9815.512187
414.376670	9670.609261
414.756711	9468.166604
415.136691	9537.966421
415.516609	9532.695894
415.896466	9447.979304
416.276262	9505.382923
416.655997	9649.635540
417.035670	9541.502790
417.415283	9802.687491
417.794834	9705.259632
418.174324	9381.730981
418.553753	9162.027414
418.933121	9294.589595
419.312428	9010.525617
419.691674	8806.346283
420.070859	8891.146053
420.449983	8543.419863
420.829045	8653.937079
421.208047	8365.804890
421.586988	8416.471007
421.965867	8364.380764
422.344686	8193.228550
422.723444	8260.817820
423.102141	7531.662807
423.480777	7858.528702
423.859352	7486.393246
424.237866	7747.580467
424.616319	7453.817309
424.994712	7524.148967
425.373044	7280.540249
425.751314	7317.832184
426.129524	6873.860286
426.507673	7036.394647
426.885762	6785.690505
427.263789	6666.308420
427.641756	6544.582199
428.019662	6400.538789
428.397508	6246.650007
428.775292	6160.826883
429.153016	5994.047870
429.530679	5858.574422
429.908282	5715.980344
430.285824	5514.440054
430.663305	5504.292212
431.040726	5289.962515
431.418086	5125.668790
431.795385	5101.428402
432.172624	5035.656468
432.549802	4840.848639
432.926920	4744.227364
433.303977	4612.713742
433.680974	4525.133777
434.057910	4449.513948
434.434786	4347.743135
434.811601	4232.046133
435.188355	4229.807861
435.565050	4101.379426
435.941683	4003.520547
436.318257	3979.176815
436.694770	3874.739231
437.071222	3829.852797
437.447614	3676.556350
437.823946	3596.996860
438.200218	3537.181049
438.576429	3453.313893
438.952580	3399.234915
439.328670	3333.830985
439.704700	3293.806744
440.080670	3218.968295
440.456580	3192.240097
440.832429	3144.359218
441.208218	3057.248079
441.583947	3029.597350
441.959616	2991.035044
442.335224	2959.663944
442.710773	2926.795621
443.086261	2903.255953
443.461689	2858.346834
443.837057	2828.851042
444.212365	2815.660863
444.587612	2788.110958
444.962800	2758.630290
445.337927	2742.039853
445.712995	2701.645087
446.088002	2712.407950
446.462949	2695.053778
446.837837	2684.434588
447.212664	2668.743996
447.587431	2683.229752
447.962139	2704.639532
448.336786	2716.884495
448.711374	2692.636545
449.085901	2644.052425
449.460369	2629.370064
449.834776	2617.911522
450.209124	2629.947276
450.583412	2617.818260
450.957640	2619.829681
451.331808	2600.380909
451.705917	2581.660584
452.079965	2575.349060
452.453954	2573.221693
452.827883	2567.164746
453.201752	2561.871535
453.575562	2559.212326
453.949311	2560.331462
454.323001	2558.773746
454.696632	2549.858465
455.070202	2560.356668
455.443713	2557.949517
455.817164	2555.111347
456.190556	2551.806871
456.563888	2547.801674
456.937160	2545.797816
457.310373	2539.146013
457.683526	2541.628782
458.056619	2538.699871
458.429653	2531.843902
458.802628	2531.428007
459.175542	2530.994468
459.548398	2535.997813
459.921194	2540.844882
460.293930	2543.753628
460.666607	2553.593960
461.039224	2561.266596
461.411782	2556.835422
461.784280	2551.554813
462.156719	2547.589946
462.529099	2544.081303
462.901419	2533.847761
463.273680	2529.156967
463.645882	2525.156811
464.018024	2531.133099
464.390106	2529.257790
464.762130	2542.763041
465.134094	2556.936245
465.505999	2577.766293
465.877845	2597.033583
466.249631	2602.238574
466.621358	2592.385639
466.993026	2586.734506
467.364634	2575.104564
467.736184	2558.299877
468.107674	2555.890206
468.479105	2554.166131
468.850477	2549.470296
469.221790	2543.912424
469.593043	2536.648122
469.964238	2532.128727
470.335373	2531.642256
470.706449	2537.530323
471.077467	2548.099102
471.448425	2564.008984
471.819324	2577.572208
472.190164	2568.026784
472.560945	2553.183106
472.931667	2537.583256
473.302330	2535.344983
473.672934	2532.491690
474.043479	2532.002698
474.413965	2528.362985
474.784393	2524.115813
475.154761	2528.718387
475.525070	2527.087573
475.895321	2527.072450
476.265513	2523.977181
476.635645	2534.694674
477.005719	2533.661238
477.375734	2533.880528
477.745691	2539.239275
478.115588	2544.093906
478.485427	2549.245965
478.855207	2565.932184
479.224928	2573.529203
479.594591	2578.033474
479.964194	2574.048442
480.333739	2574.734039
480.703226	2575.971642
481.072653	2577.690676
481.442022	2580.581777
481.811333	2581.224524
482.180584	2574.436611
482.549777	2574.587845
482.918912	2569.110632
483.287988	2568.596434
483.657005	2566.017884
484.025964	2566.000240
484.394864	2564.699622
484.763706	2566.945456
485.132489	2558.829198
485.501213	2559.250135
485.869879	2558.004970
486.238487	2560.248283
486.607036	2558.824157
486.975527	2557.589075
487.343959	2555.875082
487.712333	2556.694270
488.080648	2556.147305
488.448905	2560.916236
488.817104	2556.540515
489.185244	2563.020918
489.553326	2568.356979
489.921350	2580.329720
490.289315	2590.621235
490.657222	2592.640217
491.025070	2593.482090
491.392861	2591.674836
491.760593	2582.870461
492.128267	2580.294432
492.495883	2574.461817
492.863440	2567.247925
493.230939	2564.376988
493.598380	2556.837943
493.965763	2552.767211
494.333088	2552.968857
494.700354	2551.582540
495.067563	2553.886347
495.434713	2548.129349
495.801805	2551.819474
496.168839	2550.259237
496.535815	2549.568599
496.902733	2550.750749
497.269593	2550.266799
497.636395	2549.810574
498.003139	2553.006666
498.369825	2550.218908
498.736453	2553.198230
499.103023	2548.020965
499.469535	2551.181768
499.835989	2553.818292
500.202385	2551.534649
500.568723	2554.299722
500.935003	2555.582695
501.301226	2556.154866
501.667390	2560.412121
502.033497	2561.377502
502.399546	2560.825495
502.765537	2561.357337
503.131470	2560.306257
503.497345	2563.058727
503.863163	2559.615618
504.228923	2565.864129
504.594625	2568.309088
504.960269	2566.789180
505.325856	2571.853019
505.691385	2570.242371
506.056856	2573.476271
506.422270	2581.078331
506.787625	2577.572208
507.152924	2580.475913
507.518164	2583.939186
507.883347	2581.317786
508.248472	2583.475400
508.613540	2589.703745
508.978550	2592.685588
509.343503	2593.398911
509.708398	2597.784715
510.073236	2604.479367
510.438016	2607.322578
510.802738	2606.042125
511.167403	2609.026488
511.532010	2610.813577
511.896561	2617.737602
512.261053	2625.712707
512.625488	2617.924124
512.989866	2618.899588
513.354186	2622.821605
513.718449	2624.270937
514.082655	2631.515075
514.446803	2632.263687
514.810894	2635.767288
515.174927	2638.915489
515.538904	2636.490694
515.902822	2643.979328
516.266684	2642.845068
516.630488	2645.156437
516.994235	2645.799185
517.357925	2649.335554
517.721558	2653.129022
518.085133	2655.092552
518.448651	2658.336534
518.812112	2660.594971
519.175516	2659.939621
519.538863	2660.698315
519.902152	2660.524395
520.265385	2666.331804
520.628560	2665.663851
520.991678	2664.398522
521.354739	2667.942453
521.717743	2668.756599
522.080690	2669.071671
522.443580	2675.804132
522.806413	2674.349759
523.169189	2673.812877
523.531908	2674.803463
523.894569	2674.775737
524.257174	2678.070131
524.619722	2676.923268
524.982213	2678.092816
525.344647	2678.417971
525.707025	2678.175995
526.069345	2678.392765
526.431608	2679.259843
526.793815	2681.908970
527.155964	2678.579287
527.518057	2680.227745
527.880093	2675.274811
528.242072	2678.087775
528.603995	2676.157013
528.965860	2673.638957
529.327669	2675.005109
529.689421	2672.973524
530.051117	2672.451765
530.412755	2670.175684
530.774337	2671.980417
531.135862	2668.587721
531.497331	2665.245436
531.858743	2663.475991
532.220098	2666.258707
532.581396	2660.607574
532.942638	2659.511123
533.303824	2661.910712
533.664953	2657.224960
534.026025	2652.597181
534.387040	2653.980977
534.747999	2653.005514
535.108902	2652.584578
535.469748	2644.680048
535.830537	2645.229534
536.191270	2642.373721
536.551947	2639.177629
536.912567	2636.314254
537.273131	2637.851806
537.633638	2630.552215
537.994089	2629.412914
538.354483	2622.549383
538.714821	2624.681791
539.075103	2623.035854
539.435328	2622.040227
539.795497	2616.147118
540.155609	2609.618823
540.515665	2609.467589
540.875665	2604.257556
541.235609	2601.621033
541.595496	2601.119438
541.955328	2598.782863
542.315102	2592.977975
542.674821	2590.729620
543.034483	2585.665781
543.394090	2581.368197
543.753640	2578.734194
544.113134	2580.483475
544.472571	2573.410736
544.831953	2576.949626
545.191278	2569.773543
545.550548	2564.535785
545.909761	2565.639797
546.268918	2557.717624
546.628019	2560.626370
546.987064	2557.735268
547.346053	2552.638662
547.704986	2550.486089
548.063863	2548.850234
548.422684	2545.555840
548.781449	2540.900335
549.140158	2538.339429
549.498811	2537.389171
549.857408	2535.508821
550.215949	2531.488501
550.574434	2527.463139
550.932864	2525.476925
551.291237	2522.190092
551.649555	2525.736544
552.007817	2525.421472
552.366022	2519.687159
552.724173	2521.186903
553.082267	2521.411234
553.440305	2520.221522
553.798288	2513.521828
554.156215	2517.388393
554.514086	2516.612056
554.871902	2514.739267
555.229661	2511.500326
555.587365	2510.103926
555.945014	2507.573267
556.302606	2509.143586
556.660143	2509.836745
557.017625	2507.565705
557.375050	2505.629902
557.732421	2506.655777
558.089735	2503.769716
558.446994	2503.326095
558.804197	2503.699140
559.161345	2503.973883
559.518437	2501.619664
559.875474	2501.798625
560.232455	2501.685199
560.589381	2503.353821
560.946251	2502.869870
561.303065	2498.567245
561.659825	2499.668737
562.016528	2498.718480
562.373177	2501.304592
562.729770	2496.029024
563.086307	2496.172697
563.442789	2497.503562
563.799216	2498.726042
564.155587	2496.518016
564.511904	2499.015908
564.868164	2494.950218
565.224370	2495.708911
565.580520	2494.171359
565.936615	2493.808396
566.292654	2497.518685
566.648638	2494.158756
567.004567	2494.430979
567.360441	2494.536843
567.716260	2494.867038
568.072023	2496.384426
568.427732	2490.909733
568.783385	2492.928715
569.138982	2490.221615
569.494525	2491.575165
569.850013	2489.803199
570.205445	2492.900988
570.560823	2491.106338
570.916145	2492.704383
571.271412	2489.331852
571.626625	2493.238746
571.981782	2489.853611
572.336884	2490.884527
572.691931	2489.634321
573.046923	2491.502068
573.401860	2487.879999
573.756743	2488.275730
574.111570	2488.731954
574.466342	2490.564414
574.821059	2488.986533
575.175722	2488.759681
575.530330	2488.502582
575.884882	2487.086017
576.239380	2485.553507
576.593823	2488.376553
576.948211	2484.746922
577.302544	2485.490492
577.656823	2484.925883
578.011047	2488.245483
578.365216	2484.472179
578.719330	2486.808754
579.073389	2484.774648
579.427394	2485.036788
579.781344	2484.479741
580.135239	2482.112919
580.489080	2483.206850
580.842866	2481.417240
581.196597	2483.993270
581.550273	2482.145687
581.903895	2478.803402
582.257463	2484.550317
582.610975	2478.679893
582.964434	2481.767600
583.317837	2480.625779
583.671186	2481.215594
584.024481	2482.712817
584.377721	2480.368680
584.730906	2480.363639
585.084037	2478.284163
585.437113	2480.633341
585.790135	2482.168372
586.143103	2479.531848
586.496016	2476.726446
586.848874	2473.011116
587.201679	2476.129070
587.554428	2473.512711
587.907124	2477.520428
588.259765	2473.568163
588.612352	2478.737867
588.964884	2474.909110
589.317362	2475.829121
589.669786	2475.536734
590.022155	2475.834162
590.374470	2477.396920
590.726731	2475.861888
591.078937	2475.864409
591.431090	2472.993472
591.783188	2474.024388
592.135232	2474.122690
592.487222	2471.309727
592.839157	2471.100519
593.191038	2475.163689
593.542866	2470.926599
593.894639	2471.927268
594.246358	2472.726291
594.598022	2470.838379
594.949633	2472.378451
595.301190	2468.595065
595.652692	2471.024901
596.004141	2470.135138
596.355535	2470.888790
596.706876	2468.194293
597.058162	2468.156485
597.409395	2467.574232
597.760573	2467.985086
598.111698	2466.414766
598.462768	2469.431897
598.813785	2466.228243
599.164748	2465.041052
599.515657	2469.048769
599.866511	2468.937864
600.217312	2466.520630
600.568060	2466.223202
600.918753	2468.398460
601.269392	2467.851495
601.619978	2466.097173
601.970510	2466.240846
602.320988	2464.073150
602.671412	2466.195476
603.021783	2465.333439
603.372100	2468.542133
603.722363	2463.359827
604.072572	2466.127420
604.422728	2466.316464
604.772830	2462.414611
605.122878	2462.500310
605.472872	2462.838067
605.822813	2460.458643
606.172701	2462.802779
606.522534	2466.714715
606.872314	2466.311422
607.222041	2464.771350
607.571714	2464.370578
607.921333	2463.342183
608.270899	2464.758747
608.620411	2464.075671
608.969870	2464.509210
609.319276	2463.657255
609.668627	2464.529375
610.017926	2465.772019
610.367171	2465.197328
610.716362	2466.046762
611.065500	2465.827472
611.414585	2461.905454
611.763616	2465.444344
612.112594	2462.812862
612.461518	2465.953501
612.810389	2463.695064
613.159207	2462.911164
613.507971	2464.872173
613.856682	2467.100363
614.205340	2464.322687
614.553945	2465.028449
614.902496	2463.558953
615.250994	2465.285548
615.599439	2467.473408
615.947830	2463.332101
616.296169	2467.173460
616.644454	2466.679427
616.992686	2464.431072
617.340864	2465.910651
617.688990	2465.338480
618.037063	2464.461319
618.385082	2465.260342
618.733048	2468.738738
619.080961	2465.381330
619.428821	2468.776547
619.776628	2464.484004
620.124382	2465.073819
620.472083	2465.739252
620.819731	2465.973665
621.167326	2465.615743
621.514868	2466.119859
621.862357	2464.504169
622.209793	2461.751699
622.557176	2462.913685
622.904506	2458.510237
623.251783	2455.586368
623.599007	2459.336986
623.946179	2457.867490
624.293297	2460.619960
624.640363	2458.968982
624.987376	2462.091977
625.334336	2458.071657
625.681243	2458.162397
626.028097	2459.407562
626.374899	2457.232304
626.721647	2457.010494
627.068343	2459.238684
627.414987	2458.096862
627.761577	2459.906637
628.108115	2460.277161
628.454600	2460.312449
628.801032	2453.516974
629.147412	2456.309773
629.493739	2455.261213
629.840014	2458.386729
630.186236	2453.827005
630.532405	2456.438323
630.878521	2455.687191
631.224585	2452.967488
631.570597	2455.840946
631.916556	2455.977057
632.262462	2454.956223
632.608316	2454.769701
632.954117	2455.281378
633.299866	2457.330607
633.645562	2453.128805
633.991206	2453.874896
634.336797	2454.429423
634.682336	2455.845987
635.027823	2451.787858
635.373257	2452.478496
635.718639	2451.946655
636.063968	2448.798454
636.409245	2449.801644
636.754470	2449.572271
637.099642	2447.681838
637.444762	2448.453135
637.789829	2450.411623
638.134845	2446.696293
638.479808	2446.635799
638.824719	2447.452466
639.169577	2446.908021
639.514383	2447.714606
639.859137	2446.746704
640.203839	2450.406582
640.548489	2445.025150
640.893086	2444.737805
641.237632	2441.181271
641.582125	2444.369800
641.926566	2440.914089
642.270955	2446.371138
642.615292	2445.660336
642.959576	2443.069183
643.303809	2445.854420
643.647990	2445.241920
643.992118	2444.636982
644.336195	2445.675459
