Dividing Wavelength (nm)	Counts (n)	Blue Motor Position (mm): 0.000000	Red Motor Position (mm): 20.000000	
326.493990	1982.111116
326.888308	1982.111116
327.282561	1982.111116
327.676750	1962.143106
328.070874	1958.369802
328.464933	1966.639815
328.858929	1975.774386
329.252859	1987.542959
329.646726	2002.978972
330.040528	2017.106806
330.434265	2036.908458
330.827938	2057.594833
331.221547	2076.731053
331.615091	2098.294589
332.008571	2118.441560
332.401986	2138.550723
332.795338	2159.327838
333.188625	2179.144614
333.581847	2197.880063
333.975006	2213.104347
334.368100	2231.922974
334.761129	2249.360326
335.154095	2266.651483
335.546996	2279.995418
335.939833	2301.127934
336.332606	2313.037660
336.725315	2325.847232
337.117960	2333.290496
337.510540	2339.770899
337.903056	2349.898577
338.295508	2352.734226
338.687896	2362.849302
339.080220	2370.564788
339.472480	2375.381610
339.864676	2378.933103
340.256807	2380.790768
340.648875	2381.446118
341.040879	2384.400234
341.432818	2386.598177
341.824694	2385.542056
342.216506	2387.152704
342.608253	2388.672612
342.999937	2386.751933
343.391557	2383.749925
343.783113	2385.600029
344.174605	2381.728423
344.566033	2382.161962
344.957397	2380.415202
345.348697	2377.662732
345.739934	2375.608462
346.131106	2375.179964
346.522215	2372.482947
346.913260	2370.421115
347.304241	2371.878008
347.695159	2364.873325
348.086012	2367.041021
348.476802	2365.044724
348.867528	2363.139168
349.258191	2362.582120
349.648789	2361.198324
350.039324	2363.398787
350.429796	2361.389888
350.820203	2358.997860
351.210548	2361.243694
351.600828	2358.443333
351.991045	2357.258662
352.381198	2356.409228
352.771288	2359.368385
353.161314	2355.458970
353.551276	2355.375791
353.941175	2357.931656
354.331010	2357.561131
354.720782	2358.410566
355.110490	2357.543487
355.500135	2358.977695
355.889717	2359.960720
356.279235	2360.114476
356.668689	2360.386698
357.058080	2359.181862
357.447408	2360.797552
357.836672	2358.511389
358.225873	2363.660927
358.615010	2357.840915
359.004084	2360.472398
359.393095	2363.260156
359.782043	2366.128572
360.170927	2364.626308
360.559748	2365.374920
360.948505	2368.092102
361.337199	2366.844416
361.725830	2367.310723
362.114398	2369.790970
362.502903	2366.892307
362.891344	2373.541589
363.279722	2372.452700
363.668037	2372.301465
364.056289	2371.409181
364.444478	2373.655015
364.832603	2375.835314
365.220665	2375.802546
365.608665	2373.191229
365.996601	2374.224665
366.384474	2378.744060
366.772284	2380.329503
367.160031	2378.197094
367.547715	2379.369163
367.935336	2378.943185
368.322893	2380.180788
368.710388	2382.867723
369.097820	2386.010883
369.485189	2383.777652
369.872495	2385.821840
370.259738	2385.978115
370.646918	2388.952396
371.034035	2390.890720
371.421090	2393.005484
371.808081	2397.739127
372.195010	2402.573594
372.581875	2408.875036
372.968678	2413.893505
373.355418	2419.748805
373.742096	2426.214085
374.128710	2442.171857
374.515262	2451.913887
374.901751	2465.131793
375.288177	2482.788434
375.674540	2501.360045
376.060841	2520.284536
376.447079	2542.813453
376.833254	2571.686661
377.219367	2597.333532
377.605417	2631.663789
377.991404	2656.125988
378.377329	2698.388502
378.763191	2729.731876
379.148991	2777.370779
379.534727	2823.164621
379.920402	2869.550798
380.306013	2920.612645
380.691563	2982.202943
381.077049	3037.179246
381.462474	3090.164293
381.847835	3165.118689
382.233134	3235.853639
382.618371	3297.995943
383.003545	3379.939899
383.388657	3456.542752
383.773706	3551.442473
384.158693	3622.928555
384.543618	3714.677555
384.928480	3795.625883
385.313280	3895.362591
385.698017	4002.252697
386.082692	4120.618989
386.467305	4182.312630
386.851856	4306.098163
387.236344	4459.921411
387.620770	4523.785268
388.005133	4636.437412
388.389435	4787.611534
388.773674	4865.537690
389.157851	5002.513402
389.541965	5129.454697
389.926018	5156.790354
390.310008	5332.378783
390.693936	5452.711126
391.077802	5571.211008
391.461606	5697.958219
391.845348	5813.980375
392.229027	5927.663435
392.612645	6152.995450
392.996200	6267.568274
393.379694	6444.570748
393.763125	6662.278018
394.146494	6753.540546
394.529801	6890.697740
394.913047	7126.903524
395.296230	7120.312215
395.679351	7174.466810
396.062410	7430.393588
396.445408	7321.245046
396.828343	7477.513253
397.211217	7607.028057
397.594028	7491.328535
397.976778	7696.296809
398.359466	7855.413269
398.742092	7827.114752
399.124656	7977.144531
399.507158	8160.763519
399.889598	8178.349584
400.271977	8382.304587
400.654294	8412.654853
401.036549	8610.505018
401.418742	8637.180284
401.800874	8934.973844
402.182944	9015.176082
402.564952	9373.279486
402.946898	9199.026962
403.328783	9251.780117
403.710606	9446.408984
404.092367	9704.153098
404.474067	10051.438187
404.855705	9850.407054
405.237282	9801.341503
405.618797	10220.629392
406.000250	10469.115427
406.381642	10819.226082
406.762972	10770.427713
407.144240	10577.646428
407.525447	10823.997534
407.906593	10758.137380
408.287677	11015.513489
408.668700	11160.728967
409.049661	11143.173149
409.430560	11298.281891
409.811399	11268.602098
410.192176	11430.816346
410.572891	11498.783703
410.953545	11967.764766
411.334138	11455.792743
411.714669	12046.595809
412.095139	11368.167407
412.475547	11858.661594
412.855894	11702.630320
413.236180	12016.638752
413.616405	11712.309336
413.996568	11982.827733
414.376670	11956.706995
414.756711	11830.524393
415.136691	12104.012031
415.516609	12269.276177
415.896466	12343.489524
416.276262	12621.698202
416.655997	13062.705902
417.035670	13098.775357
417.415283	13718.786869
417.794834	13798.328715
418.174324	13552.695973
418.553753	13437.256071
418.933121	13912.909101
419.312428	13714.136405
419.691674	13621.492600
420.070859	14046.625707
420.449983	13707.343450
420.829045	14221.563827
421.208047	13953.049288
421.586988	14377.590059
421.965867	14604.230254
422.344686	14581.335854
422.723444	15099.916829
423.102141	13804.811639
423.480777	14914.162913
423.859352	14414.521552
424.237866	15413.758903
424.616319	15091.324183
424.994712	15666.986143
425.373044	15422.527990
425.751314	15992.211143
426.129524	15121.412309
426.507673	16068.652679
426.885762	15721.178547
427.263789	15825.467417
427.641756	15890.717592
428.019662	15860.163159
428.397508	15814.155068
428.775292	15977.405274
429.153016	15842.887124
429.530679	15803.556042
429.908282	15719.719133
430.285824	15371.438417
430.663305	15842.211610
431.040726	15398.204423
431.418086	15133.833713
431.795385	15532.833478
432.172624	15733.163890
432.549802	15249.235806
432.926920	15251.174130
433.303977	15019.225600
433.680974	15073.990175
434.057910	15135.981244
434.434786	15002.015101
434.811601	14780.058138
435.188355	15380.908224
435.565050	14960.876765
435.941683	14759.008801
436.318257	15205.642428
436.694770	14889.022679
437.071222	15105.520072
437.447614	14287.124033
437.823946	14109.365387
438.200218	14004.645498
438.576429	13683.813864
438.952580	13667.672090
439.328670	13451.436837
439.704700	13512.676773
440.080670	13049.246021
440.456580	13196.087271
440.832429	13094.644132
441.208218	12301.237093
441.583947	12345.211078
441.959616	12200.469468
442.335224	12125.232768
442.710773	11987.737817
443.086261	12056.960421
443.461689	11536.778879
443.837057	11387.414532
444.212365	11492.114256
444.587612	11283.700353
444.962800	10885.068593
445.337927	10864.863648
445.712995	10126.074990
446.088002	10696.262258
446.462949	10569.875489
446.837837	10428.957595
447.212664	10199.320435
447.587431	11035.002590
447.962139	11899.134497
448.336786	12548.125082
448.711374	11758.254412
449.085901	10244.607640
449.460369	9959.134660
449.834776	9696.241007
450.209124	10232.972657
450.583412	9901.277337
450.957640	9830.839815
451.331808	9240.009023
451.705917	8627.541598
452.079965	8428.403418
452.453954	8314.904360
452.827883	8092.914629
453.201752	7854.475614
453.575562	7705.338119
453.949311	7769.713653
454.323001	7593.565656
454.696632	7362.665686
455.070202	7497.380440
455.443713	7350.042637
455.817164	7273.482633
456.190556	7186.255548
456.563888	6921.388284
456.937160	6809.441901
457.310373	6387.630915
457.683526	6284.009998
458.056619	6119.537312
458.429653	5954.016067
458.802628	5885.799173
459.175542	5756.312095
459.548398	5777.069046
459.921194	5833.555175
460.293930	5792.298372
460.666607	5890.031222
461.039224	5940.432678
461.411782	5819.838196
461.784280	5542.466349
462.156719	5331.698228
462.529099	5132.292867
462.901419	4884.832707
463.273680	4675.705480
463.645882	4562.960075
464.018024	4450.451603
464.390106	4406.775046
464.762130	4493.240917
465.134094	4684.217469
465.505999	4931.342392
465.877845	5096.067135
466.249631	5017.261298
466.621358	4763.865179
466.993026	4514.191952
467.364634	4292.976039
467.736184	4107.816979
468.107674	3963.004794
468.479105	3859.862786
468.850477	3752.907145
469.221790	3634.228302
469.593043	3510.810773
469.964238	3426.550407
470.335373	3370.949001
470.706449	3367.407590
471.077467	3386.788306
471.448425	3457.992084
471.819324	3482.797081
472.190164	3399.194586
472.560945	3276.835700
472.931667	3173.809638
473.302330	3111.478292
473.672934	3067.093453
474.043479	3045.875236
474.413965	3003.050634
474.784393	2973.857312
475.154761	2964.132927
475.525070	2942.655091
475.895321	2919.934610
476.265513	2909.166706
476.635645	2910.462282
477.005719	2890.050650
477.375734	2882.257026
477.745691	2879.141593
478.115588	2875.935419
478.485427	2888.994528
478.855207	2915.150555
479.224928	2938.123093
479.594591	2940.467230
479.964194	2917.610638
480.333739	2909.673342
480.703226	2899.351579
481.072653	2892.745147
481.442022	2890.902605
481.811333	2883.368601
482.180584	2865.689274
482.549777	2851.364836
482.918912	2838.582990
483.287988	2830.007987
483.657005	2812.260605
484.025964	2802.531178
484.394864	2797.540436
484.763706	2788.680608
485.132489	2775.089657
485.501213	2770.431631
485.869879	2764.160436
486.238487	2756.018972
486.607036	2753.858838
486.975527	2746.975142
487.343959	2741.576067
487.712333	2739.042887
488.080648	2734.372258
488.448905	2731.471074
488.817104	2727.269272
489.185244	2731.617267
489.553326	2738.246384
489.921350	2753.616862
490.289315	2770.083792
490.657222	2775.200563
491.025070	2774.827517
491.392861	2762.300250
491.760593	2750.614855
492.128267	2738.160685
492.495883	2722.316338
492.863440	2713.438866
493.230939	2702.691126
493.598380	2690.360464
493.965763	2684.101872
494.333088	2679.015347
494.700354	2672.691220
495.067563	2673.076868
495.434713	2667.561846
495.801805	2668.948163
496.168839	2665.500014
496.535815	2662.866011
496.902733	2662.896258
497.269593	2659.165804
497.636395	2655.503406
498.003139	2661.777122
498.369825	2654.467449
498.736453	2658.228149
499.103023	2655.929383
499.469535	2656.325114
499.835989	2653.199598
500.202385	2653.232366
500.568723	2652.430822
500.935003	2656.730927
501.301226	2652.826553
501.667390	2661.678819
502.033497	2662.855929
502.399546	2659.024652
502.765537	2654.918632
503.131470	2657.706390
503.497345	2660.836947
503.863163	2656.670433
504.228923	2661.910712
504.594625	2662.588747
504.960269	2659.387615
505.325856	2664.080929
505.691385	2661.913233
506.056856	2664.930363
506.422270	2672.749193
506.787625	2666.228461
507.152924	2673.157527
507.518164	2673.195335
507.883347	2671.340191
508.248472	2673.127280
508.613540	2677.732374
508.978550	2684.522808
509.343503	2684.900894
509.708398	2686.856862
510.073236	2694.486648
510.438016	2694.781556
510.802738	2692.475228
511.167403	2698.391022
511.532010	2702.060982
511.896561	2705.010057
512.261053	2714.918445
512.625488	2710.020964
512.989866	2709.080789
513.354186	2710.071376
513.718449	2710.305789
514.082655	2722.190309
514.446803	2721.640824
514.810894	2727.032338
515.174927	2727.566700
515.538904	2725.976216
515.902822	2732.819582
516.266684	2733.757237
516.630488	2734.528533
516.994235	2736.393760
517.357925	2740.222517
517.721558	2743.128742
518.085133	2746.846593
518.448651	2748.477406
518.812112	2749.568816
519.175516	2750.143507
519.538863	2753.296749
519.902152	2753.460587
520.265385	2758.103489
520.628560	2760.994591
520.991678	2756.470156
521.354739	2759.751947
521.717743	2763.830240
522.080690	2761.884355
522.443580	2766.257556
522.806413	2769.131013
523.169189	2764.833430
523.531908	2770.895417
523.894569	2769.710746
524.257174	2769.347783
524.619722	2774.255346
524.982213	2776.622168
525.344647	2774.930861
525.707025	2776.259205
526.069345	2776.357507
526.431608	2778.620986
526.793815	2779.553599
527.155964	2779.137704
527.518057	2778.028650
527.880093	2776.002106
528.242072	2783.452932
528.603995	2780.135852
528.965860	2777.514452
529.327669	2779.112498
529.689421	2778.389092
530.051117	2776.334822
530.412755	2778.005965
530.774337	2778.515121
531.135862	2780.055194
531.497331	2778.890687
531.858743	2774.862805
532.220098	2780.864299
532.581396	2775.737446
532.942638	2773.889863
533.303824	2775.661828
533.664953	2777.466561
534.026025	2776.221396
534.387040	2777.161572
534.747999	2778.258022
535.108902	2778.474792
535.469748	2774.698968
535.830537	2775.782816
536.191270	2779.606531
536.551947	2777.751387
536.912567	2778.593259
537.273131	2778.905811
537.633638	2773.307609
537.994089	2775.760131
538.354483	2772.475819
538.714821	2774.464554
539.075103	2776.773403
539.435328	2777.542179
539.795497	2773.327774
540.155609	2776.574277
540.515665	2780.919752
540.875665	2774.172167
541.235609	2774.167126
541.595496	2775.679472
541.955328	2781.796912
542.315102	2776.044956
542.674821	2772.911879
543.034483	2770.129162
543.394090	2771.538164
543.753640	2770.976076
544.113134	2775.011519
544.472571	2771.714605
544.831953	2778.736932
545.191278	2768.006836
545.550548	2765.377874
545.909761	2768.505910
546.268918	2767.974069
546.628019	2769.647732
546.987064	2764.684716
547.346053	2756.734816
547.704986	2761.339910
548.063863	2756.444950
548.422684	2758.090887
548.781449	2754.559558
549.140158	2757.700197
549.498811	2750.440936
549.857408	2747.602766
550.215949	2746.055132
550.574434	2743.738722
550.932864	2737.873339
551.291237	2740.668659
551.649555	2740.023391
552.007817	2738.291755
552.366022	2736.121538
552.724173	2735.221692
553.082267	2735.166239
553.440305	2731.947463
553.798288	2725.381360
554.156215	2726.152656
554.514086	2724.622666
554.871902	2720.509085
555.229661	2715.243599
555.587365	2710.119267
555.945014	2708.211190
556.302606	2706.444265
556.660143	2703.399408
557.017625	2701.483770
557.375050	2696.666947
557.732421	2695.202492
558.089735	2689.717717
558.446994	2687.986081
558.804197	2689.223684
559.161345	2685.042047
559.518437	2676.540141
559.875474	2675.768844
560.232455	2671.352793
560.589381	2670.715087
560.946251	2670.944460
561.303065	2665.701660
561.659825	2660.962975
562.016528	2656.506595
562.373177	2655.135402
562.729770	2653.670946
563.086307	2646.726757
563.442789	2645.274905
563.799216	2642.998824
564.155587	2642.116622
564.511904	2638.444141
564.868164	2634.479274
565.224370	2636.460447
565.580520	2628.931484
565.936615	2631.623460
566.292654	2624.717079
566.648638	2624.439816
567.004567	2622.440998
567.360441	2620.429578
567.716260	2613.727364
568.072023	2614.803650
568.427732	2608.179574
568.783385	2608.469440
569.138982	2606.563884
569.494525	2605.185129
569.850013	2599.491145
570.205445	2602.389809
570.560823	2600.658173
570.916145	2596.431165
571.271412	2597.343614
571.626625	2592.579723
571.981782	2590.863211
572.336884	2591.445464
572.691931	2589.151739
573.046923	2584.085379
573.401860	2582.295770
573.756743	2582.832652
574.111570	2581.199319
574.466342	2581.322827
574.821059	2580.473393
575.175722	2577.700758
575.530330	2574.169430
575.884882	2577.567167
576.239380	2572.077351
576.593823	2572.203380
576.948211	2573.098184
577.302544	2568.019222
577.656823	2569.466033
578.011047	2568.719942
578.365216	2565.397822
578.719330	2564.545867
579.073389	2563.971175
579.427394	2565.969993
579.781344	2561.624518
580.135239	2560.185269
580.489080	2559.121585
580.842866	2558.861966
581.196597	2558.556976
581.550273	2557.581513
581.903895	2555.605381
582.257463	2557.760474
582.610975	2553.646892
582.964434	2555.880123
583.317837	2550.228990
583.671186	2556.084290
584.024481	2551.940462
584.377721	2552.063970
584.730906	2551.481717
585.084037	2553.742674
585.437113	2552.356357
585.790135	2548.114226
586.143103	2549.492982
586.496016	2549.573640
586.848874	2544.250182
587.201679	2546.662374
587.554428	2543.310006
587.907124	2547.053063
588.259765	2541.636343
588.612352	2547.834442
588.964884	2542.324461
589.317362	2549.182951
589.669786	2546.241437
590.022155	2543.887218
590.374470	2548.562889
590.726731	2541.374203
591.078937	2540.499563
591.431090	2540.733977
591.783188	2543.017619
592.135232	2537.908410
592.487222	2539.844213
592.839157	2538.974614
593.191038	2540.232382
593.542866	2537.419418
593.894639	2534.848430
594.246358	2535.050076
594.598022	2534.215765
594.949633	2534.861033
595.301190	2535.894469
595.652692	2533.396577
596.004141	2532.650487
596.355535	2532.078316
596.706876	2529.731658
597.058162	2528.814168
597.409395	2530.835671
597.760573	2531.712832
598.111698	2529.262831
598.462768	2532.133768
598.813785	2527.185876
599.164748	2527.211082
599.515657	2528.042872
599.866511	2526.580937
600.217312	2525.494569
600.568060	2525.870135
600.918753	2528.758716
601.269392	2527.019518
601.619978	2525.595392
601.970510	2524.272089
602.320988	2523.785618
602.671412	2529.305681
603.021783	2525.676050
603.372100	2524.682943
603.722363	2525.756709
604.072572	2526.318797
604.422728	2526.162522
604.772830	2522.855525
605.122878	2519.228414
605.472872	2522.648837
605.822813	2522.124557
606.172701	2521.189423
606.522534	2521.998528
606.872314	2521.832170
607.222041	2520.902077
607.571714	2525.154291
607.921333	2520.403003
608.270899	2524.256965
608.620411	2525.411390
608.969870	2522.323683
609.319276	2521.844773
609.668627	2524.100690
610.017926	2523.982223
610.367171	2523.495751
610.716362	2519.772859
611.065500	2523.026924
611.414585	2522.522808
611.763616	2525.434075
612.112594	2522.671523
612.461518	2523.074815
612.810389	2524.511544
613.159207	2520.939886
613.507971	2524.206554
613.856682	2521.312932
614.205340	2521.539783
614.553945	2524.090607
614.902496	2523.838550
615.250994	2521.479290
615.599439	2522.777387
615.947830	2524.118334
616.296169	2525.441637
616.644454	2524.640093
616.992686	2524.990453
617.340864	2525.512213
617.688990	2521.791841
618.037063	2526.956503
618.385082	2521.108765
618.733048	2525.338293
619.080961	2524.877027
619.428821	2527.589168
619.776628	2524.808972
620.124382	2522.792510
620.472083	2521.302849
620.819731	2524.929959
621.167326	2520.655061
621.514868	2522.732016
621.862357	2517.753877
622.209793	2521.020545
622.557176	2518.444515
622.904506	2516.211284
623.251783	2512.816067
623.599007	2515.911335
623.946179	2511.351612
624.293297	2513.955368
624.640363	2511.664163
624.987376	2513.751201
625.334336	2509.869512
625.681243	2510.313134
626.028097	2509.569564
626.374899	2509.478823
626.721647	2506.822135
627.068343	2507.588390
627.414987	2507.923627
627.761577	2506.408760
628.108115	2506.345746
628.454600	2504.576301
628.801032	2504.944305
629.147412	2506.156702
629.493739	2502.663183
629.840014	2502.617813
630.186236	2505.002278
630.532405	2503.552947
630.878521	2504.563698
631.224585	2508.198370
631.570597	2503.840292
631.916556	2504.152844
632.262462	2500.636639
632.608316	2500.790394
632.954117	2503.857936
633.299866	2503.744510
633.645562	2502.940446
633.991206	2498.050527
634.336797	2499.946001
634.682336	2500.729900
635.027823	2497.143119
635.373257	2498.395846
635.718639	2495.993736
636.063968	2493.344610
636.409245	2491.199599
636.754470	2493.347131
637.099642	2491.784373
637.444762	2489.052067
637.789829	2491.872593
638.134845	2493.720176
638.479808	2492.593478
638.824719	2490.430823
639.169577	2488.595843
639.514383	2487.055771
639.859137	2487.295225
640.203839	2488.343785
640.548489	2487.005359
640.893086	2484.671305
641.237632	2482.085193
641.582125	2484.250368
641.926566	2478.929431
642.270955	2487.857314
642.615292	2483.090903
