Dividing Wavelength (nm)	Counts (n)	Blue Motor Position (mm): 0.000000	Red Motor Position (mm): 45.800000	
326.493990	1999.082161
326.888308	1999.082161
327.282561	1999.082161
327.676750	1974.234313
328.070874	1975.222379
328.464933	1981.014665
328.858929	1989.206540
329.252859	2001.774137
329.646726	2016.002793
330.040528	2032.832686
330.434265	2051.918494
330.827938	2070.348953
331.221547	2091.514237
331.615091	2115.270674
332.008571	2133.416308
332.401986	2154.659730
332.795338	2173.677483
333.188625	2194.731862
333.581847	2212.948071
333.975006	2229.919116
334.368100	2246.638103
334.761129	2265.897831
335.154095	2279.105654
335.546996	2322.608291
335.939833	2401.701474
336.332606	2417.530697
336.725315	2428.412028
337.117960	2438.474171
337.510540	2442.691096
337.903056	2456.776080
338.295508	2462.344034
338.687896	2466.036680
339.080220	2477.056642
339.472480	2480.023361
339.864676	2487.030565
340.256807	2486.912098
340.648875	2489.243631
341.040879	2489.493168
341.432818	2492.981647
341.824694	2491.620535
342.216506	2494.788901
342.608253	2492.086842
342.999937	2490.846718
343.391557	2489.152891
343.783113	2488.822695
344.174605	2488.626090
344.566033	2486.765904
344.957397	2483.675677
345.348697	2482.682570
345.739934	2481.238279
346.131106	2480.071252
346.522215	2480.194760
346.913260	2476.416415
347.304241	2475.408185
347.695159	2472.474233
348.086012	2474.384830
348.476802	2469.628502
348.867528	2468.552215
349.258191	2470.145220
349.648789	2470.324181
350.039324	2466.676906
350.429796	2468.237143
350.820203	2465.988789
351.210548	2465.711525
351.600828	2464.456278
351.991045	2465.658593
352.381198	2465.434262
352.771288	2464.027780
353.161314	2464.572224
353.551276	2462.840588
353.941175	2464.045424
354.331010	2462.525516
354.720782	2468.229582
355.110490	2466.815538
355.500135	2465.625826
355.889717	2466.485342
356.279235	2464.073150
356.668689	2466.016515
357.058080	2469.421814
357.447408	2463.722790
357.836672	2465.855198
358.225873	2466.802935
358.615010	2466.918882
359.004084	2472.012968
359.393095	2471.899542
359.782043	2468.605147
360.170927	2474.949440
360.559748	2474.634367
360.948505	2477.999338
361.337199	2478.437918
361.725830	2477.790130
362.114398	2478.148052
362.502903	2482.407827
362.891344	2481.951602
363.279722	2479.310038
363.668037	2483.305152
364.056289	2482.485965
364.444478	2483.801706
364.832603	2484.401603
365.220665	2484.726758
365.608665	2484.913280
365.996601	2487.816985
366.384474	2487.305308
366.772284	2487.040647
367.160031	2490.264465
367.547715	2493.755464
367.935336	2492.240597
368.322893	2491.764208
368.710388	2494.536843
369.097820	2498.993223
369.485189	2495.787049
369.872495	2498.874756
370.259738	2500.104797
370.646918	2501.120590
371.034035	2505.471106
371.421090	2508.848679
371.808081	2512.130470
372.195010	2513.625172
372.581875	2521.454084
372.968678	2529.983716
373.355418	2536.862371
373.742096	2551.879968
374.128710	2559.335834
374.515262	2572.977197
374.901751	2585.171748
375.288177	2605.817793
375.674540	2626.030300
376.060841	2646.512508
376.447079	2671.960252
376.833254	2696.520754
377.219367	2721.698797
377.605417	2754.771287
377.991404	2784.234310
378.377329	2825.962461
378.763191	2862.677185
379.148991	2910.399268
379.534727	2962.718883
379.920402	3010.584639
380.306013	3058.215981
380.691563	3124.015641
381.077049	3181.938499
381.462474	3243.097777
381.847835	3317.928665
382.233134	3388.187226
382.618371	3454.927062
383.003545	3543.008623
383.388657	3626.197743
383.773706	3719.990931
384.158693	3795.978764
384.543618	3892.743712
384.928480	3975.083398
385.313280	4078.933688
385.698017	4190.507026
386.082692	4313.785922
386.467305	4376.076940
386.851856	4511.018546
387.236344	4670.220705
387.620770	4732.771342
388.005133	4864.310169
388.389435	5014.344990
388.773674	5093.607052
389.157851	5234.098968
389.541965	5368.581830
389.926018	5394.833638
390.310008	5579.453295
390.693936	5708.128747
391.077802	5828.950081
391.461606	5959.740297
391.845348	6079.240849
392.229027	6202.968408
392.612645	6433.888543
392.996200	6555.395474
393.379694	6735.460448
393.763125	6964.545602
394.146494	7068.340439
394.529801	7203.710544
394.913047	7453.761857
395.296230	7453.275385
395.679351	7516.294850
396.062410	7783.579347
396.445408	7675.829725
396.828343	7843.344747
397.211217	7986.649627
397.594028	7860.272941
397.976778	8067.232471
398.359466	8247.274760
398.742092	8212.528607
399.124656	8366.389664
399.507158	8555.344713
399.889598	8579.290194
400.271977	8791.668964
400.654294	8828.098862
401.036549	9027.907516
401.418742	9064.017301
401.800874	9375.295948
402.182944	9454.220252
402.564952	9832.238735
402.946898	9644.929623
403.328783	9710.409170
403.710606	9908.778574
404.092367	10174.941415
404.474067	10550.257839
404.855705	10328.137039
405.237282	10283.968970
405.618797	10727.396424
406.000250	10972.638476
406.381642	11347.365085
406.762972	11302.702983
407.144240	11100.323341
407.525447	11359.620130
407.906593	11290.006837
408.287677	11556.651108
408.668700	11722.268135
409.049661	11695.918024
409.430560	11854.006088
409.811399	11826.819145
410.192176	11990.424752
410.572891	12066.190774
410.953545	12583.904671
411.334138	12035.938810
411.714669	12666.894666
412.095139	11943.264758
412.475547	12465.336733
412.855894	12300.922021
413.236180	12651.173828
413.616405	12311.488279
413.996568	12608.744957
414.376670	12581.026172
414.756711	12436.647526
415.136691	12738.678177
415.516609	12934.887446
415.896466	12997.249040
416.276262	13296.827169
416.655997	13740.161361
417.035670	13771.250157
417.415283	14440.846458
417.794834	14534.042269
418.174324	14276.968629
418.553753	14171.356456
418.933121	14676.908569
419.312428	14486.970495
419.691674	14389.971133
420.070859	14865.646848
420.449983	14515.634496
420.829045	15075.991513
421.208047	14809.175843
421.586988	15280.760662
421.965867	15545.433842
422.344686	15549.968360
422.723444	16120.894156
423.102141	14771.016829
423.480777	15995.261041
423.859352	15490.923845
424.237866	16638.494627
424.616319	16328.022565
424.994712	16999.789082
425.373044	16792.791744
425.751314	17478.018142
426.129524	16585.839775
426.507673	17715.506900
426.885762	17384.802166
427.263789	17614.391436
427.641756	17774.465714
428.019662	17842.947269
428.397508	17885.013177
428.775292	18202.568061
429.153016	18165.848296
429.530679	18244.747395
429.908282	18268.652547
430.285824	17978.957600
430.663305	18694.776240
431.040726	18296.530127
431.418086	18118.027911
431.795385	18777.650289
432.172624	19188.463998
432.549802	18745.739785
432.926920	18930.677034
433.303977	18825.667279
433.680974	19076.515094
434.057910	19382.442557
434.434786	19396.837572
434.811601	19305.580084
435.188355	20374.282014
435.565050	20019.253713
435.941683	19963.869077
436.318257	20869.640915
436.694770	20673.577839
437.071222	21277.835744
437.447614	20330.731486
437.823946	20361.878255
438.200218	20506.042652
438.576429	20288.663057
438.952580	20568.714277
439.328670	20533.083402
439.704700	20957.664502
440.080670	20505.853609
440.456580	21110.519848
440.832429	21296.830812
441.208218	20260.304046
441.583947	20730.081612
441.959616	20827.264975
442.335224	21069.595761
442.710773	21213.314016
443.086261	21757.115885
443.461689	21096.742375
443.837057	21230.194320
444.212365	21895.404817
444.587612	21889.698231
444.962800	21453.570367
445.337927	21890.595556
445.712995	20591.717062
446.088002	22496.143997
446.462949	22693.558103
446.837837	22879.528788
447.212664	22828.509791
447.587431	25753.218374
447.962139	28740.676719
448.336786	31142.698307
448.711374	29535.039057
449.085901	25796.226978
449.460369	25735.861681
449.834776	25667.052452
450.209124	28210.869094
450.583412	27716.641933
450.957640	28240.521161
451.331808	26880.662349
451.705917	25474.941640
452.079965	25521.317735
452.453954	25890.655351
452.827883	25774.212259
453.201752	25578.171868
453.575562	25744.164462
453.949311	26898.916367
454.323001	26952.259337
454.696632	26705.459568
455.070202	28308.957345
455.443713	28421.932123
455.817164	29046.042093
456.190556	29595.011144
456.563888	29011.820220
456.937160	29451.663414
457.310373	27741.184790
457.683526	28227.162103
458.056619	28214.682727
458.429653	28149.798036
458.802628	28726.959740
459.175542	28855.927578
459.548398	30166.957774
459.921194	31780.134567
460.293930	32445.082923
460.666607	34504.999208
461.039224	36288.198996
461.411782	36691.473660
461.784280	35471.630376
462.156719	35000.416082
462.529099	34435.839618
462.901419	33138.007164
463.273680	32072.697930
463.645882	32159.284788
464.018024	32132.642290
464.390106	32996.287726
464.762130	35722.142954
465.134094	39840.435451
465.505999	45183.118353
465.877845	49786.180806
466.249631	50962.927266
466.621358	49277.422519
466.993026	47185.232767
467.364634	45117.747190
467.736184	43115.060605
468.107674	41848.609333
468.479105	41047.539740
468.850477	40355.941323
469.221790	38873.519458
469.593043	37118.338403
469.964238	36223.084933
470.335373	36126.854347
470.706449	37911.730319
471.077467	40548.679758
471.448425	45137.405170
471.819324	47951.551167
472.190164	46070.996615
472.560945	42478.753563
472.931667	39340.617650
473.302330	38226.172290
473.672934	37378.061170
474.043479	37913.277953
474.413965	37084.978568
474.784393	36702.226441
475.154761	37632.006774
475.525070	37645.539752
475.895321	37190.628549
476.265513	37780.839280
476.635645	38769.633880
477.005719	38591.282898
477.375734	39076.496477
477.745691	39778.656111
478.115588	41138.973668
478.485427	43130.466371
478.855207	46532.703293
479.224928	49136.804574
479.594591	50786.496964
479.964194	49790.049892
480.333739	49957.234718
480.703226	50010.910404
481.072653	50637.964407
481.442022	51114.948302
481.811333	51373.861963
482.180584	50093.040882
482.549777	49570.590821
482.918912	49025.137975
483.287988	48739.564171
483.657005	47914.060105
484.025964	47250.588807
484.394864	47284.669527
484.763706	46856.231944
485.132489	46001.829464
485.501213	45801.378063
485.869879	45960.260109
486.238487	45540.279062
486.607036	45753.713954
486.975527	45202.720880
487.343959	45411.243167
487.712333	45490.656464
488.080648	45407.633701
488.448905	45855.472165
488.817104	45680.264342
489.185244	46650.184863
489.553326	48354.220892
489.921350	51056.599467
490.289315	53889.526282
490.657222	54447.410613
491.025070	54744.516057
491.392861	53852.244429
491.760593	52648.250532
492.128267	51001.648369
492.495883	49489.352627
492.863440	48105.263509
493.230939	46740.454284
493.598380	45624.728471
493.965763	45304.312733
494.333088	44473.132327
494.700354	43984.994880
495.067563	43690.157956
495.434713	43562.185745
495.801805	43624.648162
496.168839	43234.977052
496.535815	42893.007860
496.902733	42950.731592
497.269593	42509.234900
497.636395	42446.323821
498.003139	42862.375289
498.369825	42298.802015
498.736453	42618.542239
499.103023	42149.747699
499.469535	42017.283820
499.835989	42107.722120
500.202385	41772.687035
500.568723	41796.014975
500.935003	41977.365443
501.301226	41776.719958
501.667390	42396.023188
502.033497	42685.360213
502.399546	42087.436517
502.765537	41405.091138
503.131470	41796.415746
503.497345	42148.845332
503.863163	40794.327623
504.228923	41418.936667
504.594625	41863.289173
504.960269	41130.123922
505.325856	41838.842097
505.691385	41190.887470
506.056856	41333.826867
506.422270	41769.039760
506.787625	41339.122599
507.152924	41538.255737
507.518164	41642.965544
507.883347	40833.653664
508.248472	41110.385284
508.613540	41598.802516
508.978550	41902.148907
509.343503	41633.891467
509.708398	41845.438447
510.073236	42376.397976
510.438016	42395.302303
510.802738	41842.668333
511.167403	42472.202584
511.532010	42698.943602
511.896561	43008.651929
512.261053	43891.393256
512.625488	43405.594904
512.989866	43279.823157
513.354186	43120.157211
513.718449	43110.195891
514.082655	43817.341227
514.446803	43473.562261
514.810894	43993.015356
515.174927	43913.425619
515.538904	43820.970857
515.902822	44519.163103
516.266684	43936.138537
516.630488	44385.733843
516.994235	44239.641205
517.357925	44814.826776
517.721558	44977.177136
518.085133	45292.128264
518.448651	45433.081446
518.812112	45216.314351
519.175516	45301.484645
519.538863	45648.603376
519.902152	45611.240864
520.265385	46071.931749
520.628560	46126.701365
520.991678	45901.034113
521.354739	46147.604510
521.717743	46480.267731
522.080690	46362.634927
522.443580	46920.105884
522.806413	46964.813357
523.169189	46900.813388
523.531908	47082.191583
523.894569	46950.809031
524.257174	47108.410624
524.619722	47427.545909
524.982213	47412.722397
525.344647	47332.915890
525.707025	47354.734004
526.069345	47753.847195
526.431608	47673.034978
526.793815	47999.190070
527.155964	47538.615132
527.518057	47694.711940
527.880093	47466.942527
528.242072	48017.139099
528.603995	47709.500165
528.965860	47713.207933
529.327669	47804.757808
529.689421	47700.582363
530.051117	47650.601844
530.412755	47799.555337
530.774337	47864.878608
531.135862	47644.998601
531.497331	47852.857977
531.858743	47748.629601
532.220098	48116.374212
532.581396	47800.205646
532.942638	47468.041498
533.303824	47767.037374
533.664953	47716.222543
534.026025	47446.069629
534.387040	47926.605017
534.747999	47873.171307
535.108902	48014.162297
535.469748	47538.932724
535.830537	47667.721602
536.191270	47830.364349
536.551947	47479.515164
536.912567	47800.815625
537.273131	47942.933314
537.633638	47399.978360
537.994089	47746.653468
538.354483	47335.209615
538.714821	47898.578722
539.075103	48259.537940
539.435328	48023.843833
539.795497	47904.426460
540.155609	47880.226401
540.515665	48344.204119
540.875665	47794.027712
541.235609	48128.677148
541.595496	48091.511241
541.955328	48776.261251
542.315102	48143.699787
542.674821	47918.216537
543.034483	47981.551073
543.394090	47946.799879
543.753640	47898.188033
544.113134	48912.800903
544.472571	47907.529291
544.831953	49165.176188
545.191278	48379.308194
545.550548	48066.401254
545.909761	48551.781190
546.268918	48757.603940
546.628019	49063.816228
546.987064	48623.937746
547.346053	47897.492353
547.704986	48774.433832
548.063863	48333.721040
548.422684	48532.463489
548.781449	48372.111947
549.140158	48780.112692
549.498811	48611.140777
549.857408	48053.901713
550.215949	48893.178211
550.574434	48822.980144
550.932864	48589.945246
551.291237	49314.792593
551.649555	48901.869160
552.007817	49140.731632
552.366022	48787.813055
552.724173	48969.032453
553.082267	49377.101254
553.440305	49672.601090
553.798288	48977.781376
554.156215	49292.742586
554.514086	49509.497078
554.871902	49262.742679
555.229661	49273.997055
555.587365	49091.577862
555.945014	49176.841417
556.302606	49093.001988
556.660143	49346.536738
557.017625	49430.436662
557.375050	49218.282223
557.732421	49564.672506
558.089735	49565.917671
558.446994	49456.592688
558.804197	49938.837027
559.161345	49887.069418
559.518437	49130.878697
559.875474	49435.082085
560.232455	49585.895764
560.589381	49774.760072
560.946251	49463.932608
561.303065	50160.741058
561.659825	49958.648762
562.016528	49634.832765
562.373177	49365.052896
562.729770	49836.509166
563.086307	49353.271720
563.442789	49813.574436
563.799216	49861.483042
564.155587	49637.784361
564.511904	49663.131282
564.868164	49762.152147
565.224370	49993.856180
565.580520	49728.477239
565.936615	49954.275561
566.292654	49673.175781
566.648638	49928.137178
567.004567	49868.328929
567.360441	49914.929355
567.716260	49776.108581
568.072023	50053.959337
568.427732	50040.106246
568.783385	49586.180589
569.138982	49992.958855
569.494525	49939.310896
569.850013	49718.596577
570.205445	49681.415547
570.560823	49635.425101
570.916145	49533.785357
571.271412	49549.536442
571.626625	49311.679680
571.981782	49362.318070
572.336884	49064.824458
572.691931	49406.428167
573.046923	48981.801696
573.401860	48817.533177
573.756743	48824.205144
574.111570	48937.971384
574.466342	48768.208007
574.821059	48900.029139
575.175722	48417.978885
575.530330	48444.770097
575.884882	48146.064088
576.239380	48129.261922
576.593823	48097.036346
576.948211	48009.446298
577.302544	47521.659211
577.656823	47551.444868
578.011047	47769.137015
578.365216	47502.243207
578.719330	47294.464489
579.073389	47146.869587
579.427394	47216.316522
579.781344	47195.869602
580.135239	46844.826333
580.489080	46953.629557
580.842866	46412.844819
581.196597	46854.437293
581.550273	46799.481155
581.903895	46665.121802
582.257463	47095.616176
582.610975	46464.264588
582.964434	46747.474091
583.317837	46375.305867
583.671186	46231.131388
584.024481	46462.404403
584.377721	45994.786972
584.730906	46281.580735
585.084037	46317.927454
585.437113	46019.884356
585.790135	46055.903401
586.143103	45657.717782
586.496016	45790.814326
586.848874	45817.164437
587.201679	45837.964237
587.554428	45317.447459
587.907124	45488.087996
588.259765	45241.318474
588.612352	45497.232649
588.964884	44887.374021
589.317362	45195.320466
589.669786	45123.809178
590.022155	44897.292492
590.374470	45337.465881
590.726731	44848.458834
591.078937	44356.991705
591.431090	44448.317248
591.783188	44120.180982
592.135232	43784.082214
592.487222	44038.494125
592.839157	44119.213081
593.191038	43785.438284
593.542866	43531.361610
593.894639	42933.470682
594.246358	43220.902150
594.598022	43211.581057
594.949633	42804.946464
595.301190	42744.974377
595.652692	42567.976945
596.004141	42907.554110
596.355535	41908.505802
596.706876	41865.260264
597.058162	41702.292363
597.409395	42176.536390
597.760573	42259.420521
598.111698	41812.000473
598.462768	41832.868330
598.813785	41879.854404
599.164748	41315.991264
599.515657	41724.251629
599.866511	41175.269975
600.217312	41801.285501
600.568060	40733.632131
600.918753	41493.465085
601.269392	41464.632206
601.619978	41110.067691
601.970510	41319.578045
602.320988	41503.653257
602.671412	41817.656648
603.021783	41563.302710
603.372100	41202.056146
603.722363	41327.071720
604.072572	41397.274829
604.422728	41414.606316
604.772830	41220.438714
605.122878	41320.374548
605.472872	41251.325863
605.822813	41546.187993
606.172701	41355.924764
606.522534	41624.885446
606.872314	41876.829712
607.222041	41622.150620
607.571714	42005.900894
607.921333	41425.568305
608.270899	41721.010167
608.620411	42076.789600
608.969870	41884.497307
609.319276	41869.492312
609.668627	41916.470825
610.017926	42422.446396
610.367171	42595.806635
610.716362	42660.955987
611.065500	42610.388173
611.414585	42798.201400
611.763616	43084.077673
612.112594	43018.489741
612.461518	43238.281528
612.810389	43521.851473
613.159207	43378.526428
613.507971	43455.658603
613.856682	43958.927073
614.205340	43830.377650
614.553945	44534.089960
614.902496	43976.442563
615.250994	44439.424652
615.599439	44500.893962
615.947830	44724.121295
616.296169	44752.717240
616.644454	44885.090379
616.992686	45061.866000
617.340864	45573.800214
617.688990	45292.985260
618.037063	45887.017185
618.385082	45846.972779
618.733048	46146.150137
619.080961	46153.237999
619.428821	46172.283478
619.776628	46284.678524
620.124382	46122.174409
620.472083	46245.307112
620.819731	46395.173054
621.167326	46068.591985
621.514868	46042.559466
621.862357	45607.991840
622.209793	45624.451207
622.557176	45301.635880
622.904506	45056.557665
623.251783	44726.140277
623.599007	44490.017672
623.946179	44252.135705
624.293297	44209.628695
624.640363	43594.066002
624.987376	43578.244341
625.334336	43320.439733
625.681243	42963.485712
626.028097	42916.484514
626.374899	42742.108482
626.721647	42714.798031
627.068343	42593.591048
627.414987	42340.260464
627.761577	42110.900567
628.108115	42451.206178
628.454600	41874.730071
628.801032	42064.920203
629.147412	42010.306863
629.493739	42017.614015
629.840014	41637.858855
630.186236	41973.206491
630.532405	41576.692015
630.878521	41768.195367
631.224585	41657.708398
631.570597	41358.427697
631.916556	41532.700386
632.262462	41465.075827
632.608316	41471.843577
632.954117	41365.530683
633.299866	41344.249452
633.645562	41261.186360
633.991206	40769.716710
634.336797	40338.463643
634.682336	40332.283188
635.027823	40091.184964
