Dividing Wavelength (nm)	Counts (n)	Blue Motor Position (mm): 0.000000	Red Motor Position (mm): 4.200000	
326.493990	1976.785137
326.888308	1976.785137
327.282561	1976.785137
327.676750	1950.223297
328.070874	1951.322269
328.464933	1958.931891
328.858929	1966.380196
329.252859	1982.098513
329.646726	1993.393218
330.040528	2008.874602
330.434265	2028.671213
330.827938	2045.112936
331.221547	2067.959446
331.615091	2088.270254
332.008571	2108.437390
332.401986	2128.153343
332.795338	2150.059677
333.188625	2169.599189
333.581847	2190.688857
333.975006	2206.250898
334.368100	2226.254197
334.761129	2242.206928
335.154095	2255.830647
335.546996	2270.654159
335.939833	2284.628238
336.332606	2298.030145
336.725315	2308.656898
337.117960	2315.333906
337.510540	2322.353713
337.903056	2330.641370
338.295508	2337.779643
338.687896	2347.062928
339.080220	2351.715913
339.472480	2357.387211
339.864676	2362.382995
340.256807	2364.666638
340.648875	2363.915506
341.040879	2366.612523
341.432818	2368.797863
341.824694	2370.095960
342.216506	2369.024715
342.608253	2368.941536
342.999937	2368.427338
343.391557	2367.242667
343.783113	2364.780063
344.174605	2363.537419
344.566033	2361.281503
344.957397	2360.369054
345.348697	2357.382170
345.739934	2358.907119
346.131106	2354.657427
346.522215	2355.519464
346.913260	2354.407889
347.304241	2352.310769
347.695159	2348.998731
348.086012	2349.185254
348.476802	2345.674090
348.867528	2345.059070
349.258191	2342.064624
349.648789	2342.457834
350.039324	2340.746363
350.429796	2343.939933
350.820203	2339.622185
351.210548	2338.916424
351.600828	2339.796105
351.991045	2338.417349
352.381198	2338.981959
352.771288	2338.167812
353.161314	2339.516321
353.551276	2335.359890
353.941175	2335.596824
354.331010	2341.802484
354.720782	2340.269973
355.110490	2341.053873
355.500135	2339.511280
355.889717	2340.706033
356.279235	2340.343070
356.668689	2339.342401
357.058080	2338.684531
357.447408	2337.746876
357.836672	2336.602534
358.225873	2341.348780
358.615010	2338.442555
359.004084	2342.256188
359.393095	2341.981445
359.782043	2344.615448
360.170927	2346.420181
360.559748	2345.477485
360.948505	2344.081086
361.337199	2345.366580
361.725830	2343.773575
362.114398	2346.019409
362.502903	2343.859275
362.891344	2347.773731
363.279722	2346.722650
363.668037	2346.765500
364.056289	2348.575274
364.444478	2349.291118
364.832603	2346.546210
365.220665	2351.524349
365.608665	2350.175841
365.996601	2350.342199
366.384474	2350.682477
366.772284	2352.850173
367.160031	2351.294977
367.547715	2352.341016
367.935336	2351.912518
368.322893	2350.707683
368.710388	2353.644155
369.097820	2355.491738
369.485189	2355.640452
369.872495	2354.239011
370.259738	2356.512571
370.646918	2358.949969
371.034035	2357.803107
371.421090	2360.598426
371.808081	2361.485669
372.195010	2369.410363
372.581875	2371.666280
372.968678	2378.005531
373.355418	2384.790924
373.742096	2390.454660
374.128710	2400.398336
374.515262	2407.972670
374.901751	2423.761563
375.288177	2433.790939
375.674540	2453.111161
376.060841	2463.102728
376.447079	2484.633496
376.833254	2503.535303
377.219367	2519.435102
377.605417	2544.275387
377.991404	2560.071843
378.377329	2588.667788
378.763191	2611.340378
379.148991	2637.261991
379.534727	2662.117400
379.920402	2687.134126
380.306013	2710.658670
380.691563	2736.900396
381.077049	2762.459046
381.462474	2781.597787
381.847835	2812.958805
382.233134	2838.104080
382.618371	2855.732995
383.003545	2885.619476
383.388657	2912.440935
383.773706	2940.373968
384.158693	2955.452060
384.543618	2980.753611
384.928480	2994.851198
385.313280	3020.092255
385.698017	3038.356355
386.082692	3065.954152
386.467305	3067.285017
386.851856	3092.256372
387.236344	3126.470683
387.620770	3120.645630
388.005133	3132.734317
388.389435	3151.658808
388.773674	3153.017399
389.157851	3165.453926
389.541965	3172.720749
389.926018	3147.888025
390.310008	3166.996519
390.693936	3166.462157
391.077802	3162.184738
391.461606	3161.486538
391.845348	3157.788852
392.229027	3149.788540
392.612645	3161.415962
392.996200	3146.219403
393.379694	3145.203611
393.763125	3148.308962
394.146494	3128.230046
394.529801	3111.775720
394.913047	3111.417798
395.296230	3073.767940
395.679351	3040.559339
396.062410	3033.927702
396.445408	2983.412819
396.828343	2960.858697
397.211217	2933.923812
397.594028	2889.561658
397.976778	2866.516023
398.359466	2851.319465
398.742092	2812.777323
399.124656	2790.820578
399.507158	2774.393978
399.889598	2745.049422
400.271977	2724.544528
400.654294	2699.346321
401.036549	2677.770182
401.418742	2651.772952
401.800874	2637.065386
402.182944	2617.825822
402.564952	2603.647577
402.946898	2574.093812
403.328783	2555.365926
403.710606	2541.444779
404.092367	2528.602440
404.474067	2520.937366
404.855705	2497.279231
405.237282	2485.656850
405.618797	2478.374904
406.000250	2468.370734
406.381642	2460.695577
406.762972	2447.752415
407.144240	2438.892587
407.525447	2435.197421
407.906593	2430.216761
408.287677	2430.244487
408.668700	2422.435740
409.049661	2417.117323
409.430560	2412.872671
409.811399	2409.910993
410.192176	2408.035684
410.572891	2404.156516
410.953545	2402.732390
411.334138	2400.514282
411.714669	2400.723490
412.095139	2399.528737
412.475547	2395.324415
412.855894	2396.425907
413.236180	2396.478839
413.616405	2392.975237
413.996568	2392.476163
414.376670	2395.417676
414.756711	2393.174363
415.136691	2390.517674
415.516609	2392.488766
415.896466	2390.686553
416.276262	2391.399876
416.655997	2385.395862
417.035670	2384.533825
417.415283	2386.968702
417.794834	2383.588608
418.174324	2390.305946
418.553753	2388.486089
418.933121	2386.714124
419.312428	2384.223794
419.691674	2388.423075
420.070859	2387.848383
420.449983	2388.052550
420.829045	2387.679505
421.208047	2386.661192
421.586988	2390.283261
421.965867	2390.555483
422.344686	2388.702859
422.723444	2389.680843
423.102141	2385.587426
423.480777	2390.063971
423.859352	2385.993239
424.237866	2388.521378
424.616319	2389.310318
424.994712	2389.451470
425.373044	2390.305946
425.751314	2390.283261
426.129524	2387.714793
426.507673	2389.980792
426.885762	2392.622356
427.263789	2392.506410
427.641756	2391.445247
428.019662	2392.458519
428.397508	2390.021121
428.775292	2391.576317
429.153016	2390.295864
429.530679	2391.415000
429.908282	2389.393497
430.285824	2392.408107
430.663305	2389.779145
431.040726	2391.702346
431.418086	2391.858621
431.795385	2393.812068
432.172624	2392.589589
432.549802	2391.881307
432.926920	2390.759650
433.303977	2392.566903
433.680974	2388.448281
434.057910	2390.757129
434.434786	2393.239898
434.811601	2393.779301
435.188355	2391.483055
435.565050	2393.280227
435.941683	2395.473129
436.318257	2389.524567
436.694770	2388.201264
437.071222	2390.913405
437.447614	2387.566079
437.823946	2389.564896
438.200218	2394.432130
438.576429	2392.476163
438.952580	2392.065309
439.328670	2393.776780
439.704700	2395.021945
440.080670	2395.435320
440.456580	2391.936759
440.832429	2392.982799
441.208218	2393.073539
441.583947	2394.681667
441.959616	2392.834085
442.335224	2393.053375
442.710773	2393.875083
443.086261	2394.858108
443.461689	2391.029352
443.837057	2392.143447
444.212365	2396.438510
444.587612	2393.451626
444.962800	2394.767367
445.337927	2398.028994
445.712995	2393.038251
446.088002	2397.550084
446.462949	2396.529250
446.837837	2396.463715
447.212664	2395.652090
447.587431	2396.297357
447.962139	2398.878428
448.336786	2402.440003
448.711374	2398.333983
449.085901	2397.076216
449.460369	2399.611916
449.834776	2400.700805
450.209124	2399.813562
450.583412	2400.118552
450.957640	2399.115362
451.331808	2398.265928
451.705917	2398.139899
452.079965	2399.606875
452.453954	2396.360372
452.827883	2401.729201
453.201752	2398.765002
453.575562	2398.336504
453.949311	2397.658469
454.323001	2400.889848
454.696632	2399.984961
455.070202	2402.399674
455.443713	2398.916237
455.817164	2399.473284
456.190556	2399.407749
456.563888	2401.073851
456.937160	2395.984806
457.310373	2398.558315
457.683526	2403.037380
458.056619	2401.487225
458.429653	2400.940260
458.802628	2401.109139
459.175542	2404.053173
459.548398	2401.419170
459.921194	2402.324057
460.293930	2405.207597
460.666607	2405.411763
461.039224	2405.936043
461.411782	2404.574932
461.784280	2405.820097
462.156719	2403.856568
462.529099	2406.286404
462.901419	2404.706002
463.273680	2404.370765
463.645882	2401.920764
464.018024	2403.433111
464.390106	2404.839593
464.762130	2404.897566
465.134094	2409.001065
465.505999	2409.991652
465.877845	2415.068094
466.249631	2413.328896
466.621358	2412.986097
466.993026	2413.238155
467.364634	2414.697569
467.736184	2408.481826
468.107674	2405.709192
468.479105	2410.926786
468.850477	2405.341187
469.221790	2409.674059
469.593043	2405.752041
469.964238	2406.223389
470.335373	2408.131466
470.706449	2407.269429
471.077467	2409.142217
471.448425	2409.031312
471.819324	2410.281518
472.190164	2412.839904
472.560945	2407.176167
472.931667	2408.176836
473.302330	2406.120046
473.672934	2407.045097
474.043479	2406.735066
474.413965	2403.302041
474.784393	2401.283058
475.154761	2403.037380
475.525070	2402.621485
475.895321	2405.076527
476.265513	2401.154509
476.635645	2408.396127
477.005719	2404.569891
477.375734	2405.293296
477.745691	2407.990314
478.115588	2408.179357
478.485427	2407.125756
478.855207	2411.567012
479.224928	2410.992321
479.594591	2411.660274
479.964194	2413.449883
480.333739	2414.286715
480.703226	2411.395613
481.072653	2412.688669
481.442022	2412.696231
481.811333	2409.011147
482.180584	2412.701272
482.549777	2414.077507
482.918912	2413.512898
483.287988	2412.008113
483.657005	2409.237999
484.025964	2411.372928
484.394864	2411.241858
484.763706	2409.986611
485.132489	2410.127763
485.501213	2411.778741
485.869879	2406.195663
486.238487	2412.741601
486.607036	2408.766651
486.975527	2408.509552
487.343959	2407.750859
487.712333	2409.487536
488.080648	2409.805129
488.448905	2413.056673
488.817104	2411.448545
489.185244	2410.473082
489.553326	2409.311096
489.921350	2413.649009
490.289315	2412.330747
490.657222	2414.642116
491.025070	2414.011972
491.392861	2413.646488
491.760593	2413.094482
492.128267	2413.959040
492.495883	2413.865778
492.863440	2410.919224
493.230939	2412.146745
493.598380	2410.258833
493.965763	2402.931516
494.333088	2406.503173
494.700354	2405.101732
495.067563	2408.018040
495.434713	2404.771537
495.801805	2410.342012
496.168839	2406.556105
496.535815	2409.553071
496.902733	2410.825963
497.269593	2411.377969
497.636395	2410.155489
498.003139	2411.609862
498.369825	2411.665315
498.736453	2416.303176
499.103023	2412.187074
499.469535	2414.939544
499.835989	2413.195305
500.202385	2413.560789
500.568723	2414.140521
500.935003	2415.103382
501.301226	2414.291756
501.667390	2415.698238
502.033497	2415.380645
502.399546	2417.185378
502.765537	2416.865265
503.131470	2420.983888
503.497345	2419.403486
503.863163	2419.952972
504.228923	2416.557755
504.594625	2420.159659
504.960269	2421.160328
505.325856	2423.259969
505.691385	2420.719227
506.056856	2422.922211
506.422270	2424.739547
506.787625	2427.106369
507.152924	2426.088056
507.518164	2425.956986
507.883347	2426.657706
508.248472	2424.419434
508.613540	2429.556370
508.978550	2429.526123
509.343503	2432.195414
509.708398	2429.155598
510.073236	2431.081319
510.438016	2430.189035
510.802738	2428.800197
511.167403	2432.364293
511.532010	2430.219282
511.896561	2433.105342
512.261053	2435.174736
512.625488	2428.570824
512.989866	2426.718200
513.354186	2429.909251
513.718449	2426.307346
514.082655	2432.470157
514.446803	2426.587130
514.810894	2428.288520
515.174927	2428.706935
515.538904	2428.840526
515.902822	2428.374219
516.266684	2428.565783
516.630488	2424.386667
516.994235	2422.723086
517.357925	2424.333734
517.721558	2422.760894
518.085133	2421.551018
518.448651	2421.724937
518.812112	2419.620256
519.175516	2418.874165
519.538863	2417.172775
519.902152	2417.560944
520.265385	2419.509350
520.628560	2418.221335
520.991678	2416.991294
521.354739	2413.621282
521.717743	2413.860737
522.080690	2414.702610
522.443580	2415.105902
522.806413	2413.996848
523.169189	2412.315624
523.531908	2410.664646
523.894569	2411.340160
524.257174	2409.041394
524.619722	2411.176323
524.982213	2410.634399
525.344647	2410.309244
525.707025	2410.112639
526.069345	2408.454100
526.431608	2410.178174
526.793815	2408.890160
527.155964	2411.446025
527.518057	2410.422670
527.880093	2409.961405
528.242072	2409.117012
528.603995	2406.490570
528.965860	2407.594583
529.327669	2408.229768
529.689421	2408.446538
530.051117	2408.940571
530.412755	2407.536610
530.774337	2403.823800
531.135862	2406.120046
531.497331	2404.383368
531.858743	2403.450755
532.220098	2405.580642
532.581396	2403.397823
532.942638	2402.881104
533.303824	2407.748338
533.664953	2406.324212
534.026025	2406.921589
534.387040	2406.147772
534.747999	2404.879922
535.108902	2407.652556
535.469748	2405.797412
535.830537	2404.516959
536.191270	2409.550551
536.551947	2403.969993
536.912567	2405.162226
537.273131	2405.956208
537.633638	2403.516290
537.994089	2407.009809
538.354483	2403.765827
538.714821	2406.949315
539.075103	2405.066444
539.435328	2407.219017
539.795497	2406.309089
540.155609	2403.793553
540.515665	2405.389078
540.875665	2403.022257
541.235609	2402.966804
541.595496	2403.559139
541.955328	2405.288255
542.315102	2405.061403
542.674821	2406.165416
543.034483	2405.346228
543.394090	2405.343708
543.753640	2404.852195
544.113134	2403.856568
544.472571	2404.990827
544.831953	2406.636764
545.191278	2405.890673
545.550548	2403.546537
545.909761	2405.550395
546.268918	2401.900600
546.628019	2404.947977
546.987064	2404.874881
547.346053	2406.818245
547.704986	2402.865981
548.063863	2406.573749
548.422684	2405.643657
548.781449	2404.247257
549.140158	2404.731208
549.498811	2404.090981
549.857408	2405.313461
550.215949	2401.078892
550.574434	2401.852709
550.932864	2404.718605
551.291237	2398.888510
551.649555	2403.473440
552.007817	2401.401526
552.366022	2405.028636
552.724173	2404.211969
553.082267	2404.960580
553.440305	2404.219531
553.798288	2403.826321
554.156215	2403.503687
554.514086	2407.912176
554.871902	2405.467216
555.229661	2402.928995
555.587365	2405.048800
555.945014	2405.371434
556.302606	2403.072668
556.660143	2406.626682
557.017625	2403.735580
557.375050	2405.910838
557.732421	2403.952349
558.089735	2405.414284
558.446994	2404.403533
558.804197	2406.324212
559.161345	2403.675086
559.518437	2405.258008
559.875474	2404.191804
560.232455	2403.123080
560.589381	2403.463358
560.946251	2404.776578
561.303065	2404.113666
561.659825	2404.224572
562.016528	2402.805487
562.373177	2403.871691
562.729770	2400.892369
563.086307	2403.818759
563.442789	2404.867319
563.799216	2406.248595
564.155587	2405.585683
564.511904	2402.281207
564.868164	2401.230126
565.224370	2404.065775
565.580520	2403.382699
565.936615	2403.939747
566.292654	2402.840775
566.648638	2406.235992
567.004567	2403.551578
567.360441	2403.791033
567.716260	2403.934705
568.072023	2403.538975
568.427732	2398.581000
568.783385	2401.671227
569.138982	2400.478994
569.494525	2402.180384
569.850013	2399.715260
570.205445	2403.501166
570.560823	2402.190466
570.916145	2402.810528
571.271412	2404.678276
571.626625	2402.147616
571.981782	2402.646691
572.336884	2404.650549
572.691931	2404.426218
573.046923	2402.687020
573.401860	2401.698954
573.756743	2405.499984
574.111570	2401.237688
574.466342	2405.089130
574.821059	2405.482340
575.175722	2404.365724
575.530330	2404.320354
575.884882	2401.779612
576.239380	2402.016546
576.593823	2404.690878
576.948211	2402.099725
577.302544	2406.712381
577.656823	2402.376989
578.011047	2404.718605
578.365216	2403.677607
578.719330	2403.652401
579.073389	2403.589386
579.427394	2405.575601
579.781344	2402.858419
580.135239	2405.101733
580.489080	2403.733059
580.842866	2403.218862
581.196597	2404.527041
581.550273	2402.568553
581.903895	2403.085271
582.257463	2403.619633
582.610975	2401.144427
582.964434	2402.192987
583.317837	2402.621485
583.671186	2402.843296
584.024481	2402.266083
584.377721	2402.591238
584.730906	2402.873543
585.084037	2403.256670
585.437113	2401.993861
585.790135	2404.648029
586.143103	2403.657442
586.496016	2402.755075
586.848874	2398.480177
587.201679	2401.749365
587.554428	2398.114693
587.907124	2399.024622
588.259765	2398.845661
588.612352	2403.513769
588.964884	2401.898079
589.317362	2403.712895
589.669786	2400.781464
590.022155	2402.951680
590.374470	2401.164591
590.726731	2400.476474
591.078937	2403.677607
591.431090	2403.612072
591.783188	2401.260373
592.135232	2400.511762
592.487222	2403.002092
592.839157	2403.226423
593.191038	2401.164591
593.542866	2402.452606
593.894639	2400.836916
594.246358	2401.761968
594.598022	2405.741959
594.949633	2405.293296
595.301190	2402.873542
595.652692	2401.948491
596.004141	2401.182235
596.355535	2403.042421
596.706876	2402.729870
597.058162	2399.586710
597.409395	2402.785322
597.760573	2399.014539
598.111698	2401.088974
598.462768	2401.285579
598.813785	2400.042935
599.164748	2402.046793
599.515657	2402.354304
599.866511	2400.642832
600.217312	2403.687689
600.568060	2400.037893
600.918753	2403.715415
601.269392	2401.620816
601.619978	2401.414128
601.970510	2402.616444
602.320988	2402.283728
602.671412	2403.894376
603.021783	2402.162740
603.372100	2401.794736
603.722363	2402.268604
604.072572	2401.078892
604.422728	2401.963614
604.772830	2399.632081
605.122878	2399.352297
605.472872	2401.832544
605.822813	2400.068140
606.172701	2403.508728
606.522534	2402.608882
606.872314	2401.202400
607.222041	2400.421021
607.571714	2403.859088
607.921333	2400.796587
608.270899	2401.814900
608.620411	2403.281876
608.969870	2402.361865
609.319276	2401.590569
609.668627	2401.010836
610.017926	2399.803480
610.367171	2402.195507
610.716362	2399.417832
611.065500	2403.203738
611.414585	2403.140724
611.763616	2400.128634
612.112594	2400.584859
612.461518	2404.408574
612.810389	2401.729201
613.159207	2401.847668
613.507971	2402.485374
613.856682	2400.731052
614.205340	2403.077709
614.553945	2403.233985
614.902496	2402.419839
615.250994	2401.792215
615.599439	2401.643501
615.947830	2402.021587
616.296169	2404.159037
616.644454	2399.501011
616.992686	2404.007802
617.340864	2404.048131
617.688990	2402.253481
618.037063	2403.486043
618.385082	2399.695095
618.733048	2402.445044
619.080961	2398.276010
619.428821	2400.688202
619.776628	2402.878584
620.124382	2400.841958
620.472083	2401.971176
620.819731	2403.458316
621.167326	2400.978069
621.514868	2404.383368
621.862357	2403.425549
622.209793	2401.577966
622.557176	2401.333470
622.904506	2400.935219
623.251783	2397.489590
623.599007	2397.562687
623.946179	2398.628891
624.293297	2397.275341
624.640363	2401.116700
624.987376	2400.874725
625.334336	2397.769374
625.681243	2398.119734
626.028097	2401.517472
626.374899	2401.499828
626.721647	2400.988151
627.068343	2402.346742
627.414987	2401.489746
627.761577	2400.219375
628.108115	2400.796587
628.454600	2401.454458
628.801032	2402.750034
629.147412	2401.860271
629.493739	2399.490928
629.840014	2402.785322
630.186236	2401.434293
630.532405	2400.743655
630.878521	2400.627708
631.224585	2405.784809
631.570597	2400.413459
631.916556	2399.228788
632.262462	2399.337173
632.608316	2400.277348
632.954117	2399.206103
633.299866	2403.886814
633.645562	2399.092677
633.991206	2403.173491
634.336797	2398.959087
634.682336	2402.213151
635.027823	2400.879766
635.373257	2400.897410
635.718639	2400.569735
636.063968	2400.678120
636.409245	2401.540157
636.754470	2402.059396
637.099642	2400.090826
637.444762	2401.252812
637.789829	2400.857081
638.134845	2399.763151
638.479808	2399.700136
638.824719	2399.806000
639.169577	2399.213665
639.514383	2399.359858
639.859137	2398.006308
640.203839	2404.998389
640.548489	2400.746176
640.893086	2396.294837
641.237632	2396.221740
641.582125	2394.003632
641.926566	2393.522202
642.270955	2397.295506
642.615292	2398.979251
642.959576	2398.336504
643.303809	2399.296844
643.647990	2398.253325
643.992118	2398.951525
644.336195	2396.844322
