Dividing Wavelength (nm)	Counts (n)	Blue Motor Position (mm): 0.000000	Red Motor Position (mm): 20.800000	
326.493990	1985.390387
326.888308	1985.390387
327.282561	1985.390387
327.676750	1957.268310
328.070874	1959.622529
328.464933	1966.675103
328.858929	1976.157513
329.252859	1989.090594
329.646726	2001.327995
330.040528	2017.293329
330.434265	2037.324354
330.827938	2057.511654
331.221547	2075.029664
331.615091	2096.746955
332.008571	2115.401744
332.401986	2136.912348
332.795338	2157.296253
333.188625	2176.114881
333.581847	2200.022553
333.975006	2214.314224
334.368100	2233.465568
334.761129	2251.505337
335.154095	2264.340114
335.546996	2281.001128
335.939833	2301.148099
336.332606	2310.338123
336.725315	2322.323466
337.117960	2330.301092
337.510540	2337.426763
337.903056	2349.270954
338.295508	2350.987467
338.687896	2362.824096
339.080220	2370.915148
339.472480	2373.481095
339.864676	2377.735829
340.256807	2383.848228
340.648875	2383.767569
341.040879	2381.690614
341.432818	2387.283774
341.824694	2386.141953
342.216506	2387.797972
342.608253	2387.094731
342.999937	2385.143804
343.391557	2386.182282
343.783113	2383.359236
344.174605	2383.853269
344.566033	2377.919831
344.957397	2377.682897
345.348697	2375.991590
345.739934	2371.615868
346.131106	2372.152751
346.522215	2371.875487
346.913260	2369.370034
347.304241	2370.103522
347.695159	2367.328367
348.086012	2366.796525
348.476802	2366.045393
348.867528	2363.426514
349.258191	2361.697398
349.648789	2360.946266
350.039324	2357.402335
350.429796	2362.854343
350.820203	2360.306039
351.210548	2359.489373
351.600828	2355.272447
351.991045	2357.235977
352.381198	2358.186234
352.771288	2360.288395
353.161314	2361.205885
353.551276	2358.806296
353.941175	2357.921574
354.331010	2357.966944
354.720782	2355.650534
355.110490	2357.417458
355.500135	2360.477439
355.889717	2357.714886
356.279235	2359.663292
356.668689	2362.700588
357.058080	2358.876872
357.447408	2361.599095
357.836672	2360.341328
358.225873	2358.617253
358.615010	2359.315453
359.004084	2364.928778
359.393095	2364.356607
359.782043	2365.289220
360.170927	2367.351052
360.559748	2365.465660
360.948505	2369.642256
361.337199	2368.772657
361.725830	2368.321474
362.114398	2371.429345
362.502903	2369.395240
362.891344	2371.205014
363.279722	2371.333563
363.668037	2371.993955
364.056289	2372.109901
364.444478	2374.582587
364.832603	2373.478574
365.220665	2375.437063
365.608665	2376.089892
365.996601	2378.945706
366.384474	2378.043339
366.772284	2379.981663
367.160031	2376.536034
367.547715	2382.338402
367.935336	2378.297918
368.322893	2380.533669
368.710388	2380.752959
369.097820	2385.872251
369.485189	2384.493496
369.872495	2387.530791
370.259738	2387.790410
370.646918	2390.341234
371.034035	2389.574979
371.421090	2393.675957
371.808081	2399.276679
372.195010	2402.248439
372.581875	2410.137845
372.968678	2414.296797
373.355418	2422.186203
373.742096	2430.597368
374.128710	2440.256219
374.515262	2450.391459
374.901751	2463.974848
375.288177	2483.811788
375.674540	2502.020436
376.060841	2522.361492
376.447079	2545.112219
376.833254	2568.246074
377.219367	2596.030393
377.605417	2630.406021
377.991404	2657.451812
378.377329	2699.595858
378.763191	2733.492576
379.148991	2776.934720
379.534727	2826.900116
379.920402	2872.764534
380.306013	2918.492840
380.691563	2983.284270
381.077049	3036.289482
381.462474	3090.774273
381.847835	3167.094822
382.233134	3236.060327
382.618371	3294.537711
383.003545	3380.552399
383.388657	3457.913946
383.773706	3548.160682
384.158693	3620.649954
384.543618	3711.599931
384.928480	3791.653454
385.313280	3894.477869
385.698017	3998.907891
386.082692	4119.078917
386.467305	4180.858257
386.851856	4308.482628
387.236344	4457.252120
387.620770	4521.937685
388.005133	4640.664420
388.389435	4787.714878
388.773674	4867.246641
389.157851	4997.787320
389.541965	5131.143483
389.926018	5152.901103
390.310008	5331.483978
390.693936	5450.626608
391.077802	5565.252365
391.461606	5704.307552
391.845348	5808.772863
392.229027	5932.669301
392.612645	6152.549308
392.996200	6264.576350
393.379694	6442.382887
393.763125	6664.836403
394.146494	6755.405773
394.529801	6883.335134
394.913047	7130.578525
395.296230	7124.791280
395.679351	7181.902512
396.062410	7433.498939
396.445408	7331.208886
396.828343	7484.344017
397.211217	7608.442101
397.594028	7497.025039
397.976778	7697.110956
398.359466	7859.352931
398.742092	7840.388110
399.124656	7982.757856
399.507158	8165.197214
399.889598	8187.015328
400.271977	8394.083243
400.654294	8425.761853
401.036549	8618.953992
401.418742	8638.730439
401.800874	8937.822096
402.182944	9016.068366
402.564952	9378.116473
402.946898	9201.968476
403.328783	9255.341692
403.710606	9449.133728
404.092367	9704.135454
404.474067	10055.541686
404.855705	9857.026089
405.237282	9804.653541
405.618797	10228.475948
406.000250	10474.325459
406.381642	10826.382000
406.762972	10783.791812
407.144240	10585.112377
407.525447	10827.486013
407.906593	10774.289237
408.287677	11016.279745
408.668700	11173.604074
409.049661	11145.348407
409.430560	11308.223046
409.811399	11275.831112
410.192176	11435.807088
410.572891	11515.086794
410.953545	11981.789256
411.334138	11465.025616
411.714669	12054.240719
412.095139	11374.529343
412.475547	11870.125177
412.855894	11707.295908
413.236180	12035.958974
413.616405	11718.633463
413.996568	11999.264416
414.376670	11965.324847
414.756711	11846.719100
415.136691	12118.427210
415.516609	12281.296809
415.896466	12355.061492
416.276262	12646.198209
416.655997	13089.902927
417.035670	13119.781846
417.415283	13749.011107
417.794834	13841.370087
418.174324	13583.966251
418.553753	13486.117454
418.933121	13956.424341
419.312428	13767.799487
419.691674	13682.019213
420.070859	14119.926604
420.449983	13785.567034
420.829045	14310.159586
421.208047	14064.408377
421.586988	14489.279343
421.965867	14735.383433
422.344686	14722.553697
422.723444	15267.504948
423.102141	13976.649450
423.480777	15122.337361
423.859352	14633.947856
424.237866	15687.619586
424.616319	15383.426281
424.994712	15992.979918
425.373044	15769.896258
425.751314	16394.981691
426.129524	15526.398445
426.507673	16534.077208
426.885762	16217.112139
427.263789	16359.617997
427.641756	16483.627861
428.019662	16486.803788
428.397508	16479.655431
428.775292	16704.097683
429.153016	16613.976976
429.530679	16627.867875
429.908282	16583.185608
430.285824	16254.507418
430.663305	16822.116136
431.040726	16384.785957
431.418086	16148.731408
431.795385	16631.810057
432.172624	16907.233498
432.549802	16427.187102
432.926920	16486.239178
433.303977	16280.222344
433.680974	16390.545475
434.057910	16517.191863
434.434786	16425.105106
434.811601	16231.267699
435.188355	16976.536760
435.565050	16554.546813
435.941683	16380.566511
436.318257	16954.191846
436.694770	16649.159188
437.071222	16968.065101
437.447614	16072.045375
437.823946	15937.645693
438.200218	15895.257151
438.576429	15571.010136
438.952580	15600.276554
439.328670	15414.346198
439.704700	15547.793102
440.080670	15068.016408
440.456580	15309.160002
440.832429	15248.131794
441.208218	14380.428229
441.583947	14481.175689
441.959616	14381.466707
442.335224	14348.646275
442.710773	14244.193567
443.086261	14388.826791
443.461689	13803.092605
443.837057	13685.931149
444.212365	13872.509294
444.587612	13670.926154
444.962800	13225.961148
445.337927	13258.040531
445.712995	12335.259840
446.088002	13169.631295
446.462949	13066.882498
446.837837	12931.063731
447.212664	12682.807068
447.587431	13889.538312
447.962139	15111.350166
448.336786	16046.375820
448.711374	15048.371031
449.085901	13045.054302
449.460369	12716.754198
449.834776	12427.099581
450.209124	13268.175771
450.583412	12842.306656
450.957640	12819.339159
451.331808	12009.939059
451.705917	11229.880995
452.079965	10999.767445
452.453954	10900.126519
452.827883	10636.998453
453.201752	10349.589669
453.575562	10187.201501
453.949311	10333.848666
454.323001	10142.322629
454.696632	9850.739770
455.070202	10095.621380
455.443713	9931.335217
455.817164	9878.791270
456.190556	9791.717941
456.563888	9436.863560
456.937160	9325.678391
457.310373	8699.597330
457.683526	8589.410310
458.056619	8377.709575
458.429653	8166.588572
458.802628	8093.136440
459.175542	7929.561080
459.548398	8013.100561
459.921194	8146.335737
460.293930	8112.146631
460.666607	8309.704409
461.039224	8433.701671
461.411782	8290.479969
461.784280	7860.318312
462.156719	7545.024385
462.529099	7247.611432
462.901419	6849.738365
463.273680	6520.296440
463.645882	6350.341500
464.018024	6182.760943
464.390106	6131.845289
464.762130	6320.659186
465.134094	6695.416043
465.505999	7194.528082
465.877845	7543.113788
466.249631	7431.275790
466.621358	6995.026939
466.993026	6545.093876
467.364634	6142.746785
467.736184	5792.124452
468.107674	5527.186612
468.479105	5325.142207
468.850477	5132.396210
469.221790	4902.239811
469.593043	4664.249458
469.964238	4490.354856
470.335373	4381.481057
470.706449	4374.269686
471.077467	4420.572684
471.448425	4572.127413
471.819324	4628.631186
472.190164	4445.216365
472.560945	4190.449052
472.931667	3966.692398
473.302330	3832.138960
473.672934	3729.251531
474.043479	3679.654139
474.413965	3590.856734
474.784393	3519.726054
475.154761	3493.275119
475.525070	3444.322995
475.895321	3379.839076
476.265513	3355.006352
476.635645	3338.483970
477.005719	3294.608288
477.375734	3260.759460
477.745691	3241.192221
478.115588	3233.880028
478.485427	3241.439238
478.855207	3276.369393
479.224928	3297.391004
479.594591	3295.498051
479.964194	3245.121801
480.333739	3214.983262
480.703226	3186.934282
481.072653	3172.090605
481.442022	3154.312976
481.811333	3138.755975
482.180584	3096.886672
482.549777	3068.930953
482.918912	3045.184598
483.287988	3023.842873
483.657005	2998.082577
484.025964	2974.200111
484.394864	2960.599078
484.763706	2944.457303
485.132489	2921.802358
485.501213	2908.501273
485.869879	2899.442320
486.238487	2888.508057
486.607036	2878.808877
486.975527	2862.634335
487.343959	2854.263499
487.712333	2849.297962
488.080648	2840.581807
488.448905	2841.501818
488.817104	2829.566886
489.185244	2833.456137
489.553326	2839.934019
489.921350	2860.194417
490.289315	2882.234341
490.657222	2884.538148
491.025070	2878.899618
491.392861	2865.369161
491.760593	2845.902745
492.128267	2825.475990
492.495883	2811.393527
492.863440	2790.341668
493.230939	2775.200563
493.598380	2761.042482
493.965763	2750.839187
494.333088	2740.711509
494.700354	2735.587176
495.067563	2730.906464
495.434713	2723.851370
495.801805	2722.565875
496.168839	2718.550596
496.535815	2716.332489
496.902733	2708.985007
497.269593	2707.132383
497.636395	2701.004860
498.003139	2704.546271
498.369825	2698.822041
498.736453	2700.042000
499.103023	2691.938345
499.469535	2689.634538
499.835989	2689.868952
500.202385	2687.562624
500.568723	2688.044054
500.935003	2688.434743
501.301226	2688.089424
501.667390	2689.949610
502.033497	2690.927594
502.399546	2684.895853
502.765537	2682.587005
503.131470	2683.451563
503.497345	2689.155628
503.863163	2680.134483
504.228923	2686.239321
504.594625	2688.071780
504.960269	2684.646316
505.325856	2689.758046
505.691385	2684.028775
506.056856	2689.059846
506.422270	2691.625794
506.787625	2691.114117
507.152924	2692.137471
507.518164	2694.337934
507.883347	2691.310722
508.248472	2692.313911
508.613540	2699.510158
508.978550	2704.193390
509.343503	2701.939994
509.708398	2705.360417
510.073236	2711.447611
510.438016	2714.285780
510.802738	2707.823021
511.167403	2718.386759
511.532010	2718.870710
511.896561	2722.200392
512.261053	2730.152812
512.625488	2727.501165
512.989866	2726.145095
513.354186	2729.855384
513.718449	2728.211968
514.082655	2738.372413
514.446803	2737.056672
514.810894	2744.134452
515.174927	2744.492374
515.538904	2743.290059
515.902822	2749.309197
516.266684	2753.447984
516.630488	2752.727099
516.994235	2752.880854
517.357925	2755.779517
517.721558	2760.014087
518.085133	2762.189345
518.448651	2766.484408
518.812112	2762.282606
519.175516	2762.247318
519.538863	2767.807711
519.902152	2770.184615
520.265385	2774.882970
520.628560	2773.456323
520.991678	2772.203597
521.354739	2772.236364
521.717743	2778.215173
522.080690	2777.471603
522.443580	2784.962757
522.806413	2788.859569
523.169189	2785.156842
523.531908	2785.194650
523.894569	2786.722120
524.257174	2788.698252
524.619722	2788.534415
524.982213	2790.467697
525.344647	2789.887964
525.707025	2789.343520
526.069345	2791.859056
526.431608	2793.653706
526.793815	2798.631846
527.155964	2792.060702
527.518057	2795.271917
527.880093	2792.136319
528.242072	2795.927267
528.603995	2791.480969
528.965860	2792.877369
529.327669	2796.438944
529.689421	2792.718572
530.051117	2794.140178
530.412755	2795.206382
530.774337	2795.186217
531.135862	2794.339303
531.497331	2793.515075
531.858743	2791.639765
532.220098	2791.914508
532.581396	2791.692697
532.942638	2788.403345
533.303824	2794.246042
533.664953	2793.452060
534.026025	2791.977523
534.387040	2794.538429
534.747999	2795.206382
535.108902	2794.664458
535.469748	2791.065074
535.830537	2789.222532
536.191270	2793.061371
536.551947	2791.397790
536.912567	2791.443160
537.273131	2793.174797
537.633638	2785.320679
537.994089	2787.972326
538.354483	2785.799589
538.714821	2789.036009
539.075103	2791.914508
539.435328	2790.991977
539.795497	2789.635907
540.155609	2789.522481
540.515665	2791.838891
540.875665	2784.561985
541.235609	2789.509878
541.595496	2789.300670
541.955328	2793.923408
542.315102	2787.919394
542.674821	2784.446039
543.034483	2786.568365
543.394090	2786.487706
543.753640	2785.030813
544.113134	2792.597585
544.472571	2784.667850
544.831953	2792.443829
545.191278	2787.044754
545.550548	2780.944957
545.909761	2786.127264
546.268918	2785.968467
546.628019	2790.359312
546.987064	2786.835546
547.346053	2778.074020
547.704986	2782.157355
548.063863	2777.446397
548.422684	2778.331119
548.781449	2775.858433
549.140158	2777.713578
549.498811	2778.142076
549.857408	2770.245108
550.215949	2770.781991
550.574434	2769.766199
550.932864	2767.492638
551.291237	2769.453647
551.649555	2768.485746
552.007817	2766.428955
552.366022	2762.451485
552.724173	2766.139089
553.082267	2763.754623
553.440305	2762.968203
553.798288	2756.966709
554.156215	2755.199785
554.514086	2755.870258
554.871902	2748.192581
555.229661	2748.391707
555.587365	2742.715367
555.945014	2743.463979
556.302606	2742.019688
556.660143	2737.560787
557.017625	2734.019377
557.375050	2730.281361
557.732421	2730.447719
558.089735	2725.913202
558.446994	2724.594940
558.804197	2722.913715
559.161345	2719.594115
559.518437	2714.384083
559.875474	2712.044987
560.232455	2712.418033
560.589381	2706.769420
560.946251	2703.855633
561.303065	2703.532999
561.659825	2700.210879
562.016528	2693.569158
562.373177	2690.282326
562.729770	2687.537418
563.086307	2683.575071
563.442789	2684.038857
563.799216	2680.689010
564.155587	2674.710202
564.511904	2671.178874
564.868164	2671.032680
565.224370	2670.115190
565.580520	2663.367606
565.936615	2664.048162
566.292654	2656.592295
566.648638	2658.182779
567.004567	2653.842346
567.360441	2653.610452
567.716260	2648.294556
568.072023	2644.324647
568.427732	2636.878863
568.783385	2638.083699
569.138982	2634.630508
569.494525	2633.095477
569.850013	2629.155815
570.205445	2630.310239
570.560823	2627.298150
570.916145	2623.580299
571.271412	2622.042747
571.626625	2618.534104
571.981782	2620.943776
572.336884	2617.029320
572.691931	2615.277519
573.046923	2613.200563
573.401860	2606.228647
573.756743	2606.450458
574.111570	2603.703029
574.466342	2602.155395
574.821059	2601.439551
575.175722	2598.082143
575.530330	2595.017121
575.884882	2594.989395
576.239380	2591.586616
576.593823	2592.078129
576.948211	2588.904722
577.302544	2589.981009
577.656823	2586.772314
578.011047	2586.999166
578.365216	2582.003383
578.719330	2580.632189
579.073389	2579.008937
579.427394	2580.226376
579.781344	2576.760583
580.135239	2577.282342
580.489080	2577.516756
580.842866	2573.317475
581.196597	2574.958370
581.550273	2574.537434
581.903895	2570.312947
582.257463	2576.569019
582.610975	2572.031980
582.964434	2569.375292
583.317837	2566.718604
583.671186	2567.386557
584.024481	2569.186249
584.377721	2563.542677
584.730906	2566.401012
585.084037	2566.857236
585.437113	2563.187276
585.790135	2563.527554
586.143103	2562.834395
586.496016	2562.473953
586.848874	2557.372305
587.201679	2559.834909
587.554428	2556.243087
587.907124	2558.020093
588.259765	2557.379867
588.612352	2558.123437
588.964884	2553.596481
589.317362	2553.208312
589.669786	2556.837943
590.022155	2556.583364
590.374470	2557.458005
590.726731	2552.416851
591.078937	2554.952551
591.431090	2555.126471
591.783188	2551.214536
592.135232	2551.413661
592.487222	2551.431305
592.839157	2550.617159
593.191038	2551.043136
593.542866	2547.310162
593.894639	2543.166333
594.246358	2545.760007
594.598022	2546.730429
594.949633	2543.025181
595.301190	2543.771272
595.652692	2544.706406
596.004141	2543.927548
596.355535	2542.329502
596.706876	2541.711961
597.058162	2539.080478
597.409395	2540.101312
597.760573	2541.021322
598.111698	2539.803884
598.462768	2541.684234
598.813785	2539.120807
599.164748	2541.737166
599.515657	2539.710622
599.866511	2537.469830
600.217312	2537.439583
600.568060	2537.633667
600.918753	2539.004861
601.269392	2539.473688
601.619978	2535.292051
601.970510	2537.484953
602.320988	2536.204500
602.671412	2539.672814
603.021783	2535.012267
603.372100	2534.669469
603.722363	2534.561084
604.072572	2535.019829
604.422728	2535.181146
604.772830	2532.501773
605.122878	2531.662420
605.472872	2530.059333
605.822813	2527.707635
606.172701	2532.131248
606.522534	2532.262318
606.872314	2536.111239
607.222041	2530.792821
607.571714	2533.131917
607.921333	2532.390867
608.270899	2532.635363
608.620411	2529.769467
608.969870	2532.451361
609.319276	2532.113604
609.668627	2528.922553
610.017926	2535.753317
610.367171	2534.898841
610.716362	2532.486649
611.065500	2532.199303
611.414585	2533.346166
611.763616	2534.614016
612.112594	2532.209386
612.461518	2531.518748
612.810389	2533.704088
613.159207	2532.539581
613.507971	2531.385157
613.856682	2535.140817
614.205340	2532.574869
614.553945	2533.512524
614.902496	2530.767616
615.250994	2530.011442
615.599439	2534.888759
615.947830	2534.392205
616.296169	2533.688964
616.644454	2536.189377
616.992686	2533.394057
617.340864	2534.077133
617.688990	2530.775177
618.037063	2534.684592
618.385082	2532.781557
618.733048	2535.564273
619.080961	2534.520755
619.428821	2533.346166
619.776628	2535.584438
620.124382	2533.237781
620.472083	2534.442617
620.819731	2536.222144
621.167326	2529.225022
621.514868	2533.653676
621.862357	2530.876000
622.209793	2530.150074
622.557176	2528.730989
622.904506	2526.326359
623.251783	2520.163548
623.599007	2525.285361
623.946179	2517.796727
624.293297	2522.265710
624.640363	2520.208919
624.987376	2521.696059
625.334336	2517.612725
625.681243	2519.740092
626.028097	2521.186903
626.374899	2518.187416
626.721647	2518.346212
627.068343	2517.269926
627.414987	2516.922087
627.761577	2514.121726
628.108115	2517.610204
628.454600	2513.158865
628.801032	2515.525687
629.147412	2513.229441
629.493739	2513.622651
629.840014	2515.966788
630.186236	2510.335819
630.532405	2510.920593
630.878521	2513.121057
631.224585	2513.587363
631.570597	2509.924965
631.916556	2511.638957
632.262462	2507.963956
632.608316	2509.675428
632.954117	2505.806342
633.299866	2510.197187
633.645562	2509.299862
633.991206	2508.639471
634.336797	2503.762154
634.682336	2508.180726
635.027823	2504.742659
635.373257	2504.732577
635.718639	2503.500014
636.063968	2503.056393
636.409245	2499.346104
636.754470	2501.148316
637.099642	2499.509941
637.444762	2501.695281
637.789829	2498.738645
638.134845	2498.673110
638.479808	2497.485918
638.824719	2498.421052
639.169577	2493.886534
639.514383	2494.756133
639.859137	2496.119765
640.203839	2499.265445
640.548489	2493.808396
640.893086	2490.813951
641.237632	2488.936121
641.582125	2490.950062
641.926566	2488.336224
642.270955	2492.865700
642.615292	2493.626915
