Dividing Wavelength (nm)	Counts (n)	Blue Motor Position (mm): 0.000000	Red Motor Position (mm): 46.200000	
326.493990	1998.086533
326.888308	1998.086533
327.282561	1998.086533
327.676750	1975.716412
328.070874	1973.662142
328.464933	1983.638586
328.858929	1990.189565
329.252859	2004.836638
329.646726	2019.241735
330.040528	2033.795546
330.434265	2055.336396
330.827938	2074.815415
331.221547	2093.651686
331.615091	2112.873606
332.008571	2133.565022
332.401986	2155.075625
332.795338	2175.043636
333.188625	2193.229598
333.581847	2213.129553
333.975006	2232.565722
334.368100	2246.416292
334.761129	2267.173243
335.154095	2279.488782
335.546996	2324.637355
335.939833	2407.574418
336.332606	2422.433219
336.725315	2432.689447
337.117960	2441.786209
337.510540	2450.197374
337.903056	2458.737089
338.295508	2464.768829
338.687896	2472.600262
339.080220	2482.296921
339.472480	2486.846563
339.864676	2487.943014
340.256807	2491.769249
340.648875	2495.275372
341.040879	2497.833758
341.432818	2497.848881
341.824694	2500.016577
342.216506	2497.407780
342.608253	2498.191679
342.999937	2496.507934
343.391557	2496.865856
343.783113	2493.591627
344.174605	2493.074908
344.566033	2490.440905
344.957397	2490.105669
345.348697	2489.246152
345.739934	2486.869248
346.131106	2484.918321
346.522215	2482.914463
346.913260	2482.148207
347.304241	2478.589153
347.695159	2477.694348
348.086012	2479.821715
348.476802	2477.054121
348.867528	2474.163020
349.258191	2474.077320
349.648789	2473.129583
350.039324	2472.549850
350.429796	2475.753504
350.820203	2469.421814
351.210548	2469.767133
351.600828	2471.899542
351.991045	2467.672534
352.381198	2468.368213
352.771288	2472.877525
353.161314	2469.255456
353.551276	2470.087247
353.941175	2463.901751
354.331010	2470.969449
354.720782	2470.689665
355.110490	2473.129583
355.500135	2470.248564
355.889717	2471.695375
356.279235	2468.418625
356.668689	2471.801239
357.058080	2472.834676
357.447408	2471.045066
357.836672	2470.001547
358.225873	2470.203193
358.615010	2470.966928
359.004084	2474.316775
359.393095	2476.776858
359.782043	2477.323823
360.170927	2477.759883
360.559748	2476.340798
360.948505	2480.235089
361.337199	2483.161479
361.725830	2479.804071
362.114398	2485.460245
362.502903	2482.402786
362.891344	2487.385966
363.279722	2486.223980
363.668037	2484.782210
364.056289	2486.644917
364.444478	2486.652478
364.832603	2488.502582
365.220665	2492.114568
365.608665	2489.906543
365.996601	2491.030720
366.384474	2491.499548
366.772284	2496.943994
367.160031	2494.340238
367.547715	2496.207985
367.935336	2495.204796
368.322893	2496.026504
368.710388	2496.187821
369.097820	2502.441372
369.485189	2500.208141
369.872495	2505.687875
370.259738	2503.547905
370.646918	2508.621827
371.034035	2509.030160
371.421090	2513.121057
371.808081	2516.561644
372.195010	2518.842766
372.581875	2525.582789
372.968678	2532.065713
373.355418	2541.195242
373.742096	2553.001625
374.128710	2563.756926
374.515262	2577.887281
374.901751	2590.149887
375.288177	2614.801130
375.674540	2629.191103
376.060841	2651.031902
376.447079	2678.163392
376.833254	2698.693491
377.219367	2726.382029
377.605417	2762.494334
377.991404	2789.434261
378.377329	2832.248780
378.763191	2867.551981
379.148991	2917.174578
379.534727	2966.053606
379.920402	3015.265350
380.306013	3067.174111
380.691563	3132.202475
381.077049	3189.800178
381.462474	3249.217738
381.847835	3322.316990
382.233134	3400.333887
382.618371	3459.191878
383.003545	3547.265877
383.388657	3632.347951
383.773706	3728.061819
384.158693	3800.717448
384.543618	3898.576327
384.928480	3980.852999
385.313280	4085.799740
385.698017	4195.757387
386.082692	4321.128363
386.467305	4385.390472
386.851856	4516.261346
387.236344	4673.941077
387.620770	4739.912136
388.005133	4866.364439
388.389435	5021.107698
388.773674	5100.276498
389.157851	5238.633486
389.541965	5377.721442
389.926018	5400.731788
390.310008	5586.372279
390.693936	5713.245518
391.077802	5833.275391
391.461606	5970.543490
391.845348	6092.088230
392.229027	6209.864707
392.612645	6441.669564
392.996200	6559.433438
393.379694	6739.173258
393.763125	6971.890563
394.146494	7068.151396
394.529801	7213.712193
394.913047	7466.140410
395.296230	7464.071016
395.679351	7522.140068
396.062410	7792.844988
396.445408	7686.222063
396.828343	7847.334820
397.211217	7985.280954
397.594028	7865.203190
397.976778	8077.251764
398.359466	8242.667146
398.742092	8220.291984
399.124656	8375.010037
399.507158	8562.225888
399.889598	8588.175227
400.271977	8795.361609
400.654294	8841.997323
401.036549	9039.620637
401.418742	9067.175583
401.800874	9377.819045
402.182944	9467.511254
402.564952	9839.535805
402.946898	9651.228545
403.328783	9714.822700
403.710606	9918.578577
404.092367	10189.921203
404.474067	10561.618079
404.855705	10343.225212
405.237282	10291.772676
405.618797	10738.464277
406.000250	10987.981228
406.381642	11362.700275
406.762972	11318.449027
407.144240	11102.440626
407.525447	11368.021213
407.906593	11310.741103
408.287677	11568.449928
408.668700	11730.638971
409.049661	11701.407841
409.430560	11860.816687
409.811399	11836.830877
410.192176	12009.876044
410.572891	12078.965058
410.953545	12589.964138
411.334138	12043.021631
411.714669	12676.286336
412.095139	11951.509565
412.475547	12472.500212
412.855894	12317.457005
413.236180	12656.925785
413.616405	12320.761482
413.996568	12614.713683
414.376670	12584.204620
414.756711	12455.985392
415.136691	12754.830033
415.516609	12951.954272
415.896466	13019.604036
416.276262	13308.857882
416.655997	13756.330862
417.035670	13782.093679
417.415283	14448.065390
417.794834	14554.002718
418.174324	14289.306853
418.553753	14200.890055
418.933121	14688.029354
419.312428	14493.297143
419.691674	14414.836625
420.070859	14879.091606
420.449983	14530.337021
420.829045	15099.150574
421.208047	14818.703624
421.586988	15300.620287
421.965867	15561.109310
422.344686	15559.173507
422.723444	16138.722197
423.102141	14788.411330
423.480777	16013.595717
423.859352	15510.740621
424.237866	16650.681617
424.616319	16347.030235
424.994712	17021.173657
425.373044	16808.658775
425.751314	17508.091145
426.129524	16605.616222
426.507673	17741.899861
426.885762	17405.942245
427.263789	17630.500443
427.641756	17795.363818
428.019662	17859.739352
428.397508	17902.369870
428.775292	18218.505669
429.153016	18182.451336
429.530679	18262.835055
429.908282	18285.555535
430.285824	17997.970311
430.663305	18721.564932
431.040726	18309.974885
431.418086	18138.701683
431.795385	18797.048649
432.172624	19221.929698
432.549802	18772.251213
432.926920	18958.022773
433.303977	18843.286112
433.680974	19100.692468
434.057910	19398.559126
434.434786	19422.063505
434.811601	19332.509928
435.188355	20403.525748
435.565050	20035.599655
435.941683	19979.789041
436.318257	20895.101262
436.694770	20696.351251
437.071222	21314.404274
437.447614	20352.118581
437.823946	20387.431864
438.200218	20543.526152
438.576429	20306.700306
438.952580	20592.432906
439.328670	20553.883202
439.704700	20984.717854
440.080670	20526.497134
440.456580	21140.431535
440.832429	21324.602529
441.208218	20285.315731
441.583947	20743.155844
441.959616	20858.152125
442.335224	21096.845718
442.710773	21238.671020
443.086261	21781.938526
443.461689	21140.192080
443.837057	21255.014441
444.212365	21919.945154
444.587612	21909.144482
444.962800	21472.565435
445.337927	21910.992065
445.712995	20611.080134
446.088002	22524.906301
446.462949	22711.950752
446.837837	22905.130288
447.212664	22863.172765
447.587431	25794.376874
447.962139	28772.735937
448.336786	31188.613136
448.711374	29569.996938
449.085901	25817.039382
449.460369	25775.139831
449.834776	25700.006474
450.209124	28246.620957
450.583412	27744.751407
450.957640	28290.652915
451.331808	26902.808138
451.705917	25515.147363
452.079965	25567.381278
452.453954	25938.657218
452.827883	25791.843695
453.201752	25604.660611
453.575562	25781.025378
453.949311	26936.495649
454.323001	26993.432961
454.696632	26747.394406
455.070202	28335.693104
455.443713	28460.413771
455.817164	29081.098277
456.190556	29617.872777
456.563888	29037.086483
456.937160	29495.405506
457.310373	27778.464123
457.683526	28268.088711
458.056619	28239.109638
458.429653	28171.623711
458.802628	28773.603016
459.175542	28890.603155
459.548398	30201.630830
459.921194	31808.775882
460.293930	32484.555158
460.666607	34558.107764
461.039224	36331.925965
461.411782	36734.988900
461.784280	35522.394795
462.156719	35044.924429
462.529099	34480.726052
462.901419	33179.377393
463.273680	32100.822527
463.645882	32175.789526
464.018024	32158.218584
464.390106	33014.574512
464.762130	35776.957941
465.134094	39885.110157
465.505999	45243.874339
465.877845	49849.348985
466.249631	51009.852847
466.621358	49330.160550
466.993026	47235.054491
467.364634	45147.489998
467.736184	43156.203982
468.107674	41891.383523
468.479105	41091.410381
468.850477	40373.439168
469.221790	38936.848953
469.593043	37157.024218
469.964238	36256.810252
470.335373	36164.269791
470.706449	37938.634957
471.077467	40594.405544
471.448425	45177.114339
471.819324	47981.903954
472.190164	46098.743126
472.560945	42500.090247
472.931667	39381.282118
473.302330	38255.085828
473.672934	37414.692714
474.043479	37944.124773
474.413965	37118.696325
474.784393	36740.375373
475.154761	37657.749426
475.525070	37682.413272
475.895321	37213.011272
476.265513	37820.755136
476.635645	38810.787340
477.005719	38623.387487
477.375734	39115.356211
477.745691	39807.156274
478.115588	41177.997239
478.485427	43177.069318
478.855207	46562.612459
479.224928	49194.639211
479.594591	50824.950886
479.964194	49834.316264
480.333739	49997.032107
480.703226	50043.014992
481.072653	50685.101716
481.442022	51164.933863
481.811333	51406.281624
482.180584	50128.538167
482.549777	49613.314600
482.918912	49061.676258
483.287988	48804.118667
483.657005	47955.387485
484.025964	47303.871282
484.394864	47323.186463
484.763706	46899.817760
485.132489	46030.677467
485.501213	45858.764038
485.869879	46004.637387
486.238487	45586.594663
486.607036	45791.436908
486.975527	45246.309216
487.343959	45450.581811
487.712333	45523.945723
488.080648	45447.499146
488.448905	45912.296051
488.817104	45726.000211
489.185244	46692.689352
489.553326	48402.242923
489.921350	51104.679471
490.289315	53937.371873
490.657222	54491.780329
491.025070	54783.237159
491.392861	53910.076546
491.760593	52692.774003
492.128267	51064.932494
492.495883	49542.400689
492.863440	48145.602822
493.230939	46786.152344
493.598380	45680.201328
493.965763	45350.882912
494.333088	44532.270103
494.700354	44047.658943
495.067563	43739.316768
495.434713	43613.877737
495.801805	43687.196278
496.168839	43284.433292
496.535815	42950.867703
496.902733	42994.982841
497.269593	42577.267792
497.636395	42502.956143
498.003139	42915.705655
498.369825	42366.638302
498.736453	42688.611757
499.103023	42207.037892
499.469535	42063.097826
499.835989	42165.365193
500.202385	41821.704695
500.568723	41859.805735
500.935003	42048.148284
501.301226	41822.793584
501.667390	42458.881335
502.033497	42748.672064
502.399546	42148.031186
502.765537	41462.416619
503.131470	41858.716846
503.497345	42225.687640
503.863163	40867.852852
504.228923	41495.839469
504.594625	41921.078440
504.960269	41202.835004
505.325856	41908.737695
505.691385	41237.923956
506.056856	41399.180385
506.422270	41833.858917
506.787625	41408.128433
507.152924	41605.698814
507.518164	41713.483724
507.883347	40915.264904
508.248472	41172.577999
508.613540	41658.661176
508.978550	41984.120589
509.343503	41712.800648
509.708398	41937.217694
510.073236	42454.288844
510.438016	42464.444248
510.802738	41904.278795
511.167403	42543.441650
511.532010	42769.570167
511.896561	43075.348915
512.261053	43954.511023
512.625488	43479.878826
512.989866	43365.182494
513.354186	43198.920199
513.718449	43186.634907
514.082655	43872.010019
514.446803	43547.979774
514.810894	44074.545937
515.174927	43990.729192
515.538904	43881.179878
515.902822	44577.118728
516.266684	44000.541798
516.630488	44460.612622
516.994235	44296.276048
517.357925	44880.906221
517.721558	45055.526749
518.085133	45365.288009
518.448651	45503.181211
518.812112	45275.525223
519.175516	45373.807559
519.538863	45709.820627
519.902152	45659.661147
520.265385	46148.476629
520.628560	46179.041145
520.991678	45968.514999
521.354739	46219.458596
521.717743	46528.720782
522.080690	46427.943075
522.443580	46963.051473
522.806413	47035.505457
523.169189	46960.873695
523.531908	47154.141451
523.894569	46994.735125
524.257174	47180.806634
524.619722	47473.254051
524.982213	47458.974983
525.344647	47379.770894
525.707025	47423.951567
526.069345	47798.360583
526.431608	47735.129391
526.793815	48061.229030
527.155964	47573.883044
527.518057	47741.816481
527.880093	47519.705763
528.242072	48062.007888
528.603995	47745.670443
528.965860	47776.076163
529.327669	47861.080099
529.689421	47750.192358
530.051117	47689.932926
530.412755	47836.217128
530.774337	47913.563552
531.135862	47700.204277
531.497331	47905.056605
531.858743	47811.046647
532.220098	48151.647166
532.581396	47861.785861
532.942638	47524.116773
533.303824	47821.857402
533.664953	47791.308009
534.026025	47495.931682
534.387040	47983.267586
534.747999	47914.004653
535.108902	48080.599664
535.469748	47578.624249
535.830537	47710.198364
536.191270	47902.152900
536.551947	47546.184424
536.912567	47869.095534
537.273131	47985.384871
537.633638	47443.826316
537.994089	47814.774580
538.354483	47398.612207
538.714821	47966.959453
539.075103	48310.670364
539.435328	48073.141277
539.795497	47954.132237
540.155609	47928.016540
540.515665	48391.837982
540.875665	47861.911889
541.235609	48173.646761
541.595496	48154.939039
541.955328	48844.374801
542.315102	48200.924444
542.674821	47987.761775
543.034483	48023.034728
543.394090	47993.871653
543.753640	47946.431875
544.113134	48967.434407
544.472571	47952.367833
544.831953	49218.030165
545.191278	48419.670192
545.550548	48120.497876
545.909761	48605.945868
546.268918	48818.370009
546.628019	49122.437285
546.987064	48666.888377
547.346053	47933.375286
547.704986	48838.433801
548.063863	48365.071975
548.422684	48566.617306
548.781449	48426.006923
549.140158	48819.889917
549.498811	48656.561573
549.857408	48088.975541
550.215949	48952.205082
550.574434	48867.354901
550.932864	48628.855392
551.291237	49352.152584
551.649555	48952.409248
552.007817	49186.447336
552.366022	48832.986834
552.724173	49016.457108
553.082267	49410.387993
553.440305	49715.418130
553.798288	49022.682933
554.156215	49331.193987
554.514086	49558.529860
554.871902	49304.717847
555.229661	49318.162604
555.587365	49127.354931
555.945014	49218.073015
556.302606	49138.871447
556.660143	49374.573115
557.017625	49480.412140
557.375050	49265.497670
557.732421	49621.700559
558.089735	49592.466908
558.446994	49512.098313
558.804197	49995.005563
559.161345	49940.445155
559.518437	49171.061735
559.875474	49476.182612
560.232455	49638.273353
560.589381	49832.163691
560.946251	49516.075783
561.303065	50215.268698
561.659825	50025.491941
562.016528	49670.642601
562.373177	49397.996837
562.729770	49885.325179
563.086307	49381.353467
563.442789	49852.222442
563.799216	49912.481875
564.155587	49679.827584
564.511904	49727.116127
564.868164	49813.766000
565.224370	50062.899823
565.580520	49802.889711
565.936615	50008.533500
566.292654	49727.400952
566.648638	49991.078504
567.004567	49934.042890
567.360441	49972.038066
567.716260	49848.000476
568.072023	50106.745259
568.427732	50097.918198
568.783385	49653.522843
569.138982	50046.745446
569.494525	50004.651811
569.850013	49776.297624
570.205445	49751.696793
570.560823	49724.018338
570.916145	49603.595255
571.271412	49627.248349
571.626625	49391.939890
571.981782	49435.109811
572.336884	49136.620572
572.691931	49466.372527
573.046923	49051.727541
573.401860	48904.092309
573.756743	48896.679293
574.111570	49023.038334
574.466342	48859.289054
574.821059	48969.508842
575.175722	48485.071602
575.530330	48500.069034
575.884882	48236.000793
576.239380	48201.957881
576.593823	48172.076442
576.948211	48099.745966
577.302544	47610.456615
577.656823	47627.573853
578.011047	47865.100419
578.365216	47586.201103
578.719330	47373.892909
579.073389	47237.685973
579.427394	47305.978484
579.781344	47275.396325
580.135239	46941.664378
580.489080	47020.354269
580.842866	46501.218767
581.196597	46945.598999
581.550273	46894.126298
581.903895	46764.424971
582.257463	47185.227726
582.610975	46555.040646
582.964434	46825.412850
583.317837	46478.538616
583.671186	46311.315981
584.024481	46551.852116
584.377721	46080.426093
584.730906	46380.780560
585.084037	46397.865031
585.437113	46121.992928
585.790135	46157.863258
586.143103	45756.811743
586.496016	45885.585497
586.848874	45908.248004
587.201679	45925.052691
587.554428	45397.659778
587.907124	45582.954950
588.259765	45335.361199
588.612352	45593.039778
588.964884	44977.832486
589.317362	45271.772084
589.669786	45228.145939
590.022155	44984.340616
590.374470	45419.215752
590.726731	44931.118634
591.078937	44444.506135
591.431090	44540.741762
591.783188	44204.862284
592.135232	43861.932753
592.487222	44116.107730
592.839157	44214.669849
593.191038	43865.940470
593.542866	43630.649656
593.894639	43022.825133
594.246358	43308.156962
594.598022	43296.794201
594.949633	42879.825243
595.301190	42826.716687
595.652692	42645.451918
596.004141	42988.215092
596.355535	41988.455982
596.706876	41944.434106
597.058162	41766.645212
597.409395	42270.488375
597.760573	42336.714013
598.111698	41904.399782
598.462768	41930.762496
598.813785	41975.754794
599.164748	41386.595144
599.515657	41780.929322
599.866511	41239.322876
600.217312	41880.164435
600.568060	40829.129229
600.918753	41576.417272
601.269392	41536.188864
601.619978	41182.682992
601.970510	41413.008270
602.320988	41586.383633
602.671412	41892.636250
603.021783	41632.379121
603.372100	41283.455657
603.722363	41408.420820
604.072572	41485.512665
604.422728	41490.914262
604.772830	41306.123206
605.122878	41392.324416
605.472872	41323.686586
605.822813	41620.497121
606.172701	41441.417693
606.522534	41687.794004
606.872314	41958.987917
607.222041	41691.663090
607.571714	42092.172681
607.921333	41509.863959
608.270899	41815.428458
608.620411	42169.123374
608.969870	41964.704585
609.319276	41946.480814
609.668627	41996.627692
610.017926	42500.838858
610.367171	42683.452136
610.716362	42759.560956
611.065500	42682.441385
611.414585	42874.234603
611.763616	43174.147969
612.112594	43095.695012
612.461518	43323.824868
612.810389	43600.972383
613.159207	43468.415242
613.507971	43549.653437
613.856682	44035.686202
614.205340	43905.430349
614.553945	44625.909536
614.902496	44046.756576
615.250994	44523.296849
615.599439	44587.092651
615.947830	44805.402339
616.296169	44853.941089
616.644454	44970.210261
616.992686	45146.741387
617.340864	45659.436815
617.688990	45362.114602
618.037063	45983.696433
618.385082	45933.199195
618.733048	46231.670791
619.080961	46251.492608
619.428821	46263.603980
619.776628	46374.905095
620.124382	46211.319653
620.472083	46352.900459
620.819731	46486.422980
621.167326	46155.090623
621.514868	46115.678882
621.862357	45695.274378
622.209793	45718.400671
622.557176	45404.735038
622.904506	45142.456406
623.251783	44791.952541
623.599007	44583.311786
623.946179	44343.133573
624.293297	44299.890555
624.640363	43690.639386
624.987376	43676.672870
625.334336	43406.638423
625.681243	43031.861402
626.028097	42990.342459
626.374899	42836.894777
626.721647	42782.089873
627.068343	42673.798326
627.414987	42432.727829
627.761577	42190.293699
628.108115	42526.636963
628.454600	41955.726290
628.801032	42147.373315
629.147412	42101.907149
629.493739	42091.482043
629.840014	41710.910215
630.186236	42035.550441
630.532405	41660.544047
630.878521	41848.836185
631.224585	41726.242885
631.570597	41444.523043
631.916556	41611.564197
632.262462	41536.234235
632.608316	41557.694427
632.954117	41444.177724
633.299866	41442.640172
633.645562	41350.470236
633.991206	40843.022649
634.336797	40408.888562
634.682336	40415.041290
635.027823	40171.268734
