Dividing Wavelength (nm)	Counts (n)	Blue Motor Position (mm): 0.000000	Red Motor Position (mm): 40.800000	
326.493990	1993.060502
326.888308	1993.060502
327.282561	1993.060502
327.676750	1970.266925
328.070874	1969.011678
328.464933	1977.458131
328.858929	1989.095635
329.252859	1999.727428
329.646726	2013.862824
330.040528	2030.672551
330.434265	2048.840870
330.827938	2067.097408
331.221547	2088.091293
331.615091	2106.889756
332.008571	2128.145781
332.401986	2147.811323
332.795338	2166.614826
333.188625	2190.519978
333.581847	2209.583101
333.975006	2227.327963
334.368100	2246.486868
334.761129	2261.731317
335.154095	2277.235386
335.546996	2306.106074
335.939833	2350.939576
336.332606	2365.195959
336.725315	2378.890253
337.117960	2389.070863
337.510540	2395.021945
337.903056	2407.483678
338.295508	2411.009965
338.687896	2420.905750
339.080220	2427.187028
339.472480	2432.477718
339.864676	2436.550971
340.256807	2438.305292
340.648875	2438.804367
341.040879	2437.990220
341.432818	2447.044133
341.824694	2446.108998
342.216506	2446.918104
342.608253	2445.511622
342.999937	2441.329985
343.391557	2445.057918
343.783113	2442.882660
344.174605	2439.749583
344.566033	2438.360745
344.957397	2437.914603
345.348697	2436.989551
345.739934	2430.118458
346.131106	2431.860177
346.522215	2433.738007
346.913260	2432.225661
347.304241	2427.862542
347.695159	2425.548653
348.086012	2424.767274
348.476802	2422.181162
348.867528	2420.870462
349.258191	2419.930287
349.648789	2420.557910
350.039324	2420.114289
350.429796	2420.686460
350.820203	2415.650347
351.210548	2418.962385
351.600828	2417.344175
351.991045	2415.746129
352.381198	2414.614390
352.771288	2417.084555
353.161314	2417.593712
353.551276	2417.911304
353.941175	2419.272416
354.331010	2418.327200
354.720782	2415.292425
355.110490	2418.675039
355.500135	2420.615883
355.889717	2419.869793
356.279235	2420.623445
356.668689	2417.850811
357.058080	2421.896337
357.447408	2420.701583
357.836672	2417.765111
358.225873	2420.953641
358.615010	2417.818043
359.004084	2426.125865
359.393095	2424.873138
359.782043	2425.886410
360.170927	2426.251893
360.559748	2427.250042
360.948505	2427.993612
361.337199	2430.544436
361.725830	2434.693306
362.114398	2431.313212
362.502903	2429.427820
362.891344	2433.851433
363.279722	2431.058634
363.668037	2435.993923
364.056289	2433.334715
364.444478	2435.789757
364.832603	2439.517690
365.220665	2440.107505
365.608665	2438.431321
365.996601	2439.159768
366.384474	2440.684717
366.772284	2443.084306
367.160031	2441.183791
367.547715	2444.316868
367.935336	2440.147834
368.322893	2445.909873
368.710388	2445.136056
369.097820	2451.097220
369.485189	2447.066818
369.872495	2451.853393
370.259738	2448.788372
370.646918	2457.494444
371.034035	2456.909671
371.421090	2464.630198
371.808081	2461.159363
372.195010	2468.600106
372.581875	2473.641260
372.968678	2483.446304
373.355418	2488.903353
373.742096	2500.450116
374.128710	2511.764986
374.515262	2525.174455
374.901751	2539.307330
375.288177	2557.014383
375.674540	2575.976683
376.060841	2602.341918
376.447079	2625.753036
376.833254	2650.747077
377.219367	2675.836900
377.605417	2710.104143
377.991404	2743.216962
378.377329	2779.609052
378.763191	2815.580205
379.148991	2866.200951
379.534727	2915.989907
379.920402	2964.962196
380.306013	3013.873992
380.691563	3079.081317
381.077049	3135.237250
381.462474	3195.703370
381.847835	3273.057355
382.233134	3345.707943
382.618371	3406.148858
383.003545	3493.449039
383.388657	3579.289807
383.773706	3673.216585
384.158693	3746.769541
384.543618	3843.562215
384.928480	3924.565996
385.313280	4032.812172
385.698017	4138.550373
386.082692	4264.405300
386.467305	4327.568437
386.851856	4458.169610
387.236344	4615.115852
387.620770	4682.274104
388.005133	4801.076456
388.389435	4955.829797
388.773674	5040.304412
389.157851	5175.344320
389.541965	5309.499507
389.926018	5337.709803
390.310008	5525.061766
390.693936	5647.239170
391.077802	5770.167707
391.461606	5904.055712
391.845348	6023.180698
392.229027	6145.254759
392.612645	6377.062136
392.996200	6497.563357
393.379694	6671.631879
393.763125	6903.635861
394.146494	6999.823597
394.529801	7143.244424
394.913047	7394.853453
395.296230	7394.067033
395.679351	7450.137267
396.062410	7722.649441
396.445408	7618.950386
396.828343	7775.382431
397.211217	7920.129081
397.594028	7795.380688
397.976778	8010.360694
398.359466	8173.522679
398.742092	8149.143659
399.124656	8299.889283
399.507158	8492.244590
399.889598	8510.400306
400.271977	8725.402997
400.654294	8762.140405
401.036549	8964.240263
401.418742	8989.834201
401.800874	9302.209299
402.182944	9382.928255
402.564952	9761.357592
402.946898	9578.945960
403.328783	9638.865115
403.710606	9839.203089
404.092367	10102.227812
404.474067	10471.111724
404.855705	10255.609959
405.237282	10211.809893
405.618797	10653.246092
406.000250	10900.229863
406.381642	11276.551997
406.762972	11221.265663
407.144240	11019.443069
407.525447	11286.533482
407.906593	11218.427493
408.287677	11482.500776
408.668700	11643.699232
409.049661	11620.860284
409.430560	11778.363575
409.811399	11753.901376
410.192176	11917.922878
410.572891	11991.720329
410.953545	12506.976663
411.334138	11961.072634
411.714669	12581.527767
412.095139	11856.244360
412.475547	12383.443188
412.855894	12227.301010
413.236180	12566.484964
413.616405	12229.640105
413.996568	12519.904703
414.376670	12495.248419
414.756711	12364.004499
415.136691	12661.092298
415.516609	12857.835930
415.896466	12913.656627
416.276262	13213.201988
416.655997	13654.723886
417.035670	13692.635883
417.415283	14358.700856
417.794834	14443.170430
418.174324	14195.584241
418.553753	14092.361575
418.933121	14595.743472
419.312428	14402.085026
419.691674	14311.828207
420.070859	14771.722591
420.449983	14424.767698
420.829045	14990.070087
421.208047	14714.674373
421.586988	15194.902250
421.965867	15456.533094
422.344686	15453.435305
422.723444	16038.642690
423.102141	14686.844683
423.480777	15909.821045
423.859352	15400.636780
424.237866	16543.872170
424.616319	16231.302987
424.994712	16917.136844
425.373044	16690.247113
425.751314	17385.036580
426.129524	16485.157851
426.507673	17614.958566
426.885762	17295.094833
427.263789	17510.359664
427.641756	17677.451229
428.019662	17736.316783
428.397508	17778.110469
428.775292	18104.217670
429.153016	18051.030976
429.530679	18149.527561
429.908282	18167.060694
430.285824	17873.663019
430.663305	18600.340305
431.040726	18193.667904
431.418086	18005.302670
431.795385	18675.761008
432.172624	19095.006047
432.549802	18643.232963
432.926920	18828.893618
433.303977	18716.337255
433.680974	18975.618921
434.057910	19267.799157
434.434786	19295.235636
434.811601	19200.275421
435.188355	20270.759399
435.565050	19913.482744
435.941683	19849.802889
436.318257	20747.942420
436.694770	20561.112217
437.071222	21167.525216
437.447614	20221.151925
437.823946	20261.652555
438.200218	20411.687376
438.576429	20175.836993
438.952580	20457.801331
439.328670	20422.646844
439.704700	20836.429793
440.080670	20406.494987
440.456580	21002.591265
440.832429	21192.201664
441.208218	20150.951337
441.583947	20608.083168
441.959616	20715.318592
442.335224	20960.147270
442.710773	21095.855132
443.086261	21638.303450
443.461689	21000.481542
443.837057	21115.553440
444.212365	21781.041201
444.587612	21767.230960
444.962800	21343.395950
445.337927	21778.152620
445.712995	20478.507870
446.088002	22370.795707
446.462949	22577.828334
446.837837	22751.347370
447.212664	22712.906051
447.587431	25605.557937
447.962139	28606.133364
448.336786	31014.945386
448.711374	29423.621995
449.085901	25667.662431
449.460369	25614.821057
449.834776	25538.654263
450.209124	28067.274347
450.583412	27580.339215
450.957640	28115.059445
451.331808	26748.568995
451.705917	25375.424222
452.079965	25405.734160
452.453954	25757.021924
452.827883	25648.720296
453.201752	25454.401459
453.575562	25618.518743
453.949311	26758.547959
454.323001	26832.567221
454.696632	26577.580618
455.070202	28167.094235
455.443713	28290.746177
455.817164	28904.521781
456.190556	29442.642269
456.563888	28878.406083
456.937160	29328.545834
457.310373	27614.984545
457.683526	28101.589482
458.056619	28065.951044
458.429653	28003.556683
458.802628	28588.970756
459.175542	28711.652276
459.548398	30011.612098
459.921194	31623.218571
460.293930	32299.083546
460.666607	34349.214951
461.039224	36139.936141
461.411782	36536.856430
461.784280	35328.620403
462.156719	34857.549782
462.529099	34289.762103
462.901419	32974.346104
463.273680	31905.288773
463.645882	31990.970744
464.018024	31958.208285
464.390106	32820.205263
464.762130	35543.514709
465.134094	39660.912401
465.505999	44992.557696
465.877845	49611.320823
466.249631	50785.725667
466.621358	49105.839286
466.993026	47017.362344
467.364634	44936.457216
467.736184	42936.427318
468.107674	41667.357167
468.479105	40856.636285
468.850477	40165.884782
469.221790	38696.466573
469.593043	36926.615761
469.964238	36036.007713
470.335373	35954.953521
470.706449	37707.815646
471.077467	40316.990848
471.448425	44917.124391
471.819324	47740.649454
472.190164	45893.270736
472.560945	42292.409832
472.931667	39158.546297
473.302330	38039.969711
473.672934	37201.630868
474.043479	37721.031031
474.413965	36910.733605
474.784393	36529.443414
475.154761	37435.288348
475.525070	37445.965512
475.895321	36994.943560
476.265513	37612.522715
476.635645	38581.684542
477.005719	38409.014940
477.375734	38873.947956
477.745691	39586.187378
478.115588	40931.872985
478.485427	42921.313939
478.855207	46318.240006
479.224928	48924.675340
479.594591	50581.009451
479.964194	49598.904462
480.333739	49777.651174
480.703226	49790.773298
481.072653	50434.412697
481.442022	50922.741708
481.811333	51178.111439
482.180584	49884.813502
482.549777	49368.536334
482.918912	48822.178600
483.287988	48541.527483
483.657005	47712.875217
484.025964	47066.833708
484.394864	47099.210518
484.763706	46655.715009
485.132489	45792.674511
485.501213	45618.064066
485.869879	45788.001362
486.238487	45348.851327
486.607036	45569.701756
486.975527	45029.693356
487.343959	45211.696654
487.712333	45299.662268
488.080648	45212.236057
488.448905	45692.557196
488.817104	45498.702145
489.185244	46451.023998
489.553326	48157.222682
489.921350	50866.056454
490.289315	53716.274427
490.657222	54293.925123
491.025070	54576.010448
491.392861	53708.402665
491.760593	52486.547961
492.128267	50827.378201
492.495883	49322.676957
492.863440	47913.596319
493.230939	46567.646051
493.598380	45467.930942
493.965763	45136.651517
494.333088	44316.607021
494.700354	43820.847349
495.067563	43527.820199
495.434713	43390.879776
495.801805	43455.396463
496.168839	43066.605034
496.535815	42727.927716
496.902733	42759.540792
497.269593	42345.843542
497.636395	42275.418623
498.003139	42688.382384
498.369825	42131.150882
498.736453	42458.276397
499.103023	41974.459218
499.469535	41830.181395
499.835989	41944.469394
500.202385	41602.570778
500.568723	41615.886986
500.935003	41800.597383
501.301226	41596.322268
501.667390	42216.651372
502.033497	42488.926612
502.399546	41900.414750
502.765537	41206.142001
503.131470	41602.699327
503.497345	41953.727473
503.863163	40607.504982
504.228923	41212.133413
504.594625	41656.072544
504.960269	40930.075814
505.325856	41625.056845
505.691385	40965.278191
506.056856	41115.834771
506.422270	41554.231154
506.787625	41129.655095
507.152924	41322.176760
507.518164	41410.969123
507.883347	40605.226381
508.248472	40884.163505
508.613540	41370.465973
508.978550	41668.990501
509.343503	41390.078582
509.708398	41612.154012
510.073236	42143.582368
510.438016	42122.298616
510.802738	41587.628798
511.167403	42211.816906
511.532010	42433.874691
511.896561	42740.752411
512.261053	43608.292138
512.625488	43121.208292
512.989866	43016.556459
513.354186	42857.966800
513.718449	42831.467975
514.082655	43512.767314
514.446803	43168.542206
514.810894	43691.186352
515.174927	43619.841422
515.538904	43513.629351
515.902822	44202.195514
516.266684	43630.775684
516.630488	44043.061411
516.994235	43917.110702
517.357925	44501.829096
517.721558	44653.754349
518.085133	44967.286392
518.448651	45105.469460
518.812112	44858.979722
519.175516	44967.891331
519.538863	45305.603268
519.902152	45239.677578
520.265385	45713.142748
520.628560	45751.644560
520.991678	45551.924127
521.354739	45767.466222
521.717743	46090.815912
522.080690	45988.394789
522.443580	46534.538273
522.806413	46563.615648
523.169189	46518.830038
523.531908	46702.161680
523.894569	46557.740184
524.257174	46716.473515
524.619722	47042.535346
524.982213	47011.953186
525.344647	46925.310875
525.707025	46963.986607
526.069345	47345.944752
526.431608	47272.046478
526.793815	47592.121938
527.155964	47133.669325
527.518057	47277.710214
527.880093	47053.353662
528.242072	47561.812001
528.603995	47276.848177
528.965860	47283.479815
529.327669	47367.180613
529.689421	47253.121986
530.051117	47219.401708
530.412755	47352.863736
530.774337	47422.396371
531.135862	47215.900627
531.497331	47414.335566
531.858743	47306.936304
532.220098	47661.921755
532.581396	47369.444091
532.942638	47028.873819
533.303824	47326.027153
533.664953	47280.802962
534.026025	46975.583782
534.387040	47465.150397
534.747999	47406.902384
535.108902	47579.778673
535.469748	47084.878518
535.830537	47189.580763
536.191270	47375.168321
536.551947	47025.123201
536.912567	47348.919033
537.273131	47468.737178
537.633638	46934.021989
537.994089	47291.603634
538.354483	46862.465331
538.714821	47437.512271
539.075103	47779.297460
539.435328	47537.339720
539.795497	47417.876976
540.155609	47415.036286
540.515665	47874.179537
540.875665	47318.495669
541.235609	47660.084254
541.595496	47602.443701
541.955328	48282.800345
542.315102	47643.856780
542.674821	47433.411292
543.034483	47476.248497
543.394090	47437.088814
543.753640	47384.549908
544.113134	48388.709946
544.472571	47406.524298
544.831953	48663.752779
545.191278	47852.830251
545.550548	47561.655725
545.909761	48043.368222
546.268918	48245.190816
546.628019	48552.648269
546.987064	48095.670193
547.346053	47364.130715
547.704986	48249.574100
548.063863	47790.347669
548.422684	47993.402826
548.781449	47847.027883
549.140158	48241.611597
549.498811	48090.014019
549.857408	47507.039864
550.215949	48340.304787
550.574434	48290.924164
550.932864	48031.042601
551.291237	48744.217156
551.649555	48352.879945
552.007817	48589.219319
552.366022	48232.550123
552.724173	48401.448942
553.082267	48795.026946
553.440305	49093.695147
553.798288	48400.551616
554.156215	48714.411334
554.514086	48917.196789
554.871902	48668.514149
555.229661	48682.531077
555.587365	48476.990632
555.945014	48586.187065
556.302606	48488.333228
556.660143	48725.585052
557.017625	48797.492070
557.375050	48578.209439
557.732421	48927.717677
558.089735	48903.147093
558.446994	48815.539401
558.804197	49289.463315
559.161345	49209.651767
559.518437	48454.512127
559.875474	48754.536398
560.232455	48878.931910
560.589381	49072.605479
560.946251	48759.615361
561.303065	49439.185584
561.659825	49230.108770
562.016528	48875.990397
562.373177	48584.425182
562.729770	49065.822607
563.086307	48550.530984
563.442789	49009.676756
563.799216	49052.120751
564.155587	48810.707455
564.511904	48832.467595
564.868164	48901.168440
565.224370	49123.697574
565.580520	48843.621148
565.936615	49040.453000
566.292654	48749.265872
566.648638	48966.680755
567.004567	48919.228374
567.360441	48927.170712
567.716260	48763.081154
568.072023	49013.228249
568.427732	48975.724585
568.783385	48505.531124
569.138982	48867.186022
569.494525	48812.688628
569.850013	48565.730063
570.205445	48499.864868
570.560823	48427.935164
570.916145	48294.810894
571.271412	48283.390160
571.626625	47995.953650
571.981782	48025.083957
572.336884	47678.055967
572.691931	47995.762086
573.046923	47524.787247
573.401860	47367.581384
573.756743	47312.693301
574.111570	47370.074235
574.466342	47200.041157
574.821059	47271.439019
575.175722	46769.932431
575.530330	46737.270796
575.884882	46415.393123
576.239380	46358.977570
576.593823	46286.057279
576.948211	46157.545665
577.302544	45640.787067
577.656823	45614.288241
578.011047	45794.464121
578.365216	45466.093442
578.719330	45231.941928
579.073389	45024.906781
579.427394	45056.960957
579.781344	44984.958157
580.135239	44585.585346
580.489080	44614.277073
580.842866	44037.385071
581.196597	44418.367753
581.550273	44304.813242
581.903895	44105.856543
582.257463	44455.256396
582.610975	43780.870999
582.964434	43978.615300
583.317837	43562.957042
583.671186	43350.321173
584.024481	43497.328780
584.377721	42997.982327
584.730906	43213.973084
585.084037	43172.575129
585.437113	42816.324348
585.790135	42785.429637
586.143103	42343.391021
586.496016	42387.246539
586.848874	42344.003521
587.201679	42281.243676
587.554428	41704.823022
587.907124	41813.815289
588.259765	41471.445325
588.612352	41652.112718
588.964884	41008.125478
589.317362	41191.643643
589.669786	41057.120452
590.022155	40771.327359
590.374470	41095.420619
590.726731	40570.860835
591.078937	40034.222446
591.431090	40047.137882
591.783188	39672.754071
592.135232	39293.583685
592.487222	39437.803535
592.839157	39422.763252
593.191038	39039.396105
593.542866	38746.353832
593.894639	38107.145607
594.246358	38284.357288
594.598022	38189.107206
594.949633	37751.381297
595.301190	37626.645507
595.652692	37380.352374
596.004141	37602.064841
596.355535	36631.085678
596.706876	36505.074476
597.058162	36273.826667
597.409395	36618.079501
597.760573	36608.445856
598.111698	36140.931769
598.462768	36070.499288
598.813785	36032.849431
599.164748	35444.932425
599.515657	35685.148447
599.866511	35143.468904
600.217312	35596.116629
600.568060	34579.003347
600.918753	35147.401004
601.269392	35014.579203
601.619978	34625.339112
601.970510	34714.670879
602.320988	34779.285868
602.671412	34949.659224
603.021783	34624.048577
603.372100	34245.054631
603.722363	34252.117287
604.072572	34213.965835
604.422728	34140.879186
604.772830	33882.083992
605.122878	33863.124212
605.472872	33702.354254
605.822813	33841.785008
606.172701	33585.558282
606.522534	33691.838407
606.872314	33813.189063
607.222041	33489.327696
607.571714	33704.771488
607.921333	33124.655668
608.270899	33264.739251
608.620411	33459.176555
608.969870	33173.096115
609.319276	33064.038313
609.668627	33002.904241
610.017926	33287.215235
610.367171	33310.147444
610.716362	33239.813266
611.065500	33097.070474
611.414585	33115.866416
611.763616	33219.777200
612.112594	33061.933632
612.461518	33108.718060
612.810389	33224.704927
613.159207	32982.943792
613.507971	32922.822991
613.856682	33176.433359
614.205340	32955.484627
614.553945	33382.215779
614.902496	32823.184585
615.250994	33049.499626
615.599439	32983.500839
615.947830	32999.267048
616.296169	32900.576379
616.644454	32866.931718
616.992686	32852.929914
617.340864	33099.825464
617.688990	32738.026894
618.037063	33068.557708
618.385082	32876.358676
618.733048	32971.215547
619.080961	32833.685309
619.428821	32717.917731
619.776628	32668.239681
620.124382	32425.301436
620.472083	32390.731723
620.819731	32370.060472
621.167326	32020.464014
621.514868	31885.073746
621.862357	31457.515844
622.209793	31359.341893
622.557176	31014.680725
622.904506	30735.756204
623.251783	30383.699663
623.599007	30117.864497
623.946179	29835.910242
624.293297	29691.854230
624.640363	29157.743980
624.987376	29039.891885
625.334336	28738.123375
625.681243	28379.087357
626.028097	28222.650271
626.374899	28002.298915
626.721647	27859.966978
627.068343	27647.147106
627.414987	27371.305250
627.761577	27095.203775
628.108115	27191.394031
628.454600	26703.238940
628.801032	26697.741561
629.147412	26549.937451
629.493739	26423.550683
629.840014	26070.710243
630.186236	26159.492524
630.532405	25789.078622
630.878521	25786.351358
631.224585	25591.135195
631.570597	25290.778208
631.916556	25265.010350
632.262462	25115.398986
632.608316	25002.187274
632.954117	24828.726211
633.299866	24714.629776
633.645562	24555.742689
633.991206	24141.206088
634.336797	23795.791268
634.682336	23688.356717
635.027823	23436.563686
