Dividing Wavelength (nm)	Counts (n)	Blue Motor Position (mm): 0.000000	Red Motor Position (mm): 34.800000	
326.493990	1990.015645
326.888308	1990.015645
327.282561	1990.015645
327.676750	1965.997068
328.070874	1967.385906
328.464933	1975.164406
328.858929	1984.545993
329.252859	1996.211223
329.646726	2009.497184
330.040528	2022.957065
330.434265	2044.170241
330.827938	2064.536502
331.221547	2083.148442
331.615091	2104.117122
332.008571	2122.809720
332.401986	2143.886784
332.795338	2165.548622
333.188625	2185.206602
333.581847	2204.378110
333.975006	2224.078939
334.368100	2240.523183
334.761129	2256.712848
335.154095	2271.659870
335.546996	2295.897737
335.939833	2333.529951
336.332606	2351.317662
336.725315	2360.220340
337.117960	2370.083357
337.510540	2375.636188
337.903056	2388.528939
338.295508	2393.290309
338.687896	2400.221896
339.080220	2408.065931
339.472480	2411.360325
339.864676	2415.473907
340.256807	2419.277457
340.648875	2417.276119
341.040879	2420.068918
341.432818	2424.845412
341.824694	2424.076636
342.216506	2425.407500
342.608253	2424.661409
342.999937	2423.191913
343.391557	2423.638055
343.783113	2418.354926
344.174605	2419.650503
344.566033	2418.725451
344.957397	2417.427354
345.348697	2414.523649
345.739934	2413.780079
346.131106	2409.681621
346.522215	2411.060376
346.913260	2407.350087
347.304241	2408.930489
347.695159	2407.299676
348.086012	2404.088461
348.476802	2403.589386
348.867528	2401.857750
349.258191	2400.221896
349.648789	2400.237019
350.039324	2396.834240
350.429796	2400.113511
350.820203	2397.315670
351.210548	2398.583521
351.600828	2395.881462
351.991045	2397.542522
352.381198	2396.277193
352.771288	2398.578479
353.161314	2396.370454
353.551276	2396.740979
353.941175	2395.173180
354.331010	2398.429765
354.720782	2391.460370
355.110490	2395.979765
355.500135	2398.326422
355.889717	2396.524209
356.279235	2398.500342
356.668689	2398.394477
357.058080	2398.467574
357.447408	2394.883314
357.836672	2395.798283
358.225873	2400.063099
358.615010	2395.800804
359.004084	2402.006464
359.393095	2404.602658
359.782043	2403.460837
360.170927	2407.108112
360.559748	2406.586352
360.948505	2407.410581
361.337199	2407.801270
361.725830	2408.837227
362.114398	2413.165058
362.502903	2408.580129
362.891344	2412.234965
363.279722	2409.805129
363.668037	2413.452404
364.056289	2411.952661
364.444478	2415.940213
364.832603	2415.766293
365.220665	2416.318300
365.608665	2417.195461
365.996601	2418.123033
366.384474	2419.290060
366.772284	2421.278795
367.160031	2420.308373
367.547715	2421.314083
367.935336	2423.895154
368.322893	2422.675195
368.710388	2425.778025
369.097820	2430.650300
369.485189	2425.039496
369.872495	2430.826741
370.259738	2431.043510
370.646918	2433.402770
371.034035	2435.802359
371.421090	2440.624223
371.808081	2440.440221
372.195010	2447.518001
372.581875	2452.843980
372.968678	2460.057871
373.355418	2466.686988
373.742096	2477.132259
374.128710	2490.037613
374.515262	2497.984992
374.901751	2515.129956
375.288177	2536.149047
375.674540	2555.232335
376.060841	2574.983576
376.447079	2598.825713
376.833254	2625.122892
377.219367	2649.441418
377.605417	2686.047757
377.991404	2712.846531
378.377329	2754.806575
378.763191	2789.638427
379.148991	2839.001406
379.534727	2891.021072
379.920402	2937.639143
380.306013	2988.033037
380.691563	3050.029147
381.077049	3109.610544
381.462474	3166.079029
381.847835	3245.310844
382.233134	3314.588901
382.618371	3374.114845
383.003545	3464.328814
383.388657	3548.783264
383.773706	3640.877583
384.158693	3716.424315
384.543618	3813.441321
384.928480	3889.960995
385.313280	4001.254548
385.698017	4105.803038
386.082692	4234.312132
386.467305	4296.088952
386.851856	4422.538734
387.236344	4581.133434
387.620770	4649.128517
388.005133	4768.939100
388.389435	4920.773613
388.773674	5007.191593
389.157851	5146.947501
389.541965	5277.369713
389.926018	5303.946676
390.310008	5489.057845
390.693936	5612.689622
391.077802	5729.021809
391.461606	5865.558940
391.845348	5981.659234
392.229027	6105.583398
392.612645	6334.348439
392.996200	6451.610719
393.379694	6629.505477
393.763125	6860.818821
394.146494	6953.132430
394.529801	7095.635767
394.913047	7348.099272
395.296230	7343.317738
395.679351	7401.069196
396.062410	7672.583222
396.445408	7569.320226
396.828343	7722.747744
397.211217	7864.376440
397.594028	7740.603511
397.976778	7951.144780
398.359466	8120.162066
398.742092	8096.468643
399.124656	8242.767969
399.507158	8439.057897
399.889598	8458.947769
400.271977	8673.630347
400.654294	8705.515645
401.036549	8906.466119
401.418742	8934.613402
401.800874	9240.243436
402.182944	9325.597732
402.564952	9696.107417
402.946898	9509.814097
403.328783	9579.863450
403.710606	9769.856977
404.092367	10036.589468
404.474067	10416.828579
404.855705	10190.483292
405.237282	10142.199121
405.618797	10590.811401
406.000250	10845.432520
406.381642	11205.585154
406.762972	11159.766107
407.144240	10951.246340
407.525447	11212.395753
407.906593	11152.527010
408.287677	11409.799776
408.668700	11575.719272
409.049661	11544.280116
409.430560	11704.500588
409.811399	11678.344562
410.192176	11844.259017
410.572891	11918.805080
410.953545	12411.918146
411.334138	11887.595296
411.714669	12497.398471
412.095139	11787.414966
412.475547	12304.473513
412.855894	12139.781538
413.236180	12473.309317
413.616405	12159.179898
413.996568	12450.079681
414.376670	12409.185841
414.756711	12290.796863
415.136691	12575.506109
415.516609	12759.956887
415.896466	12836.239627
416.276262	13131.237868
416.655997	13569.450248
417.035670	13609.902987
417.415283	14267.786167
417.794834	14361.959962
418.174324	14109.995531
418.553753	14000.680630
418.933121	14507.518238
419.312428	14306.734122
419.691674	14224.686822
420.070859	14676.497715
420.449983	14337.122197
420.829045	14900.405604
421.208047	14631.245798
421.586988	15103.831285
421.965867	15358.049112
422.344686	15358.631365
422.723444	15926.572799
423.102141	14585.562861
423.480777	15802.532688
423.859352	15304.789322
424.237866	16436.641786
424.616319	16133.809592
424.994712	16806.541491
425.373044	16587.047132
425.751314	17277.082791
426.129524	16392.990435
426.507673	17501.893047
426.885762	17190.858895
427.263789	17400.974188
427.641756	17569.225218
428.019662	17627.944578
428.397508	17669.133325
428.775292	17988.964290
429.153016	17935.989325
429.530679	18022.566101
429.908282	18053.123055
430.285824	17755.516017
430.663305	18473.860276
431.040726	18073.035613
431.418086	17898.546155
431.795385	18554.246515
432.172624	18968.946954
432.549802	18533.013175
432.926920	18711.495227
433.303977	18597.388709
433.680974	18858.449902
434.057910	19153.223812
434.434786	19180.163738
434.811601	19091.023535
435.188355	20145.206942
435.565050	19781.366705
435.941683	19742.638040
436.318257	20620.746546
436.694770	20439.423804
437.071222	21037.337418
437.447614	20087.591595
437.823946	20131.915940
438.200218	20280.667787
438.576429	20046.153310
438.952580	20322.761422
439.328670	20296.028183
439.704700	20720.899150
440.080670	20275.248547
440.456580	20881.031402
440.832429	21066.802962
441.208218	20026.870897
441.583947	20476.748507
441.959616	20594.494738
442.335224	20825.936631
442.710773	20964.361675
443.086261	21510.986589
443.461689	20863.435254
443.837057	20985.668112
444.212365	21642.480046
444.587612	21640.088019
444.962800	21203.778674
445.337927	21644.093215
445.712995	20358.268789
446.088002	22240.065985
446.462949	22427.284356
446.837837	22609.398560
447.212664	22565.406931
447.587431	25455.160153
447.962139	28413.367203
448.336786	30817.309470
448.711374	29243.836805
449.085901	25517.312538
449.460369	25465.968387
449.834776	25377.276846
450.209124	27897.279078
450.583412	27424.837263
450.957640	27946.440410
451.331808	26585.986742
451.705917	25201.572470
452.079965	25240.117133
452.453954	25613.840552
452.827883	25480.993546
453.201752	25291.665451
453.575562	25454.111593
453.949311	26589.737361
454.323001	26649.830435
454.696632	26419.353922
455.070202	27973.960069
455.443713	28109.120965
455.817164	28718.508245
456.190556	29243.594830
456.563888	28701.993425
456.937160	29130.667943
457.310373	27443.257639
457.683526	27911.185101
458.056619	27891.091062
458.429653	27823.274939
458.802628	28407.237160
459.175542	28514.495270
459.548398	29825.656535
459.921194	31414.913053
460.293930	32093.477566
460.666607	34134.832322
461.039224	35902.855717
461.411782	36303.075441
461.784280	35113.143843
462.156719	34640.341586
462.529099	34071.008794
462.901419	32776.208593
463.273680	31716.805071
463.645882	31795.527730
464.018024	31757.197317
464.390106	32599.654783
464.762130	35313.108772
465.134094	39401.013194
465.505999	44709.504470
465.877845	49315.024486
466.249631	50504.131855
466.621358	48838.476651
466.993026	46742.574089
467.364634	44667.133572
467.736184	42672.348995
468.107674	41407.243711
468.479105	40604.084559
468.850477	39908.987582
469.221790	38465.369999
469.593043	36703.953036
469.964238	35809.342313
470.335373	35725.449951
470.706449	37464.801783
471.077467	40057.232793
471.448425	44639.089633
471.819324	47459.736197
472.190164	45620.110774
472.560945	42037.297201
472.931667	38917.133001
473.302330	37794.715056
473.672934	36974.796588
474.043479	37485.384815
474.413965	36674.764756
474.784393	36285.832175
475.154761	37192.987809
475.525070	37230.713284
475.895321	36749.416682
476.265513	37343.511622
476.635645	38335.172118
477.005719	38163.246087
477.375734	38616.314748
477.745691	39323.346657
478.115588	40669.092759
478.485427	42634.900783
478.855207	46006.792480
479.224928	48623.383219
479.594591	50280.717999
479.964194	49279.018044
480.333739	49455.302153
480.703226	49479.003138
481.072653	50121.329317
481.442022	50582.960378
481.811333	50858.182172
482.180584	49555.893337
482.549777	49038.244975
482.918912	48497.603910
483.287988	48215.011949
483.657005	47367.593987
484.025964	46718.787405
484.394864	46760.124867
484.763706	46300.606049
485.132489	45444.371110
485.501213	45264.608605
485.869879	45424.498881
486.238487	44997.949210
486.607036	45193.062029
486.975527	44639.407225
487.343959	44849.184760
487.712333	44917.149597
488.080648	44832.354868
488.448905	45286.058714
488.817104	45105.446775
489.185244	46058.189564
489.553326	47735.762056
489.921350	50441.840837
490.289315	53294.579387
490.657222	53874.181010
491.025070	54170.099261
491.392861	53286.090084
491.760593	52046.845919
492.128267	50386.856972
492.495883	48859.054641
492.863440	47443.934701
493.230939	46106.637573
493.598380	45003.481877
493.965763	44673.666907
494.333088	43840.225544
494.700354	43354.459960
495.067563	43054.304619
495.434713	42902.311310
495.801805	42978.876354
496.168839	42588.935543
496.535815	42263.967642
496.902733	42278.110599
497.269593	41866.472661
497.636395	41789.910137
498.003139	42178.441947
498.369825	41626.148255
498.736453	41935.007148
499.103023	41460.579118
499.469535	41317.533857
499.835989	41428.356063
500.202385	41076.644841
500.568723	41096.499426
500.935003	41267.016455
501.301226	41051.645759
501.667390	41667.301714
502.033497	41932.602517
502.399546	41359.466175
502.765537	40669.997646
503.131470	41046.266848
503.497345	41377.929401
503.863163	40027.000993
504.228923	40650.251446
504.594625	41039.572196
504.960269	40315.236526
505.325856	41005.254541
505.691385	40350.270025
506.056856	40478.065795
506.422270	40922.874526
506.787625	40479.696609
507.152924	40656.217652
507.518164	40743.759809
507.883347	39945.750196
508.248472	40196.512312
508.613540	40637.462039
508.978550	40927.220000
509.343503	40650.866467
509.708398	40839.060302
510.073236	41363.718388
510.438016	41325.889570
510.802738	40771.655034
511.167403	41371.428833
511.532010	41561.855899
511.896561	41859.480581
512.261053	42658.957169
512.625488	42188.332690
512.989866	42045.186606
513.354186	41852.995137
513.718449	41814.944507
514.082655	42461.543064
514.446803	42116.418110
514.810894	42592.970986
515.174927	42465.805360
515.538904	42345.397400
515.902822	42972.330416
516.266684	42389.457085
516.630488	42793.341728
516.994235	42599.895011
517.357925	43130.841937
517.721558	43250.213939
518.085133	43497.893390
518.448651	43586.605094
518.812112	43311.325327
519.175516	43363.821382
519.538863	43628.897855
519.902152	43554.470259
520.265385	43952.068584
520.628560	43925.773925
520.991678	43656.145291
521.354739	43845.317110
521.717743	44091.635448
522.080690	43925.400880
522.443580	44390.548145
522.806413	44363.298188
523.169189	44243.396864
523.531908	44358.665368
523.894569	44142.775434
524.257174	44244.518521
524.619722	44453.118947
524.982213	44363.071336
525.344647	44192.012383
525.707025	44160.671530
526.069345	44461.789731
526.431608	44301.879290
526.793815	44509.791598
527.155964	43970.710771
527.518057	44040.097212
527.880093	43734.091612
528.242072	44141.144620
528.603995	43760.151857
528.965860	43691.680385
529.327669	43681.940875
529.689421	43478.951254
530.051117	43342.134339
530.412755	43363.143347
530.774337	43325.012060
531.135862	43047.436047
531.497331	43134.771516
531.858743	42917.023917
532.220098	43139.540448
532.581396	42773.159469
532.942638	42327.949967
533.303824	42497.010102
533.664953	42337.192922
534.026025	41963.953453
534.387040	42298.330667
534.747999	42131.634833
535.108902	42148.996567
535.469748	41599.057094
535.830537	41585.594693
536.191270	41624.719088
536.551947	41200.301825
536.912567	41342.764832
537.273131	41321.828920
537.633638	40738.557338
537.994089	40923.353435
538.354483	40433.350761
538.714821	40804.956896
539.075103	40981.407363
539.435328	40632.519187
539.795497	40395.015306
540.155609	40256.882650
540.515665	40507.848932
540.875665	39902.991129
541.235609	40039.248477
541.595496	39898.794369
541.955328	40332.658754
542.315102	39650.149537
542.674821	39300.250611
543.034483	39189.539311
543.394090	39000.811113
543.753640	38825.194957
544.113134	39534.298781
544.472571	38532.165287
544.831953	39444.515831
545.191278	38628.413517
545.550548	38219.291115
545.909761	38453.062022
546.268918	38471.495001
546.628019	38558.709483
546.987064	38028.664923
547.346053	37270.331712
547.704986	37824.296547
548.063863	37282.110368
548.422684	37286.060112
548.781449	37009.719182
549.140158	37145.255644
549.498811	36860.687551
549.857408	36236.418785
550.215949	36721.612198
550.574434	36495.067786
550.932864	36136.878681
551.291237	36507.025402
551.649555	36026.527824
552.007817	36036.587446
552.366022	35586.946770
552.724173	35544.752312
553.082267	35671.824677
553.440305	35711.569134
553.798288	34988.768496
554.156215	35042.444181
554.514086	35008.144171
554.871902	34640.326463
555.229661	34456.233606
555.587365	34123.608193
555.945014	34015.125083
556.302606	33750.207407
556.660143	33731.643358
557.017625	33594.655044
557.375050	33239.508276
557.732421	33286.403609
558.089735	33083.116560
558.446994	32833.332428
558.804197	32967.268324
559.161345	32718.444532
559.518437	31986.857162
559.875474	31992.974603
560.232455	31896.683523
560.589381	31820.909939
560.946251	31404.190518
561.303065	31682.200071
561.659825	31324.545329
562.016528	30910.543090
562.373177	30520.297288
562.729770	30616.477463
563.086307	30113.181265
563.442789	30187.654231
563.799216	30017.069147
564.155587	29656.051955
564.511904	29470.630755
564.868164	29329.980042
565.224370	29261.281718
565.580520	28873.001967
565.936615	28791.181519
566.292654	28406.770853
566.648638	28326.636672
567.004567	28102.995963
567.360441	27907.056396
567.716260	27597.373274
568.072023	27556.224856
568.427732	27324.664495
568.783385	26857.793155
569.138982	26859.552517
569.494525	26628.355120
569.850013	26287.013552
570.205445	26052.695680
570.560823	25821.805793
570.916145	25538.044284
571.271412	25351.279616
571.626625	25018.182855
571.981782	24827.201262
572.336884	24452.439365
572.691931	24419.278655
573.046923	23996.328368
573.401860	23713.471746
573.756743	23503.406865
574.111570	23350.548998
574.466342	23067.039547
574.821059	22916.084716
575.175722	22475.137509
575.530330	22283.770268
575.884882	21951.787602
576.239380	21733.188048
576.593823	21522.140142
576.948211	21272.413983
577.302544	20868.501614
577.656823	20677.709064
578.011047	20585.914694
578.365216	20267.444841
578.719330	19979.408433
579.073389	19718.342199
579.427394	19573.255271
579.781344	19357.037662
580.135239	19035.006234
580.489080	18879.736175
580.842866	18479.569382
581.196597	18476.741295
581.550273	18263.228265
581.903895	18006.716713
582.257463	17994.766658
582.610975	17568.045588
582.964434	17479.560735
583.317837	17170.366605
583.671186	16931.118485
584.024481	16827.595870
584.377721	16493.579098
584.730906	16416.242757
585.084037	16244.319246
585.437113	15984.861140
585.790135	15820.920297
586.143103	15530.489341
586.496016	15392.986829
586.848874	15234.971862
587.201679	15075.699126
587.554428	14750.380866
587.907124	14641.333146
588.259765	14411.149021
588.612352	14334.178163
588.964884	13997.749199
589.317362	13915.974122
589.669786	13762.549126
590.022155	13543.059808
590.374470	13493.396881
590.726731	13217.015621
591.078937	12936.266202
591.431090	12804.059421
591.783188	12570.154924
592.135232	12333.971825
592.487222	12247.616860
592.839157	12138.851445
593.191038	11924.849423
593.542866	11728.161244
593.894639	11449.904675
594.246358	11381.788604
594.598022	11239.968344
594.949633	11034.614421
595.301190	10889.250230
595.652692	10728.223173
596.004141	10668.135140
596.355535	10343.706643
596.706876	10206.693122
597.058162	10055.143435
597.409395	10026.610504
597.760573	9926.805740
598.111698	9725.693949
598.462768	9611.383265
598.813785	9506.668417
599.164748	9294.289647
599.515657	9253.990663
599.866511	9052.997338
600.217312	9047.605824
600.568060	8773.803115
600.918753	8780.144886
601.269392	8675.931633
601.619978	8517.883899
601.970510	8449.661964
602.320988	8378.188484
602.671412	8327.179569
603.021783	8189.669495
603.372100	8036.181484
603.722363	7959.016542
604.072572	7873.470682
604.422728	7786.306611
604.772830	7664.850092
605.122878	7582.175169
605.472872	7487.724110
605.822813	7432.803260
606.172701	7330.233423
606.522534	7270.440297
606.872314	7218.823923
607.222041	7103.434432
607.571714	7072.267498
607.921333	6925.199397
608.270899	6879.266923
608.620411	6839.797209
608.969870	6746.934114
609.319276	6662.101577
609.668627	6597.479026
610.017926	6579.343475
610.367171	6520.069588
610.716362	6458.590197
611.065500	6385.478342
611.414585	6329.277039
611.763616	6290.601306
612.112594	6219.185800
612.461518	6171.884654
612.810389	6133.332430
613.159207	6055.973403
613.507971	5997.619527
613.856682	5980.824923
614.205340	5912.507206
614.553945	5911.693060
614.902496	5804.734899
615.250994	5776.547287
615.599439	5729.127673
615.947830	5689.151323
616.296169	5640.267254
616.644454	5598.206387
616.992686	5557.032763
617.340864	5544.170259
617.688990	5476.157532
618.037063	5471.358354
618.385082	5415.429272
618.733048	5387.584459
619.080961	5345.397563
619.428821	5296.001817
619.776628	5253.855250
620.124382	5199.942631
620.472083	5155.028470
620.819731	5107.944093
621.167326	5040.753074
621.514868	4988.562009
621.862357	4921.421401
622.209793	4873.016242
622.557176	4802.850942
622.904506	4746.886573
623.251783	4681.649001
623.599007	4625.445177
623.946179	4570.746137
624.293297	4531.415054
624.640363	4462.772183
624.987376	4424.250206
625.334336	4377.377557
625.681243	4323.923683
626.028097	4289.835400
626.374899	4252.092282
626.721647	4218.722364
627.068343	4182.199204
627.414987	4145.756703
627.761577	4107.524592
628.108115	4092.254937
628.454600	4041.498080
628.801032	4023.339843
629.147412	3995.091738
629.493739	3972.025938
629.840014	3931.280812
630.186236	3919.860078
630.532405	3885.378586
630.878521	3867.548025
631.224585	3843.126155
631.570597	3817.330571
631.916556	3799.641162
632.262462	3778.929582
632.608316	3755.352105
632.954117	3735.137078
633.299866	3711.100857
633.645562	3689.159234
633.991206	3652.867968
634.336797	3615.608800
634.682336	3595.852518
635.027823	3565.323290
635.373257	3541.546688
635.718639	3513.800177
636.063968	3491.803103
636.409245	3455.360601
