Dividing Wavelength (nm)	Counts (n)	Blue Motor Position (mm): 0.000000	Red Motor Position (mm): 7.600000	
326.493990	1977.364870
326.888308	1977.364870
327.282561	1977.364870
327.676750	1948.531990
328.070874	1955.438371
328.464933	1960.724021
328.858929	1968.338684
329.252859	1979.479634
329.646726	1998.389002
330.040528	2011.543893
330.434265	2032.734383
330.827938	2049.350026
331.221547	2068.584549
331.615091	2090.069946
332.008571	2111.825046
332.401986	2131.427573
332.795338	2150.273926
333.188625	2170.894766
333.581847	2191.240863
333.975006	2208.607638
334.368100	2227.416183
334.761129	2242.675756
335.154095	2258.207551
335.546996	2273.164654
335.939833	2286.183434
336.332606	2297.347069
336.725315	2309.365180
337.117960	2318.774493
337.510540	2324.854125
337.903056	2334.775116
338.295508	2337.918275
338.687896	2349.008814
339.080220	2357.314115
339.472480	2357.097345
339.864676	2364.442306
340.256807	2367.555219
340.648875	2370.315250
341.040879	2370.597555
341.432818	2369.168388
341.824694	2372.354397
342.216506	2372.840868
342.608253	2372.404809
342.999937	2370.103522
343.391557	2368.737369
343.783113	2368.984386
344.174605	2367.698892
344.566033	2365.488346
344.957397	2364.759899
345.348697	2363.887779
345.739934	2361.352079
346.131106	2359.252438
346.522215	2356.852849
346.913260	2355.355626
347.304241	2355.083404
347.695159	2351.889833
348.086012	2350.702641
348.476802	2350.541324
348.867528	2346.568895
349.258191	2346.490757
349.648789	2346.153000
350.039324	2345.341374
350.429796	2345.076714
350.820203	2343.183760
351.210548	2343.057732
351.600828	2342.253668
351.991045	2343.360201
352.381198	2341.310972
352.771288	2343.894563
353.161314	2341.719305
353.551276	2342.125118
353.941175	2343.062773
354.331010	2343.246775
354.720782	2340.302741
355.110490	2343.947495
355.500135	2343.166116
355.889717	2343.546723
356.279235	2342.238544
356.668689	2343.466065
357.058080	2345.981601
357.447408	2340.811898
357.836672	2343.524038
358.225873	2343.282063
358.615010	2343.846672
359.004084	2345.117043
359.393095	2349.671725
359.782043	2346.495798
360.170927	2348.809688
360.559748	2347.357836
360.948505	2348.494616
361.337199	2351.877230
361.725830	2348.424040
362.114398	2352.487210
362.502903	2351.970492
362.891344	2353.069463
363.279722	2352.588033
363.668037	2355.169104
364.056289	2351.940245
364.444478	2352.845132
364.832603	2354.153311
365.220665	2354.584330
365.608665	2357.510720
365.996601	2356.346213
366.384474	2354.881758
366.772284	2356.691532
367.160031	2355.554752
367.547715	2358.287057
367.935336	2357.694722
368.322893	2357.639269
368.710388	2358.929804
369.097820	2365.309385
369.485189	2359.474249
369.872495	2361.399970
370.259738	2362.065402
370.646918	2366.332739
371.034035	2364.752337
371.421090	2365.528675
371.808081	2373.229037
372.195010	2375.520242
372.581875	2380.468134
372.968678	2385.811757
373.355418	2391.188148
373.742096	2400.993192
374.128710	2413.066756
374.515262	2422.995308
374.901751	2435.920827
375.288177	2454.797427
375.674540	2471.768472
376.060841	2490.604743
376.447079	2513.579802
376.833254	2539.130890
377.219367	2563.898079
377.605417	2595.198603
377.991404	2626.047944
378.377329	2662.863490
378.763191	2697.307174
379.148991	2740.081364
379.534727	2788.186575
379.920402	2832.483194
380.306013	2881.478168
380.691563	2939.925306
381.077049	2990.818274
381.462474	3043.662170
381.847835	3112.594907
382.233134	3176.196625
382.618371	3231.064543
383.003545	3309.903148
383.388657	3380.469220
383.773706	3456.204995
384.158693	3516.134232
384.543618	3592.580809
384.928480	3654.859224
385.313280	3737.851739
385.698017	3813.859737
386.082692	3903.594796
386.467305	3944.534006
386.851856	4029.180020
387.236344	4135.606340
387.620770	4161.908560
388.005133	4233.031679
388.389435	4320.160461
388.773674	4359.869630
389.157851	4428.179785
389.541965	4492.094054
389.926018	4467.591526
390.310008	4558.569230
390.693936	4605.073874
391.077802	4635.847597
391.461606	4684.313251
391.845348	4711.331315
392.229027	4730.923759
392.612645	4820.772244
392.996200	4832.717258
393.379694	4883.942943
393.763125	4950.304692
394.146494	4937.994194
394.529801	4940.890337
394.913047	5007.166387
395.296230	4929.015899
395.679351	4882.233992
396.062410	4931.251651
396.445408	4797.809788
396.828343	4794.220487
397.211217	4763.824850
397.594028	4632.412051
397.976778	4636.782732
398.359466	4620.865288
398.742092	4527.510681
399.124656	4494.337368
399.507158	4478.427486
399.889598	4400.541659
400.271977	4383.711767
400.654294	4303.194458
401.036549	4279.879122
401.418742	4194.688663
401.800874	4193.635062
402.182944	4126.885143
402.564952	4129.312459
402.946898	4003.258407
403.328783	3927.212601
403.710606	3885.000500
404.092367	3854.020089
404.474067	3839.685568
404.855705	3717.840879
405.237282	3629.701345
405.618797	3618.343626
406.000250	3578.883994
406.381642	3552.362484
406.762972	3472.314002
407.144240	3377.583159
407.525447	3333.092456
407.906593	3263.033020
408.287677	3223.548183
408.668700	3177.708971
409.049661	3116.746298
409.430560	3073.634350
409.811399	3019.499919
410.192176	2981.988693
410.572891	2935.731066
410.953545	2911.989752
411.334138	2847.659587
411.714669	2830.670899
412.095139	2763.633635
412.475547	2747.126377
412.855894	2710.504915
413.236180	2692.177800
413.616405	2657.900474
413.996568	2638.842392
414.376670	2612.323402
414.756711	2588.317428
415.136691	2575.013823
415.516609	2557.006821
415.896466	2543.524255
416.276262	2533.308357
416.655997	2523.856194
417.035670	2506.779285
417.415283	2506.181908
417.794834	2493.435351
418.174324	2486.869248
418.553753	2476.842393
418.933121	2472.522124
419.312428	2465.605661
419.691674	2458.880762
420.070859	2454.096707
420.449983	2451.820626
420.829045	2451.631582
421.208047	2443.588422
421.586988	2441.519028
421.965867	2439.477361
422.344686	2438.252360
422.723444	2435.157092
423.102141	2429.473191
423.480777	2432.288675
423.859352	2428.832964
424.237866	2431.235074
424.616319	2428.389343
424.994712	2428.354055
425.373044	2426.261976
425.751314	2426.201482
426.129524	2417.598753
426.507673	2424.767274
426.885762	2424.164856
427.263789	2422.876841
427.641756	2422.218970
428.019662	2420.439443
428.397508	2420.056315
428.775292	2420.114289
429.153016	2418.281829
429.530679	2418.899371
429.908282	2417.770152
430.285824	2418.780903
430.663305	2415.557086
431.040726	2419.088414
431.418086	2416.368711
431.795385	2417.747467
432.172624	2417.371901
432.549802	2413.631365
432.926920	2413.202867
433.303977	2413.754873
433.680974	2413.338978
434.057910	2415.741088
434.434786	2416.363670
434.811601	2416.066242
435.188355	2418.538928
435.565050	2418.337282
435.941683	2415.400810
436.318257	2415.287384
436.694770	2410.783113
437.071222	2415.284863
437.447614	2409.802608
437.823946	2413.520459
438.200218	2419.511871
438.576429	2415.967940
438.952580	2416.522467
439.328670	2414.437949
439.704700	2413.853176
440.080670	2416.877868
440.456580	2417.397107
440.832429	2413.608680
441.208218	2413.893505
441.583947	2415.365522
441.959616	2416.950965
442.335224	2417.508012
442.710773	2417.049267
443.086261	2417.873496
443.461689	2415.544483
443.837057	2417.649164
444.212365	2417.964237
444.587612	2416.174627
444.962800	2418.022210
445.337927	2417.359298
445.712995	2416.361150
446.088002	2419.779052
446.462949	2420.804927
446.837837	2420.273085
447.212664	2415.995666
447.587431	2425.014290
447.962139	2428.885896
448.336786	2432.560897
448.711374	2429.745413
449.085901	2425.019331
449.460369	2421.775349
449.834776	2425.939342
450.209124	2431.817327
450.583412	2426.937490
450.957640	2430.506627
451.331808	2428.464960
451.705917	2424.242994
452.079965	2426.393046
452.453954	2424.351378
452.827883	2426.675350
453.201752	2424.527819
453.575562	2422.758374
453.949311	2426.226688
454.323001	2422.947417
454.696632	2425.962027
455.070202	2426.897161
455.443713	2429.576534
455.817164	2425.349527
456.190556	2427.464291
456.563888	2426.947573
456.937160	2423.133940
457.310373	2426.826585
457.683526	2426.314908
458.056619	2427.688622
458.429653	2426.047727
458.802628	2428.459919
459.175542	2428.308684
459.548398	2429.130392
459.921194	2428.865732
460.293930	2435.961156
460.666607	2435.194900
461.039224	2438.075920
461.411782	2437.927206
461.784280	2437.191197
462.156719	2437.493667
462.529099	2437.838986
462.901419	2435.136927
463.273680	2433.218768
463.645882	2435.038625
464.018024	2433.357400
464.390106	2435.036104
464.762130	2437.501228
465.134094	2442.713781
465.505999	2450.714092
465.877845	2458.749692
466.249631	2459.662141
466.621358	2458.563169
466.993026	2457.433951
467.364634	2456.513940
467.736184	2450.351129
468.107674	2443.298555
468.479105	2444.289142
468.850477	2442.781837
469.221790	2441.824018
469.593043	2438.990889
469.964238	2438.769078
470.335373	2438.781681
470.706449	2441.403081
471.077467	2442.784357
471.448425	2448.932045
471.819324	2454.782304
472.190164	2452.652416
472.560945	2447.286108
472.931667	2441.478699
473.302330	2438.466609
473.672934	2439.121959
474.043479	2439.701692
474.413965	2436.031732
474.784393	2432.528130
475.154761	2436.314037
475.525070	2433.916968
475.895321	2435.714139
476.265513	2434.040476
476.635645	2441.884512
477.005719	2437.864191
477.375734	2440.465427
477.745691	2437.725560
478.115588	2442.398709
478.485427	2446.398865
478.855207	2449.796603
479.224928	2451.293825
479.594591	2453.300204
479.964194	2451.296346
480.333739	2454.565534
480.703226	2451.545883
481.072653	2452.274330
481.442022	2454.436985
481.811333	2455.820781
482.180584	2455.427571
482.549777	2451.941613
482.918912	2451.911367
483.287988	2452.375153
483.657005	2447.795264
484.025964	2451.684515
484.394864	2448.695110
484.763706	2449.161417
485.132489	2444.442897
485.501213	2446.958433
485.869879	2448.352312
486.238487	2449.448763
486.607036	2445.499019
486.975527	2447.845676
487.343959	2445.350305
487.712333	2445.988011
488.080648	2444.579008
488.448905	2446.653443
488.817104	2447.046653
489.185244	2444.521035
489.553326	2449.443722
489.921350	2453.524536
490.289315	2457.287757
490.657222	2458.968982
491.025070	2458.512758
491.392861	2457.479321
491.760593	2454.767180
492.128267	2452.919597
492.495883	2452.118054
492.863440	2448.216201
493.230939	2449.811726
493.598380	2447.255861
493.965763	2441.745880
494.333088	2442.872578
494.700354	2440.949378
495.067563	2442.703699
495.434713	2439.676486
495.801805	2443.543051
496.168839	2444.979780
496.535815	2445.879626
496.902733	2444.994903
497.269593	2444.624379
497.636395	2446.192177
498.003139	2445.342743
498.369825	2444.982301
498.736453	2446.716457
499.103023	2446.913062
499.469535	2446.366097
499.835989	2447.250820
500.202385	2445.804009
500.568723	2448.571602
500.935003	2452.281891
501.301226	2451.470266
501.667390	2450.658640
502.033497	2455.109979
502.399546	2455.356995
502.765537	2455.964454
503.131470	2458.646348
503.497345	2458.308591
503.863163	2459.082408
504.228923	2460.342696
504.594625	2462.802779
504.960269	2460.420834
505.325856	2462.959055
505.691385	2466.434931
506.056856	2467.639767
506.422270	2468.113635
506.787625	2472.564974
507.152924	2468.121197
507.518164	2473.641260
507.883347	2471.879377
508.248472	2476.098823
508.613540	2477.346508
508.978550	2482.052425
509.343503	2481.336582
509.708398	2486.599546
510.073236	2487.592653
510.438016	2490.163642
510.802738	2487.801861
511.167403	2492.278406
511.532010	2492.293529
511.896561	2495.953407
512.261053	2497.264107
512.625488	2493.982316
512.989866	2496.276041
513.354186	2496.742348
513.718449	2493.009373
514.082655	2502.332987
514.446803	2499.159581
514.810894	2500.976917
515.174927	2502.612771
515.538904	2498.171515
515.902822	2499.489777
516.266684	2498.993223
516.630488	2500.190497
516.994235	2499.812410
517.357925	2500.049345
517.721558	2497.173366
518.085133	2492.487614
518.448651	2496.318891
518.812112	2495.262769
519.175516	2492.948879
519.538863	2491.910402
519.902152	2490.602222
520.265385	2489.074753
520.628560	2489.835967
520.991678	2482.929586
521.354739	2483.461428
521.717743	2482.758187
522.080690	2478.758031
522.443580	2480.245172
522.806413	2476.570171
523.169189	2477.326344
523.531908	2471.365179
523.894569	2472.272587
524.257174	2469.701598
524.619722	2468.161526
524.982213	2467.186063
525.344647	2462.918726
525.707025	2462.268417
526.069345	2460.229270
526.431608	2459.886472
526.793815	2453.726182
527.155964	2456.022428
527.518057	2451.878599
527.880093	2448.904318
528.242072	2450.456994
528.603995	2448.218721
528.965860	2449.027827
529.327669	2446.822322
529.689421	2447.137394
530.051117	2442.965839
530.412755	2441.098092
530.774337	2440.757814
531.135862	2438.597679
531.497331	2437.607093
531.858743	2434.370672
532.220098	2436.498039
532.581396	2431.270362
532.942638	2431.787080
533.303824	2435.545261
533.664953	2435.467123
534.026025	2433.128027
534.387040	2435.580549
534.747999	2434.809252
535.108902	2431.023346
535.469748	2430.892276
535.830537	2432.555856
536.191270	2432.331525
536.551947	2434.080805
536.912567	2431.542584
537.273131	2433.516196
537.633638	2428.104518
537.994089	2430.005033
538.354483	2431.371185
538.714821	2425.256266
539.075103	2428.069229
539.435328	2429.662234
539.795497	2427.033272
540.155609	2432.081988
540.515665	2425.586461
540.875665	2428.074271
541.235609	2426.665268
541.595496	2427.131575
541.955328	2427.607964
542.315102	2427.471853
542.674821	2427.499579
543.034483	2426.415731
543.394090	2425.238622
543.753640	2427.048396
544.113134	2426.950093
544.472571	2428.422110
544.831953	2426.806420
545.191278	2426.468663
545.550548	2424.731986
545.909761	2427.809610
546.268918	2426.219126
546.628019	2424.598395
546.987064	2428.616195
547.346053	2424.306008
547.704986	2425.220978
548.063863	2424.759712
548.422684	2424.464804
548.781449	2423.960689
549.140158	2424.737027
549.498811	2425.215936
549.857408	2424.046389
550.215949	2421.664443
550.574434	2421.659402
550.932864	2420.709145
551.291237	2419.602612
551.649555	2425.568817
552.007817	2424.164856
552.366022	2423.920360
552.724173	2425.520926
553.082267	2424.414393
553.440305	2425.067222
553.798288	2423.091090
554.156215	2424.520257
554.514086	2424.308529
554.871902	2425.490679
555.229661	2424.711821
555.587365	2421.757705
555.945014	2423.454053
556.302606	2424.772315
556.660143	2424.064033
557.017625	2423.754002
557.375050	2423.882551
557.732421	2422.566810
558.089735	2423.023034
558.446994	2422.559248
558.804197	2427.880186
559.161345	2425.001687
559.518437	2423.673343
559.875474	2424.142171
560.232455	2424.404311
560.589381	2423.955648
560.946251	2425.382294
561.303065	2424.580751
561.659825	2425.132757
562.016528	2424.547983
562.373177	2426.123344
562.729770	2422.561769
563.086307	2422.067736
563.442789	2423.630493
563.799216	2421.614032
564.155587	2421.140163
564.511904	2421.838363
564.868164	2424.621080
565.224370	2423.849784
565.580520	2421.992118
565.936615	2422.919691
566.292654	2422.927253
566.648638	2421.392221
567.004567	2422.276944
567.360441	2423.917839
567.716260	2421.944227
568.072023	2421.293919
568.427732	2418.554052
568.783385	2421.694690
569.138982	2418.075142
569.494525	2420.653692
569.850013	2419.932807
570.205445	2420.782242
570.560823	2421.563620
570.916145	2421.407345
571.271412	2422.624783
571.626625	2421.432550
571.981782	2422.163518
572.336884	2420.941038
572.691931	2420.951120
573.046923	2420.290729
573.401860	2422.408014
573.756743	2421.500606
574.111570	2420.978847
574.466342	2422.203847
574.821059	2423.481779
575.175722	2420.376429
575.530330	2422.281985
575.884882	2420.706624
576.239380	2422.733168
576.593823	2421.046902
576.948211	2421.888775
577.302544	2422.130750
577.656823	2419.297622
578.011047	2421.704773
578.365216	2421.787952
578.719330	2420.280647
579.073389	2419.801737
579.427394	2421.876172
579.781344	2417.646644
580.135239	2421.523291
580.489080	2422.609660
580.842866	2420.315935
581.196597	2420.580595
581.550273	2420.620925
581.903895	2420.225194
582.257463	2421.177972
582.610975	2420.147056
582.964434	2419.176634
583.317837	2420.013466
583.671186	2419.867272
584.024481	2420.361305
584.377721	2421.558579
584.730906	2417.926428
585.084037	2421.243507
585.437113	2418.105389
585.790135	2418.793506
586.143103	2418.402817
586.496016	2417.868455
586.848874	2415.940213
587.201679	2415.859555
587.554428	2415.194123
587.907124	2415.481468
588.259765	2414.327044
588.612352	2418.541449
588.964884	2417.369380
589.317362	2417.870975
589.669786	2420.419278
590.022155	2419.494227
590.374470	2420.005904
590.726731	2418.357447
591.078937	2420.061357
591.431090	2420.688980
591.783188	2418.231418
592.135232	2417.200502
592.487222	2416.789648
592.839157	2421.286357
593.191038	2416.749318
593.542866	2416.512384
593.894639	2416.459452
594.246358	2416.532549
594.598022	2415.327713
594.949633	2416.807292
595.301190	2414.952147
595.652692	2418.871644
596.004141	2418.992632
596.355535	2417.949113
596.706876	2417.134967
597.058162	2415.191602
597.409395	2415.708320
597.760573	2419.544638
598.111698	2415.189081
598.462768	2417.349216
598.813785	2414.548855
599.164748	2417.644123
599.515657	2414.687487
599.866511	2417.739905
600.217312	2416.973650
600.568060	2415.655388
600.918753	2416.091448
601.269392	2417.324010
601.619978	2414.700089
601.970510	2414.914338
602.320988	2415.710841
602.671412	2418.266706
603.021783	2413.323854
603.372100	2417.082035
603.722363	2419.726120
604.072572	2416.156983
604.422728	2417.508012
604.772830	2413.558268
605.122878	2412.199677
605.472872	2412.827301
605.822813	2407.818914
606.172701	2416.116654
606.522534	2410.810839
606.872314	2415.675553
607.222041	2415.226890
607.571714	2414.974832
607.921333	2417.197981
608.270899	2415.650347
608.620411	2415.751170
608.969870	2416.388876
609.319276	2415.052970
609.668627	2415.103382
610.017926	2416.376273
610.367171	2415.355439
610.716362	2417.059349
611.065500	2417.329051
611.414585	2414.911818
611.763616	2418.397776
612.112594	2418.365008
612.461518	2415.915007
612.810389	2415.307548
613.159207	2414.664801
613.507971	2414.775707
613.856682	2417.132446
614.205340	2413.119688
614.553945	2418.339803
614.902496	2415.375604
615.250994	2416.048598
615.599439	2413.633885
615.947830	2415.907446
616.296169	2416.376273
616.644454	2418.662436
616.992686	2415.683114
617.340864	2418.002045
617.688990	2415.148752
618.037063	2416.638413
618.385082	2414.117836
618.733048	2414.672363
619.080961	2415.993145
619.428821	2416.676222
619.776628	2417.911304
620.124382	2415.216808
620.472083	2418.498599
620.819731	2417.313928
621.167326	2417.500450
621.514868	2418.196130
621.862357	2416.514905
622.209793	2416.114133
622.557176	2418.647313
622.904506	2415.690676
623.251783	2412.381159
623.599007	2413.782599
623.946179	2409.101888
624.293297	2412.466858
624.640363	2415.320151
624.987376	2416.298135
625.334336	2412.701272
625.681243	2411.816549
626.028097	2412.280336
626.374899	2413.041550
626.721647	2413.699420
627.068343	2413.338978
627.414987	2416.827456
627.761577	2414.233783
628.108115	2411.357804
628.454600	2412.623134
628.801032	2413.689338
629.147412	2417.243352
629.493739	2414.548855
629.840014	2411.682959
630.186236	2409.013668
630.532405	2414.478279
630.878521	2413.288566
631.224585	2414.536252
631.570597	2411.239337
631.916556	2412.429050
632.262462	2412.847465
632.608316	2412.240006
632.954117	2414.029616
633.299866	2415.322672
633.645562	2413.578433
633.991206	2415.108423
634.336797	2410.636919
634.682336	2410.649522
635.027823	2408.386044
635.373257	2413.104564
635.718639	2409.237999
636.063968	2411.778741
636.409245	2410.473082
636.754470	2414.901736
637.099642	2411.693041
637.444762	2412.544996
637.789829	2411.695562
638.134845	2411.435942
638.479808	2408.454100
638.824719	2411.957702
639.169577	2408.948133
639.514383	2412.618093
639.859137	2412.560120
640.203839	2413.621283
640.548489	2411.090623
640.893086	2409.812691
641.237632	2406.573749
641.582125	2405.966290
641.926566	2407.546692
642.270955	2411.748494
642.615292	2407.460993
642.959576	2409.805129
643.303809	2407.211455
643.647990	2410.694893
643.992118	2409.379152
644.336195	2410.989800
