Dividing Wavelength (nm)	Counts (n)	Blue Motor Position (mm): 0.000000	Red Motor Position (mm): 33.000000	
326.493990	1988.354585
326.888308	1988.354585
327.282561	1988.354585
327.676750	1966.851543
328.070874	1967.234671
328.464933	1973.760445
328.858929	1983.963740
329.252859	1995.818013
329.646726	2008.849396
330.040528	2024.119051
330.434265	2045.710313
330.827938	2063.094732
331.221547	2083.196333
331.615091	2104.832965
332.008571	2124.992540
332.401986	2146.349388
332.795338	2165.389826
333.188625	2184.833556
333.581847	2204.113449
333.975006	2220.323279
334.368100	2238.179046
334.761129	2257.068250
335.154095	2270.923861
335.546996	2295.320525
335.939833	2329.587768
336.332606	2340.811898
336.725315	2354.871676
337.117960	2362.662779
337.510540	2366.148737
337.903056	2378.416385
338.295508	2388.672612
338.687896	2395.876421
339.080220	2398.626370
339.472480	2405.671383
339.864676	2407.841600
340.256807	2412.192115
340.648875	2415.516756
341.040879	2418.974988
341.432818	2417.800399
341.824694	2417.739905
342.216506	2417.301325
342.608253	2419.521953
342.999937	2415.700758
343.391557	2415.310069
343.783113	2417.109761
344.174605	2412.610531
344.566033	2410.858730
344.957397	2408.756569
345.348697	2408.678431
345.739934	2406.793040
346.131106	2407.145920
346.522215	2405.258008
346.913260	2402.671896
347.304241	2400.204252
347.695159	2400.400857
348.086012	2401.146947
348.476802	2397.635784
348.867528	2394.573283
349.258191	2394.437172
349.648789	2397.071174
350.039324	2392.105638
350.429796	2393.706204
350.820203	2389.980792
351.210548	2389.534649
351.600828	2391.893909
351.991045	2389.794269
352.381198	2386.661192
352.771288	2391.881307
353.161314	2390.247973
353.551276	2391.992212
353.941175	2391.074722
354.331010	2393.854918
354.720782	2392.952552
355.110490	2390.008518
355.500135	2391.823333
355.889717	2391.362068
356.279235	2392.030021
356.668689	2392.987840
357.058080	2393.885165
357.447408	2393.312994
357.836672	2391.604043
358.225873	2392.067829
358.615010	2390.774773
359.004084	2393.817110
359.393095	2396.667882
359.782043	2396.383057
360.170927	2398.553274
360.559748	2397.376164
360.948505	2400.335322
361.337199	2401.058727
361.725830	2401.535116
362.114398	2405.757082
362.502903	2404.317833
362.891344	2406.840931
363.279722	2403.266753
363.668037	2406.679614
364.056289	2409.001065
364.444478	2407.319840
364.832603	2409.590880
365.220665	2411.062897
365.608665	2412.920562
365.996601	2413.026426
366.384474	2414.175809
366.772284	2415.103382
367.160031	2414.327044
367.547715	2415.378125
367.935336	2414.982394
368.322893	2416.086407
368.710388	2418.112951
369.097820	2421.596388
369.485189	2419.577406
369.872495	2422.032448
370.259738	2421.639238
370.646918	2430.862029
371.034035	2428.659044
371.421090	2432.117276
371.808081	2436.152720
372.195010	2443.001127
372.581875	2445.309976
372.968678	2451.981943
373.355418	2459.904116
373.742096	2470.109932
374.128710	2481.492857
374.515262	2494.214209
374.901751	2505.652587
375.288177	2525.093797
375.674540	2546.170861
376.060841	2567.557956
376.447079	2593.875300
376.833254	2616.348764
377.219367	2644.798516
377.605417	2681.954340
377.991404	2705.539378
378.377329	2745.495564
378.763191	2781.469237
379.148991	2829.612257
379.534727	2880.648898
379.920402	2925.126999
380.306013	2980.766214
380.691563	3041.045811
381.077049	3099.427413
381.462474	3155.686690
381.847835	3232.962538
382.233134	3306.167653
382.618371	3366.386757
383.003545	3456.497382
383.388657	3536.109804
383.773706	3633.830050
384.158693	3704.842264
384.543618	3801.241728
384.928480	3883.881363
385.313280	3988.581088
385.698017	4093.421964
386.082692	4218.644226
386.467305	4283.652425
386.851856	4413.298299
387.236344	4571.441816
387.620770	4634.478924
388.005133	4758.062811
388.389435	4907.210388
388.773674	4996.640458
389.157851	5129.583246
389.541965	5266.783289
389.926018	5288.722391
390.310008	5475.686184
390.693936	5597.856027
391.077802	5724.663732
391.461606	5854.856571
391.845348	5971.478624
392.229027	6089.875163
392.612645	6319.855122
392.996200	6440.202588
393.379694	6621.399301
393.763125	6850.083684
394.146494	6945.535411
394.529801	7084.751916
394.913047	7336.575194
395.296230	7329.656211
395.679351	7385.590333
396.062410	7660.958321
396.445408	7549.415230
396.828343	7714.172741
397.211217	7851.864297
397.594028	7727.541881
397.976778	7937.329498
398.359466	8109.298379
398.742092	8082.736540
399.124656	8234.220692
399.507158	8421.975947
399.889598	8443.796581
400.271977	8654.564703
400.654294	8688.680712
401.036549	8893.943893
401.418742	8917.244106
401.800874	9228.235408
402.182944	9304.276172
402.564952	9684.245582
402.946898	9496.409669
403.328783	9558.052898
403.710606	9762.007900
404.092367	10021.145893
404.474067	10390.624662
404.855705	10182.152785
405.237282	10128.247727
405.618797	10555.840917
406.000250	10819.342029
406.381642	11189.662670
406.762972	11141.018056
407.144240	10938.048599
407.525447	11195.986797
407.906593	11128.740325
408.287677	11401.257541
408.668700	11550.248843
409.049661	11517.244408
409.430560	11683.113493
409.811399	11661.917962
410.192176	11819.312867
410.572891	11897.322202
410.953545	12405.402455
411.334138	11866.321627
411.714669	12479.880462
412.095139	11767.457038
412.475547	12288.949280
412.855894	12123.324691
413.236180	12467.484264
413.616405	12131.977832
413.996568	12425.100763
414.376670	12389.530382
414.756711	12274.297167
415.136691	12555.724621
415.516609	12744.583888
415.896466	12808.732571
416.276262	13110.813633
416.655997	13549.343606
417.035670	13581.710334
417.415283	14238.549995
417.794834	14341.407178
418.174324	14082.571654
418.553753	13978.502074
418.933121	14484.681811
419.312428	14281.286377
419.691674	14195.329663
420.070859	14654.425023
420.449983	14308.475840
420.829045	14870.781264
421.208047	14617.521256
421.586988	15066.342745
421.965867	15331.898127
422.344686	15324.464945
422.723444	15902.458439
423.102141	14568.312033
423.480777	15779.928154
423.859352	15276.319405
424.237866	16402.228349
424.616319	16095.927842
424.994712	16774.772139
425.373044	16555.323151
425.751314	17249.704284
426.129524	16356.943664
426.507673	17475.338769
426.885762	17159.714647
427.263789	17360.347529
427.641756	17534.405968
428.019662	17604.029344
428.397508	17641.091907
428.775292	17945.950645
429.153016	17910.213905
429.530679	17985.841295
429.908282	18016.539402
430.285824	17725.102736
430.663305	18444.561089
431.040726	18030.780661
431.418086	17855.078806
431.795385	18522.378861
432.172624	18937.228014
432.549802	18489.747472
432.926920	18678.775618
433.303977	18564.270849
433.680974	18818.808789
434.057910	19117.303070
434.434786	19140.996493
434.811601	19048.463594
435.188355	20108.179667
435.565050	19750.991232
435.941683	19691.387150
436.318257	20600.511355
436.694770	20391.258100
437.071222	20993.471818
437.447614	20063.610826
437.823946	20082.711758
438.200218	20247.186964
438.576429	20008.400109
438.952580	20294.173038
439.328670	20254.277347
439.704700	20676.368117
440.080670	20232.441589
440.456580	20839.204948
440.832429	21013.996876
441.208218	19997.672534
441.583947	20447.719023
441.959616	20550.046884
442.335224	20788.309459
442.710773	20933.020821
443.086261	21461.240483
443.461689	20830.025007
443.837057	20954.266764
444.212365	21599.010177
444.587612	21600.015887
444.962800	21161.755615
445.337927	21596.504723
445.712995	20313.437808
446.088002	22201.440664
446.462949	22383.622923
446.837837	22569.870872
447.212664	22518.486391
447.587431	25382.373453
447.962139	28354.947792
448.336786	30768.019588
448.711374	29193.062304
449.085901	25476.007844
449.460369	25417.958958
449.834776	25332.130793
450.209124	27835.524943
450.583412	27365.996915
450.957640	27895.270178
451.331808	26532.041355
451.705917	25150.543390
452.079965	25184.336765
452.453954	25556.512551
452.827883	25434.178870
453.201752	25241.621917
453.575562	25396.203858
453.949311	26537.016974
454.323001	26591.600067
454.696632	26344.679311
455.070202	27932.083204
455.443713	28063.485920
455.817164	28660.769390
456.190556	29193.548775
456.563888	28627.470048
456.937160	29089.212014
457.310373	27392.725113
457.683526	27864.826650
458.056619	27823.164034
458.429653	27760.847811
458.802628	28341.815586
459.175542	28451.616958
459.548398	29761.684293
459.921194	31349.617508
460.293930	32008.345081
460.666607	34035.713155
461.039224	35826.512483
461.411782	36227.654739
461.784280	35038.701125
462.156719	34568.971450
462.529099	34011.140051
462.901419	32704.150340
463.273680	31635.158544
463.645882	31712.865410
464.018024	31682.469773
464.390106	32515.717051
464.762130	35230.678345
465.134094	39291.347933
465.505999	44593.605822
465.877845	49208.051201
466.249631	50416.556930
466.621358	48730.043952
466.993026	46644.717732
467.364634	44561.337396
467.736184	42572.022471
468.107674	41299.836887
468.479105	40519.536847
468.850477	39818.645064
469.221790	38380.817246
469.593043	36607.876206
469.964238	35721.243108
470.335373	35640.080532
470.706449	37362.042903
471.077467	39928.486765
471.448425	44506.857647
471.819324	47341.074998
472.190164	45507.942580
472.560945	41946.710187
472.931667	38809.211979
473.302330	37700.866415
473.672934	36868.725670
474.043479	37364.197997
474.413965	36569.056801
474.784393	36189.798194
475.154761	37085.724658
475.525070	37105.750642
475.895321	36654.038052
476.265513	37249.698269
476.635645	38219.558296
477.005719	38039.377375
477.375734	38509.974128
477.745691	39204.869459
478.115588	40550.519779
478.485427	42502.938499
478.855207	45870.658641
479.224928	48483.919698
479.594591	50126.272168
479.964194	49138.962188
480.333739	49312.766049
480.703226	49358.378409
481.072653	49982.916876
481.442022	50443.663214
481.811333	50717.939792
482.180584	49435.780285
482.549777	48887.390967
482.918912	48365.555926
483.287988	48067.013754
483.657005	47221.518993
484.025964	46579.157526
484.394864	46589.547344
484.763706	46156.678587
485.132489	45303.024718
485.501213	45104.763699
485.869879	45265.369819
486.238487	44844.589749
486.607036	45031.878696
486.975527	44473.671731
487.343959	44672.210013
487.712333	44736.867853
488.080648	44667.302450
488.448905	45108.511797
488.817104	44913.464513
489.185244	45854.411002
489.553326	47516.378602
489.921350	50209.330219
490.289315	53062.988780
490.657222	53647.255990
491.025070	53933.827942
491.392861	53036.157238
491.760593	51786.399747
492.128267	50108.076123
492.495883	48590.043548
492.863440	47167.825663
493.230939	45826.674573
493.598380	44693.733220
493.965763	44343.967884
494.333088	43502.069986
494.700354	43006.390972
495.067563	42694.681306
495.434713	42547.058678
495.801805	42589.192641
496.168839	42175.024044
496.535815	41832.593587
496.902733	41825.006650
497.269593	41374.486293
497.636395	41280.733434
498.003139	41651.185145
498.369825	41058.726060
498.736453	41352.032994
499.103023	40852.762158
499.469535	40675.172390
499.835989	40739.419375
500.202385	40368.753415
500.568723	40350.587618
500.935003	40474.899951
501.301226	40235.989588
501.667390	40794.657819
502.033497	41009.151353
502.399546	40384.212114
502.765537	39674.710039
503.131470	39975.182973
503.497345	40272.059043
503.863163	38900.192203
504.228923	39443.822672
504.594625	39757.289180
504.960269	38986.466510
505.325856	39608.600348
505.691385	38920.581150
506.056856	38977.140376
506.422270	39320.054784
506.787625	38824.605142
507.152924	38931.802758
507.518164	38938.767113
507.883347	38080.767769
508.248472	38250.306814
508.613540	38601.803787
508.978550	38777.321640
509.343503	38451.053122
509.708398	38537.130824
510.073236	38924.155328
510.438016	38804.979931
510.802738	38186.700055
511.167403	38665.385339
511.532010	38752.093186
511.896561	38919.542672
512.261053	39591.394889
512.625488	39022.697283
512.989866	38788.931417
513.354186	38512.028398
513.718449	38360.733289
514.082655	38854.264771
514.446803	38395.479442
514.810894	38732.180628
515.174927	38513.732308
515.538904	38284.377452
515.902822	38733.912264
516.266684	38059.383194
516.630488	38301.373703
516.994235	38020.157976
517.357925	38366.853250
517.721558	38348.813481
518.085133	38444.247564
518.448651	38391.428875
518.812112	38008.459979
519.175516	37917.731812
519.538863	38053.497647
519.902152	37825.289654
520.265385	38042.901142
520.628560	37894.035869
520.991678	37515.712396
521.354739	37524.040382
521.717743	37595.166022
522.080690	37319.435071
522.443580	37571.833041
522.806413	37412.847652
523.169189	37171.363780
523.531908	37121.216902
523.894569	36792.430327
524.257174	36723.283341
524.619722	36757.948835
524.982213	36531.071706
525.344647	36259.134224
525.707025	36063.227424
526.069345	36165.875398
526.431608	35884.984827
526.793815	35906.364360
527.155964	35331.816494
527.518057	35232.364611
527.880093	34828.570709
528.242072	35005.840363
528.603995	34540.010022
528.965860	34324.349460
529.327669	34161.016075
529.689421	33844.325750
530.051117	33577.689040
530.412755	33446.253557
530.774337	33255.796244
531.135862	32867.760988
531.497331	32775.250774
531.858743	32465.925574
532.220098	32463.193269
532.581396	32003.137569
532.942638	31532.034180
533.303824	31503.097957
533.664953	31232.503942
534.026025	30786.518102
534.387040	30853.696518
534.747999	30569.342674
535.108902	30438.149166
535.469748	29860.843789
535.830537	29695.244406
536.191270	29580.744678
536.551947	29089.159082
536.912567	29036.269816
537.273131	28869.389980
537.633638	28269.268341
537.994089	28238.834895
538.354483	27737.030879
538.714821	27832.961517
539.075103	27791.394683
539.435328	27386.169092
539.795497	27064.959372
540.155609	26802.670658
540.515665	26818.394017
540.875665	26258.042041
541.235609	26177.373497
541.595496	25915.480513
541.955328	26028.939242
542.315102	25428.119403
542.674821	25048.371805
543.034483	24825.807383
543.394090	24571.337499
543.753640	24290.756958
544.113134	24564.640326
544.472571	23805.649244
544.831953	24177.484752
545.191278	23523.876470
545.550548	23135.122850
545.909761	23113.912195
546.268918	22958.619451
546.628019	22851.434438
546.987064	22410.512437
547.346053	21812.893731
547.704986	21983.950164
548.063863	21544.991692
548.422684	21380.335005
548.781449	21077.517935
549.140158	21012.676093
549.498811	20706.335256
549.857408	20219.697552
550.215949	20345.323106
550.574434	20082.005997
550.932864	19751.144987
551.291237	19807.426949
551.649555	19416.583771
552.007817	19283.673750
552.366022	18919.049613
552.724173	18762.708309
553.082267	18695.025777
553.440305	18581.231811
553.798288	18089.706708
554.156215	17983.310636
554.514086	17842.702773
554.871902	17519.095984
555.229661	17305.300649
555.587365	17032.256634
555.945014	16857.931013
556.302606	16620.011237
556.660143	16490.856875
557.017625	16314.469423
557.375050	16042.829368
557.732421	15947.939729
558.089735	15746.482619
558.446994	15526.171593
558.804197	15466.353261
559.161345	15250.634727
559.518437	14838.490153
559.875474	14735.983330
560.232455	14583.710237
560.589381	14455.012100
560.946251	14193.658520
561.303065	14194.689436
561.659825	13963.010608
562.016528	13696.830123
562.373177	13441.576340
562.729770	13392.341911
563.086307	13093.993823
563.442789	13033.802446
563.799216	12876.460473
564.155587	12652.151812
564.511904	12487.911020
564.868164	12343.532373
565.224370	12247.518557
565.580520	12023.162005
565.936615	11914.106724
566.292654	11706.627955
566.648638	11606.374529
567.004567	11448.162957
567.360441	11307.124075
567.716260	11141.723817
568.072023	11051.212420
568.427732	10909.019114
568.783385	10692.753614
569.138982	10625.411361
569.494525	10486.819959
569.850013	10312.605244
570.205445	10182.858547
570.560823	10052.827025
570.916145	9906.331094
571.271412	9782.969018
571.626625	9630.842118
571.981782	9518.464717
572.336884	9357.273823
572.691931	9291.101117
573.046923	9115.752142
573.401860	8990.247576
573.756743	8870.747024
574.111570	8783.242675
574.466342	8653.901791
574.821059	8566.997340
575.175722	8398.610199
575.530330	8302.767782
575.884882	8163.795773
576.239380	8063.421359
576.593823	7959.361861
576.948211	7851.108123
577.302544	7702.305865
577.656823	7615.136753
578.011047	7551.966054
578.365216	7436.140503
578.719330	7324.915006
579.073389	7222.940025
579.427394	7151.179200
579.781344	7068.131232
580.135239	6950.460618
580.489080	6883.561986
580.842866	6753.008705
581.196597	6724.304375
581.550273	6648.508106
581.903895	6561.626340
582.257463	6528.440424
582.610975	6405.501805
582.964434	6358.304002
583.317837	6255.918168
583.671186	6178.367578
584.024481	6123.734073
584.377721	6025.053486
584.730906	5979.569676
585.084037	5918.191107
585.437113	5831.637016
585.790135	5765.683600
586.143103	5674.975599
586.496016	5627.790399
586.848874	5562.802364
587.201679	5510.510475
587.554428	5414.055558
587.907124	5372.549218
588.259765	5302.751922
588.612352	5266.165748
588.964884	5179.820865
589.317362	5145.959435
589.669786	5093.118060
590.022155	5022.042832
590.374470	4997.086600
590.726731	4925.749232
591.078937	4839.787476
591.431090	4796.042864
591.783188	4732.534408
592.135232	4667.407741
592.487222	4634.640241
592.839157	4594.704220
593.191038	4539.591806
593.542866	4483.506449
593.894639	4414.306530
594.246358	4386.870050
594.598022	4345.918237
594.949633	4285.270636
595.301190	4249.077672
595.652692	4202.809962
596.004141	4176.588400
596.355535	4101.263479
596.706876	4062.040782
597.058162	4022.681973
597.409395	4007.878625
597.760573	3976.492401
598.111698	3932.480607
598.462768	3897.671440
598.813785	3871.064230
599.164748	3818.701765
599.515657	3803.301040
599.866511	3763.465842
600.217312	3754.293463
600.568060	3700.040565
600.918753	3693.182075
601.269392	3667.530164
601.619978	3630.795276
601.970510	3613.095785
602.320988	3595.315635
602.671412	3580.214859
603.021783	3551.581105
603.372100	3515.872092
603.722363	3502.760050
604.072572	3485.158862
604.422728	3466.105821
604.772830	3437.340997
605.122878	3418.156886
605.472872	3402.935122
605.822813	3387.796537
606.172701	3369.045965
606.522534	3357.960468
606.872314	3345.591997
607.222041	3328.905778
607.571714	3317.729540
607.921333	3289.476393
608.270899	3281.259312
608.620411	3275.671193
608.969870	3261.989502
609.319276	3244.002665
609.668627	3232.899523
610.017926	3228.864080
610.367171	3218.189436
610.716362	3205.732745
611.065500	3197.034234
611.414585	3184.181812
611.763616	3177.656039
612.112594	3166.313443
612.461518	3161.080725
612.810389	3151.815084
613.159207	3143.512304
613.507971	3131.050572
613.856682	3129.906230
614.205340	3120.693521
614.553945	3120.307873
614.902496	3099.656786
615.250994	3100.554111
615.599439	3090.854931
615.947830	3086.711103
616.296169	3076.001172
616.644454	3070.508834
616.992686	3063.622618
617.340864	3067.358113
617.688990	3051.012172
618.037063	3053.242882
618.385082	3047.432953
618.733048	3041.817107
619.080961	3035.157743
619.428821	3028.934439
619.776628	3025.508975
620.124382	3015.182171
620.472083	3006.392919
620.819731	3003.705984
621.167326	2992.857421
621.514868	2984.993221
621.862357	2975.619196
622.209793	2969.078298
622.557176	2955.983901
622.904506	2950.093313
623.251783	2933.575973
623.599007	2926.722524
623.946179	2920.095927
624.293297	2914.462438
624.640363	2906.230233
624.987376	2898.086249
625.334336	2895.187586
625.681243	2885.606873
626.028097	2879.766696
626.374899	2871.557177
626.721647	2867.274717
627.068343	2863.387987
627.414987	2859.367667
627.761577	2849.076152
628.108115	2850.956502
628.454600	2838.361179
628.801032	2836.664831
629.147412	2835.885973
629.493739	2829.264417
629.840014	2824.341730
630.186236	2821.420382
630.532405	2816.444763
630.878521	2813.702375
631.224585	2811.176757
631.570597	2806.256591
631.916556	2802.763071
632.262462	2796.877524
632.608316	2795.440795
632.954117	2790.588685
633.299866	2789.905608
633.645562	2786.215484
633.991206	2777.935389
634.336797	2769.662855
634.682336	2772.024636
635.027823	2764.185642
635.373257	2758.438726
635.718639	2756.482758
636.063968	2752.101996
636.409245	2745.493043
636.754470	2745.314082
637.099642	2739.305027
637.444762	2735.075499
637.789829	2731.491238
