Dividing Wavelength (nm)	Counts (n)	Blue Motor Position (mm): 0.000000	Red Motor Position (mm): 26.800000	
326.493990	1987.651344
326.888308	1987.651344
327.282561	1987.651344
327.676750	1963.358024
328.070874	1962.100256
328.464933	1971.834724
328.858929	1979.764459
329.252859	1991.588485
329.646726	2006.303613
330.040528	2023.057888
330.434265	2040.064221
330.827938	2059.661706
331.221547	2080.844635
331.615091	2102.796339
332.008571	2122.736623
332.401986	2142.429891
332.795338	2161.961841
333.188625	2182.098730
333.581847	2200.740917
333.975006	2221.102138
334.368100	2236.480178
334.761129	2253.443660
335.154095	2268.483943
335.546996	2290.107972
335.939833	2312.752835
336.332606	2327.420072
336.725315	2337.204952
337.117960	2346.084944
337.510540	2354.896881
337.903056	2361.914168
338.295508	2369.793491
338.687896	2377.735829
339.080220	2385.035420
339.472480	2391.046996
339.864676	2393.101266
340.256807	2392.365257
340.648875	2401.131824
341.040879	2401.023439
341.432818	2400.423542
341.824694	2401.976217
342.216506	2402.850857
342.608253	2402.440003
342.999937	2399.470764
343.391557	2401.451937
343.783113	2397.945815
344.174605	2398.389436
344.566033	2394.396842
344.957397	2394.830382
345.348697	2392.750906
345.739934	2390.162273
346.131106	2387.563558
346.522215	2388.057591
346.913260	2387.193033
347.304241	2386.303270
347.695159	2382.587939
348.086012	2384.158259
348.476802	2381.839328
348.867528	2379.369163
349.258191	2376.407485
349.648789	2375.394213
350.039324	2375.600900
350.429796	2376.281456
350.820203	2373.801208
351.210548	2372.210724
351.600828	2373.370190
351.991045	2372.777854
352.381198	2372.208204
352.771288	2373.675179
353.161314	2372.707278
353.551276	2375.215252
353.941175	2376.311703
354.331010	2372.704757
354.720782	2376.936806
355.110490	2374.373379
355.500135	2377.251878
355.889717	2375.946219
356.279235	2374.781713
356.668689	2376.571322
357.058080	2376.306662
357.447408	2375.575694
357.836672	2373.145858
358.225873	2376.740201
358.615010	2376.220962
359.004084	2382.439225
359.393095	2380.387476
359.782043	2381.675491
360.170927	2382.991232
360.559748	2381.108361
360.948505	2385.945348
361.337199	2384.569113
361.725830	2386.749412
362.114398	2385.899978
362.502903	2387.198075
362.891344	2388.289484
363.279722	2387.326624
363.668037	2391.006666
364.056289	2391.614125
364.444478	2392.962634
364.832603	2392.198899
365.220665	2392.778632
365.608665	2391.848539
365.996601	2394.071688
366.384474	2395.110166
366.772284	2394.996740
367.160031	2397.033366
367.547715	2396.894734
367.935336	2396.738458
368.322893	2400.804149
368.710388	2403.024777
369.097820	2404.227092
369.485189	2399.841288
369.872495	2405.442010
370.259738	2404.721125
370.646918	2408.154151
371.034035	2408.600293
371.421090	2414.937024
371.808081	2418.110430
372.195010	2422.488672
372.581875	2426.950093
372.968678	2432.886052
373.355418	2444.049687
373.742096	2449.839452
374.128710	2462.311267
374.515262	2473.913483
374.901751	2489.959475
375.288177	2505.582011
375.674540	2524.617408
376.060841	2545.394523
376.447079	2567.381516
376.833254	2595.347317
377.219367	2622.292284
377.605417	2658.323931
377.991404	2681.747653
378.377329	2722.780124
378.763191	2757.889240
379.148991	2806.979997
379.534727	2852.302490
379.920402	2898.645818
380.306013	2949.760597
380.691563	3015.068745
381.077049	3071.328022
381.462474	3127.249542
381.847835	3205.911706
382.233134	3271.781943
382.618371	3333.659586
383.003545	3421.244593
383.388657	3502.147550
383.773706	3594.778752
384.158693	3669.672654
384.543618	3762.134977
384.928480	3841.535671
385.313280	3946.444603
385.698017	4053.203639
386.082692	4170.833923
386.467305	4235.184252
386.851856	4362.959857
387.236344	4521.756204
387.620770	4582.660904
388.005133	4706.804358
388.389435	4853.524621
388.773674	4937.452270
389.157851	5070.642076
389.541965	5204.993867
389.926018	5228.866251
390.310008	5410.962810
390.693936	5534.740781
391.077802	5653.759903
391.461606	5785.702022
391.845348	5902.878602
392.229027	6018.636098
392.612645	6247.456591
392.996200	6367.304983
393.379694	6539.472989
393.763125	6765.437669
394.146494	6854.015784
394.529801	7000.252095
394.913047	7240.364773
395.296230	7241.856955
395.679351	7296.835779
396.062410	7559.981489
396.445408	7451.523584
396.828343	7609.087368
397.211217	7744.719613
397.594028	7625.771067
397.976778	7831.296389
398.359466	8003.124118
398.742092	7970.207904
399.124656	8122.206254
399.507158	8309.777506
399.889598	8329.100249
400.271977	8543.266108
400.654294	8574.566633
401.036549	8767.942773
401.418742	8803.871077
401.800874	9099.262528
402.182944	9179.051390
402.564952	9547.438749
402.946898	9363.315646
403.328783	9425.692363
403.710606	9623.366087
404.092367	9877.004181
404.474067	10245.033618
404.855705	10034.981340
405.237282	9988.791768
405.618797	10419.359238
406.000250	10672.299133
406.381642	11031.914883
406.762972	10988.192956
407.144240	10779.327870
407.525447	11030.296673
407.906593	10966.546242
408.287677	11231.985677
408.668700	11386.265149
409.049661	11359.945285
409.430560	11522.958556
409.811399	11496.389155
410.192176	11662.233034
410.572891	11726.926161
410.953545	12213.604195
411.334138	11691.875019
411.714669	12286.186728
412.095139	11603.201123
412.475547	12106.492278
412.855894	11943.973040
413.236180	12278.057867
413.616405	11956.855709
413.996568	12240.614697
414.376670	12209.089842
414.756711	12089.732962
415.136691	12365.244623
415.516609	12539.098896
415.896466	12610.148918
416.276262	12911.388107
416.655997	13364.368548
417.035670	13387.976271
417.415283	14032.109704
417.794834	14123.717552
418.174324	13873.325961
418.553753	13770.415846
418.933121	14260.216874
419.312428	14072.774172
419.691674	13985.219412
420.070859	14438.630871
420.449983	14089.475514
420.829045	14657.419468
421.208047	14382.900915
421.586988	14841.759341
421.965867	15095.790645
422.344686	15100.171408
422.723444	15660.394835
423.102141	14351.592829
423.480777	15539.056782
423.859352	15046.694848
424.237866	16149.474978
424.616319	15851.590677
424.994712	16510.129206
425.373044	16302.116075
425.751314	16977.015670
426.129524	16111.174812
426.507673	17197.888784
426.885762	16886.980662
427.263789	17090.176971
427.641756	17237.454280
428.019662	17304.925083
428.397508	17348.614243
428.775292	17652.331160
429.153016	17618.149616
429.530679	17700.297738
429.908282	17719.244915
430.285824	17430.482582
430.663305	18150.049320
431.040726	17744.959841
431.418086	17572.880054
431.795385	18226.904231
432.172624	18632.351632
432.549802	18193.317543
432.926920	18380.407366
433.303977	18264.178522
433.680974	18526.411784
434.057910	18812.706473
434.434786	18834.867385
434.811601	18744.870186
435.188355	19793.823396
435.565050	19440.574622
435.941683	19388.870028
436.318257	20267.462485
436.694770	20076.206149
437.071222	20666.512662
437.447614	19736.291227
437.823946	19759.077243
438.200218	19913.084493
438.576429	19683.533032
438.952580	19959.208530
439.328670	19923.552449
439.704700	20344.166161
440.080670	19902.432535
440.456580	20498.216261
440.832429	20671.969711
441.208218	19667.355969
441.583947	20106.427866
441.959616	20218.308714
442.335224	20444.928744
442.710773	20580.974363
443.086261	21114.262905
443.461689	20475.702468
443.837057	20599.513206
444.212365	21233.695401
444.587612	21226.027806
444.962800	20820.139304
445.337927	21235.187583
445.712995	19968.559870
446.088002	21808.132362
446.462949	21989.807984
446.837837	22168.436230
447.212664	22133.833750
447.587431	24966.861388
447.962139	27893.631803
448.336786	30252.395249
448.711374	28677.432924
449.085901	25003.324054
449.460369	24954.071981
449.834776	24865.924885
450.209124	27332.957193
450.583412	26848.494747
450.957640	27363.118416
451.331808	26029.503852
451.705917	24659.038452
452.079965	24677.272306
452.453954	25017.086404
452.827883	24902.327057
453.201752	24699.108063
453.575562	24845.094838
453.949311	25932.691012
454.323001	25986.349054
454.696632	25727.261473
455.070202	27246.274552
455.443713	27349.018309
455.817164	27909.768537
456.190556	28405.644155
456.563888	27827.038161
456.937160	28223.484582
457.310373	26554.532463
457.683526	26962.460112
458.056619	26906.354590
458.429653	26801.823744
458.802628	27321.110481
459.175542	27406.653821
459.548398	28614.957904
459.921194	30104.301273
460.293930	30677.447698
460.666607	32553.666857
461.039224	34194.794327
461.411782	34485.326105
461.784280	33255.551748
462.156719	32698.801676
462.529099	32071.072158
462.901419	30772.402872
463.273680	29681.260245
463.645882	29665.839355
464.018024	29553.114114
464.390106	30247.941390
464.762130	32669.366379
465.134094	36343.578592
465.505999	41181.805831
465.877845	45358.159817
466.249631	46321.985583
466.621358	44511.167833
466.993026	42340.255423
467.364634	40244.594837
467.736184	38246.399920
468.107674	36937.587832
468.479105	36061.926806
468.850477	35265.280825
469.221790	33810.484484
469.593043	32113.881636
469.964238	31164.014826
470.335373	30927.438517
470.706449	32246.809302
471.077467	34302.160821
471.448425	38099.999771
471.819324	40420.367269
472.190164	38579.310158
472.560945	35288.293693
472.931667	32438.274845
473.302330	31313.283391
473.672934	30424.991754
474.043479	30651.276547
474.413965	29795.006320
474.784393	29292.055442
475.154761	29817.444496
475.525070	29638.352464
475.895321	29062.972808
476.265513	29327.167078
476.635645	29885.237932
477.005719	29527.361380
477.375734	29673.219605
477.745691	29975.325872
478.115588	30774.263057
478.485427	32030.453061
478.855207	34342.379147
479.224928	36100.925172
479.594591	37103.837524
479.964194	36006.383373
480.333739	35809.899361
480.703226	35497.095764
481.072653	35650.767778
481.442022	35720.683540
481.811333	35598.662412
482.180584	34286.344201
482.549777	33580.721294
482.918912	32852.985366
483.287988	32322.663543
483.657005	31408.500705
484.025964	30649.708749
484.394864	30328.352835
484.763706	29718.000174
485.132489	28819.250664
485.501213	28397.875737
485.869879	28159.504777
486.238487	27579.671262
486.607036	27381.022074
486.975527	26733.195996
487.343959	26532.890789
487.712333	26262.150581
488.080648	25906.313175
488.448905	25841.252043
488.817104	25409.966208
489.185244	25610.999862
489.553326	26222.930404
489.921350	27420.118743
490.289315	28822.519852
490.657222	28829.781634
491.025070	28613.783315
491.392861	27658.371235
491.760593	26539.943364
492.128267	25242.115950
492.495883	24087.787501
492.863440	23027.209390
493.230939	22014.411336
493.598380	21194.928928
493.965763	20711.850279
494.333088	20041.833042
494.700354	19512.448873
495.067563	19086.897351
495.434713	18736.733763
495.801805	18460.349983
496.168839	18012.151077
496.535815	17570.026761
496.902733	17295.480482
497.269593	16849.403901
497.636395	16555.025723
498.003139	16419.922799
498.369825	15953.369052
498.736453	15789.377797
499.103023	15355.904101
499.469535	15049.291042
499.835989	14822.434078
500.202385	14455.208705
500.568723	14209.066807
500.935003	14013.008772
501.301226	13708.933934
501.667390	13642.776351
502.033497	13471.412409
502.399546	13052.061505
502.765537	12610.103548
503.131470	12465.072072
503.497345	12318.785349
503.863163	11765.039805
504.228923	11681.339007
504.594625	11557.099771
504.960269	11166.523773
505.325856	11098.574061
505.691385	10748.264280
506.056856	10569.666282
506.422270	10455.448859
506.787625	10150.451489
507.152924	9988.978291
507.518164	9808.227719
507.883347	9457.733937
508.248472	9311.643819
508.613540	9203.135503
508.978550	9068.095594
509.343503	8845.468158
509.708398	8690.936628
510.073236	8595.263090
510.438016	8418.137108
510.802738	8159.830906
511.167403	8076.941733
511.532010	7942.448790
511.896561	7814.282495
512.261053	7769.002851
512.625488	7538.014661
512.989866	7357.422886
513.354186	7188.319901
513.718449	7036.490429
514.082655	6963.824717
514.446803	6785.766122
514.810894	6708.966664
515.174927	6557.878242
515.538904	6413.192086
515.902822	6344.753381
516.266684	6167.342574
516.630488	6082.855356
516.994235	5946.013235
517.357925	5874.602770
517.721558	5778.041989
518.085133	5689.388257
518.448651	5584.839768
518.812112	5463.259740
519.175516	5366.157035
519.538863	5293.317403
519.902152	5191.907031
520.265385	5127.846569
520.628560	5042.774577
520.991678	4940.149288
521.354739	4871.324935
521.717743	4804.219615
522.080690	4721.398499
522.443580	4671.115510
522.806413	4601.872741
523.169189	4528.440774
523.531908	4466.177483
523.894569	4395.417327
524.257174	4339.891538
524.619722	4289.119557
524.982213	4231.509250
525.344647	4172.956248
525.707025	4118.975573
526.069345	4083.138010
526.431608	4031.377963
526.793815	3992.939165
527.155964	3934.693674
527.518057	3894.999628
527.880093	3847.280066
528.242072	3823.095130
528.603995	3776.895476
528.965860	3740.836103
529.327669	3705.709343
529.689421	3668.364475
530.051117	3636.930360
530.412755	3614.860188
530.774337	3587.098554
531.135862	3560.095614
531.497331	3537.145761
531.858743	3505.477232
532.220098	3492.355109
532.581396	3463.098773
532.942638	3433.923095
533.303824	3422.693924
533.664953	3400.374216
534.026025	3376.343035
534.387040	3371.490925
534.747999	3351.265816
535.108902	3340.029084
535.469748	3312.431287
535.830537	3300.680357
536.191270	3289.315076
536.551947	3275.061213
536.912567	3263.643000
537.273131	3254.405086
537.633638	3234.026221
537.994089	3229.219481
538.354483	3212.024105
538.714821	3212.281204
539.075103	3205.944474
539.435328	3192.230015
539.795497	3180.705937
540.155609	3173.237467
540.515665	3172.299813
540.875665	3156.074859
541.235609	3151.928510
541.595496	3142.486429
541.955328	3145.488436
542.315102	3127.541928
542.674821	3119.821401
543.034483	3113.968622
543.394090	3102.530244
543.753640	3095.961620
544.113134	3101.998402
544.472571	3084.177923
544.831953	3096.054882
545.191278	3077.488312
545.550548	3068.278124
545.909761	3067.705953
546.268918	3068.081519
546.628019	3065.649162
546.987064	3055.327400
547.346053	3038.689071
547.704986	3043.216028
548.063863	3033.670603
548.422684	3031.903678
548.781449	3025.917308
549.140158	3024.556197
549.498811	3019.373890
549.857408	3006.796212
550.215949	3010.811491
550.574434	3007.259998
550.932864	2999.191631
551.291237	3006.299658
551.649555	2997.712052
552.007817	2998.163236
552.366022	2990.621669
552.724173	2988.756443
553.082267	2988.557317
553.440305	2990.034375
553.798288	2978.674135
554.156215	2977.844865
554.514086	2976.042653
554.871902	2970.683906
555.229661	2968.017136
555.587365	2964.581589
555.945014	2961.546815
556.302606	2954.398458
556.660143	2955.923408
557.017625	2953.198664
557.375050	2953.352419
557.732421	2948.706996
558.089735	2946.269598
558.446994	2944.341357
558.804197	2942.317333
559.161345	2943.524690
559.518437	2931.199068
559.875474	2931.390632
560.232455	2933.311312
560.589381	2930.626898
560.946251	2927.874428
561.303065	2931.241918
561.659825	2926.460384
562.016528	2919.332192
562.373177	2915.085020
562.729770	2917.386307
563.086307	2910.285842
563.442789	2910.336253
563.799216	2912.483785
564.155587	2904.549009
564.511904	2904.448186
564.868164	2904.390212
565.224370	2902.562794
565.580520	2897.990468
565.936615	2898.550036
566.292654	2896.110117
566.648638	2897.093142
567.004567	2891.436968
567.360441	2891.041237
567.716260	2887.429250
568.072023	2889.150804
568.427732	2884.061759
568.783385	2880.417005
569.138982	2877.815770
569.494525	2875.960625
569.850013	2870.707743
570.205445	2874.849051
570.560823	2868.799666
570.916145	2868.519882
571.271412	2866.712628
571.626625	2861.759695
571.981782	2859.942359
572.336884	2858.944210
572.691931	2859.022348
573.046923	2855.329703
573.401860	2849.759228
573.756743	2848.289732
574.111570	2847.455421
574.466342	2843.417457
574.821059	2844.748321
575.175722	2835.419666
575.530330	2838.356138
575.884882	2832.551249
576.239380	2830.363389
576.593823	2829.236691
576.948211	2821.702686
577.302544	2816.220432
577.656823	2814.934937
578.011047	2818.320072
578.365216	2812.547951
578.719330	2805.074440
579.073389	2802.503452
579.427394	2806.322126
579.781344	2800.252577
580.135239	2795.481125
580.489080	2793.555404
580.842866	2789.280505
581.196597	2788.821760
581.550273	2788.937707
581.903895	2783.795730
582.257463	2786.749846
582.610975	2780.304731
582.964434	2780.793723
583.317837	2771.283586
583.671186	2771.175201
584.024481	2770.724018
584.377721	2763.928543
584.730906	2762.471649
585.084037	2762.353182
585.437113	2757.309508
585.790135	2752.464959
586.143103	2747.597725
586.496016	2749.793147
586.848874	2744.552868
587.201679	2742.433063
587.554428	2736.124059
587.907124	2737.281003
588.259765	2731.823954
588.612352	2733.946280
588.964884	2728.262379
589.317362	2728.242215
589.669786	2725.383880
590.022155	2724.174003
590.374470	2723.339692
590.726731	2715.848538
591.078937	2712.261757
591.431090	2712.891901
591.783188	2706.572815
592.135232	2702.854964
592.487222	2701.990406
592.839157	2700.654500
593.191038	2696.482945
593.542866	2694.678212
593.894639	2690.060515
594.246358	2689.304342
594.598022	2686.554393
594.949633	2685.203364
595.301190	2683.499454
595.652692	2680.404185
596.004141	2679.315296
596.355535	2675.476457
596.706876	2672.441683
597.058162	2667.887000
597.409395	2669.222906
597.760573	2669.124603
598.111698	2666.137720
598.462768	2663.002122
598.813785	2664.476660
599.164748	2655.102634
599.515657	2660.105979
599.866511	2654.938797
600.217312	2655.667243
600.568060	2647.558547
600.918753	2655.130360
601.269392	2654.129691
601.619978	2647.656850
601.970510	2650.305976
602.320988	2650.248003
602.671412	2650.651295
603.021783	2645.786582
603.372100	2644.186015
603.722363	2643.470172
604.072572	2641.582259
604.422728	2642.424132
604.772830	2639.734677
605.122878	2635.447175
605.472872	2638.025725
605.822813	2634.925416
606.172701	2636.069758
606.522534	2637.430869
606.872314	2636.730149
607.222041	2636.788122
607.571714	2638.262660
607.921333	2632.233440
608.270899	2636.215951
608.620411	2634.935498
608.969870	2631.235291
609.319276	2630.501803
609.668627	2633.443317
610.017926	2631.941053
610.367171	2636.326857
610.716362	2631.484828
611.065500	2631.928450
611.414585	2631.419293
611.763616	2634.567494
612.112594	2633.213944
612.461518	2632.722432
612.810389	2631.099180
613.159207	2631.152112
613.507971	2631.608337
613.856682	2630.789149
614.205340	2630.191772
614.553945	2633.972638
614.902496	2631.817544
615.250994	2631.804942
615.599439	2631.552884
615.947830	2633.728142
616.296169	2632.666979
616.644454	2634.285189
616.992686	2632.593882
617.340864	2634.098667
617.688990	2630.252266
618.037063	2635.154788
618.385082	2634.998512
618.733048	2634.801907
619.080961	2635.618574
619.428821	2634.161681
619.776628	2633.634880
620.124382	2633.057668
620.472083	2632.793008
620.819731	2629.889303
621.167326	2628.603809
621.514868	2628.934004
621.862357	2625.621966
622.209793	2625.720269
622.557176	2621.546193
622.904506	2621.475617
623.251783	2616.056377
623.599007	2616.973867
623.946179	2611.962960
624.293297	2613.873557
624.640363	2612.522528
624.987376	2612.542693
625.334336	2611.751232
625.681243	2608.272835
626.028097	2607.665376
626.374899	2610.120418
626.721647	2606.659666
627.068343	2606.710078
627.414987	2605.059100
627.761577	2602.722525
628.108115	2606.485746
628.454600	2601.084150
628.801032	2603.072885
629.147412	2602.992227
629.493739	2599.160950
629.840014	2598.588779
630.186236	2602.634305
630.532405	2598.399736
630.878521	2598.921495
631.224585	2598.679520
631.570597	2597.217585
631.916556	2596.300095
632.262462	2598.810590
632.608316	2595.579210
632.954117	2593.517378
633.299866	2597.399067
633.645562	2594.870928
633.991206	2593.288006
634.336797	2586.132088
634.682336	2588.115782
635.027823	2585.890112
635.373257	2585.890112
635.718639	2583.261151
636.063968	2585.701069
636.409245	2579.807960
636.754470	2583.908939
637.099642	2580.922055
637.444762	2575.840572
637.789829	2576.800912
638.134845	2576.135480
638.479808	2576.584142
638.824719	2573.178843
639.169577	2571.908472
639.514383	2570.504511
639.859137	2571.013667
640.203839	2572.838565
640.548489	2571.764799
