Dividing Wavelength (nm)	Counts (n)	Blue Motor Position (mm): 0.000000	Red Motor Position (mm): 5.800000	
326.493990	1976.449900
326.888308	1976.449900
327.282561	1976.449900
327.676750	1949.706579
328.070874	1952.650613
328.464933	1958.604216
328.858929	1969.888839
329.252859	1979.207412
329.646726	1995.064361
330.040528	2011.884171
330.434265	2027.879752
330.827938	2050.486806
331.221547	2066.565567
331.615091	2089.956520
332.008571	2110.118615
332.401986	2130.860443
332.795338	2150.725109
333.188625	2168.212872
333.581847	2189.940245
333.975006	2207.271732
334.368100	2224.310832
334.761129	2243.426888
335.154095	2259.304002
335.546996	2273.575508
335.939833	2285.167641
336.332606	2298.302368
336.725315	2309.019861
337.117960	2317.357929
337.510540	2323.142653
337.903056	2333.721515
338.295508	2337.928358
338.687896	2348.610563
339.080220	2353.014010
339.472480	2361.115145
339.864676	2362.047758
340.256807	2365.632018
340.648875	2369.145703
341.040879	2369.735518
341.432818	2368.986906
341.824694	2370.285003
342.216506	2369.637215
342.608253	2370.642925
342.999937	2368.878522
343.391557	2369.554036
343.783113	2367.988758
344.174605	2364.938860
344.566033	2364.119672
344.957397	2364.336442
345.348697	2361.730165
345.739934	2361.183200
346.131106	2358.566841
346.522215	2353.916377
346.913260	2353.228259
347.304241	2351.269771
347.695159	2351.884792
348.086012	2349.790193
348.476802	2348.010665
348.867528	2346.556292
349.258191	2348.204750
349.648789	2345.054028
350.039324	2342.818277
350.429796	2344.832218
350.820203	2340.464058
351.210548	2342.364573
351.600828	2340.643019
351.991045	2340.459017
352.381198	2342.510766
352.771288	2341.210149
353.161314	2341.172340
353.551276	2341.179902
353.941175	2340.912721
354.331010	2343.680314
354.720782	2339.899449
355.110490	2339.791064
355.500135	2344.660818
355.889717	2342.329285
356.279235	2343.002279
356.668689	2342.966991
357.058080	2341.885663
357.447408	2342.165447
357.836672	2341.472289
358.225873	2342.505725
358.615010	2338.926506
359.004084	2343.894563
359.393095	2344.728874
359.782043	2349.606190
360.170927	2345.482527
360.559748	2345.976560
360.948505	2347.826663
361.337199	2349.921262
361.725830	2347.652743
362.114398	2350.100223
362.502903	2349.752384
362.891344	2349.528053
363.279722	2350.715244
363.668037	2349.220542
364.056289	2350.289267
364.444478	2349.182733
364.832603	2352.151973
365.220665	2353.140039
365.608665	2355.640452
365.996601	2352.328413
366.384474	2351.942765
366.772284	2356.704135
367.160031	2353.626511
367.547715	2353.414782
367.935336	2354.445698
368.322893	2357.301512
368.710388	2356.885617
369.097820	2359.373426
369.485189	2355.786645
369.872495	2359.005422
370.259738	2358.183714
370.646918	2362.612367
371.034035	2362.302336
371.421090	2365.395084
371.808081	2367.870291
372.195010	2368.906248
372.581875	2378.048380
372.968678	2382.913094
373.355418	2389.741337
373.742096	2398.346586
374.128710	2406.656928
374.515262	2419.416089
374.901751	2431.391350
375.288177	2447.908690
375.674540	2466.296299
376.060841	2485.334217
376.447079	2507.384223
376.833254	2528.279806
377.219367	2551.269988
377.605417	2588.700556
377.991404	2612.741818
378.377329	2650.283291
378.763191	2673.318843
379.148991	2717.267623
379.534727	2758.353027
379.920402	2794.823254
380.306013	2831.883297
380.691563	2882.723333
381.077049	2926.747730
381.462474	2966.784573
381.847835	3018.824405
382.233134	3066.702763
382.618371	3106.656428
383.003545	3158.275323
383.388657	3207.902962
383.773706	3262.624687
384.158693	3297.769091
384.543618	3346.532172
384.928480	3382.543655
385.313280	3431.011828
385.698017	3478.701144
386.082692	3532.938918
386.467305	3549.715878
386.851856	3601.148250
387.236344	3664.225687
387.620770	3667.567972
388.005133	3705.341338
388.389435	3753.282711
388.773674	3761.346037
389.157851	3796.200575
389.541965	3820.733350
389.926018	3793.064977
390.310008	3840.779498
390.693936	3854.670398
391.077802	3856.013865
391.461606	3872.506000
391.845348	3873.166391
392.229027	3871.197820
392.612645	3907.327770
392.996200	3900.877614
393.379694	3914.909665
393.763125	3934.948252
394.146494	3908.431783
394.529801	3894.273702
394.913047	3910.125610
395.296230	3845.152699
395.679351	3795.540183
396.062410	3805.461174
396.445408	3713.029098
396.828343	3687.861137
397.211217	3651.456445
397.594028	3564.829257
397.976778	3541.380330
398.359466	3516.023326
398.742092	3445.946247
399.124656	3413.869385
399.507158	3389.147566
399.889598	3329.503154
400.271977	3306.518013
400.654294	3249.018613
401.036549	3219.374107
401.418742	3165.940397
401.800874	3146.184115
402.182944	3103.611571
402.564952	3084.372008
402.946898	3014.446163
403.328783	2970.958649
403.710606	2939.282559
404.092367	2913.159299
404.474067	2890.693397
404.855705	2837.030315
405.237282	2793.918367
405.618797	2781.096192
406.000250	2755.046030
406.381642	2734.195817
406.762972	2703.381764
407.144240	2667.045127
407.525447	2644.906900
407.906593	2617.704834
408.287677	2600.804366
408.668700	2580.964905
409.049661	2558.672923
409.430560	2546.286808
409.811399	2525.310567
410.192176	2514.240193
410.572891	2500.918944
410.953545	2494.269662
411.334138	2475.662763
411.714669	2471.642443
412.095139	2458.399332
412.475547	2454.079063
412.855894	2445.982970
413.236180	2440.853596
413.616405	2436.871084
413.996568	2431.109045
414.376670	2426.806420
414.756711	2426.140988
415.136691	2423.312901
415.516609	2419.620256
415.896466	2415.640265
416.276262	2418.778383
416.655997	2415.352919
417.035670	2409.535427
417.415283	2413.543145
417.794834	2407.955026
418.174324	2414.450552
418.553753	2407.478637
418.933121	2411.806467
419.312428	2408.575087
419.691674	2405.626012
420.070859	2404.305230
420.449983	2404.940416
420.829045	2402.979407
421.208047	2403.677607
421.586988	2404.758934
421.965867	2403.609551
422.344686	2401.673748
422.723444	2401.915723
423.102141	2401.315826
423.480777	2401.472102
423.859352	2399.450599
424.237866	2402.412277
424.616319	2401.209962
424.994712	2400.478994
425.373044	2402.956722
425.751314	2402.308933
426.129524	2401.053686
426.507673	2402.069478
426.885762	2402.593758
427.263789	2403.949829
427.641756	2403.478481
428.019662	2401.189797
428.397508	2403.571742
428.775292	2402.669376
429.153016	2401.096536
429.530679	2400.156361
429.908282	2401.409087
430.285824	2403.445713
430.663305	2401.179715
431.040726	2403.395302
431.418086	2399.165774
431.795385	2404.101063
432.172624	2400.688202
432.549802	2402.868501
432.926920	2402.084602
433.303977	2400.985630
433.680974	2401.646022
434.057910	2401.928326
434.434786	2403.032339
434.811601	2403.450755
435.188355	2403.927144
435.565050	2403.049983
435.941683	2403.665004
436.318257	2401.411608
436.694770	2398.444889
437.071222	2401.013357
437.447614	2396.889693
437.823946	2399.178377
438.200218	2401.313305
438.576429	2402.871022
438.952580	2402.220713
439.328670	2404.136352
439.704700	2401.832544
440.080670	2404.174160
440.456580	2407.644995
440.832429	2404.900086
441.208218	2402.538306
441.583947	2403.067627
441.959616	2405.489901
442.335224	2404.327915
442.710773	2405.986455
443.086261	2405.321023
443.461689	2400.393295
443.837057	2405.545354
444.212365	2406.669531
444.587612	2404.821948
444.962800	2406.377144
445.337927	2406.329253
445.712995	2405.250447
446.088002	2406.296486
446.462949	2407.874367
446.837837	2407.057700
447.212664	2407.581980
447.587431	2411.733370
447.962139	2410.780592
448.336786	2415.426016
448.711374	2413.467527
449.085901	2409.270767
449.460369	2410.682290
449.834776	2414.768145
450.209124	2412.887795
450.583412	2415.877199
450.957640	2413.896025
451.331808	2412.597928
451.705917	2409.422001
452.079965	2409.477454
452.453954	2409.598442
452.827883	2412.134142
453.201752	2409.797567
453.575562	2411.599780
453.949311	2413.033988
454.323001	2410.790675
454.696632	2408.796898
455.070202	2414.846283
455.443713	2412.595408
455.817164	2411.740932
456.190556	2411.624986
456.563888	2412.076169
456.937160	2406.566188
457.310373	2411.448545
457.683526	2415.060532
458.056619	2415.136149
458.429653	2415.194123
458.802628	2414.629513
459.175542	2412.701272
459.548398	2415.108423
459.921194	2416.499781
460.293930	2418.168403
460.666607	2421.956830
461.039224	2421.850966
461.411782	2422.534043
461.784280	2421.356933
462.156719	2422.050092
462.529099	2418.624628
462.901419	2417.455080
463.273680	2416.862744
463.645882	2414.621952
464.018024	2415.373083
464.390106	2419.905081
464.762130	2422.758374
465.134094	2423.839701
465.505999	2427.955803
465.877845	2435.628440
466.249631	2437.377720
466.621358	2434.715991
466.993026	2431.855136
467.364634	2432.008891
467.736184	2427.648293
468.107674	2425.626790
468.479105	2428.497728
468.850477	2424.691656
469.221790	2419.927766
469.593043	2422.823909
469.964238	2421.674526
470.335373	2418.985070
470.706449	2422.544125
471.077467	2424.618560
471.448425	2428.802717
471.819324	2432.528130
472.190164	2428.253232
472.560945	2427.691143
472.931667	2424.421955
473.302330	2421.278795
473.672934	2419.340472
474.043479	2420.091603
474.413965	2417.674370
474.784393	2416.593043
475.154761	2417.795358
475.525070	2415.055491
475.895321	2418.216294
476.265513	2416.071283
476.635645	2421.919022
477.005719	2422.624783
477.375734	2421.051943
477.745691	2420.477252
478.115588	2422.483631
478.485427	2425.127716
478.855207	2430.095773
479.224928	2429.498397
479.594591	2432.036617
479.964194	2430.322625
480.333739	2433.102822
480.703226	2430.529312
481.072653	2431.993768
481.442022	2432.555856
481.811333	2432.782708
482.180584	2430.748603
482.549777	2429.841195
482.918912	2428.207861
483.287988	2427.711307
483.657005	2430.746082
484.025964	2430.310022
484.394864	2427.179466
484.763706	2428.885896
485.132489	2426.219126
485.501213	2426.166194
485.869879	2425.520926
486.238487	2430.027718
486.607036	2427.181986
486.975527	2425.248704
487.343959	2425.820875
487.712333	2424.122006
488.080648	2425.954465
488.448905	2429.195927
488.817104	2426.473704
489.185244	2427.071081
489.553326	2430.070567
489.921350	2431.333377
490.289315	2432.442430
490.657222	2435.746907
491.025070	2433.942174
491.392861	2434.436207
491.760593	2433.291865
492.128267	2428.323808
492.495883	2429.758016
492.863440	2428.076791
493.230939	2426.239291
493.598380	2425.888930
493.965763	2423.033117
494.333088	2421.596388
494.700354	2425.004208
495.067563	2426.140988
495.434713	2421.929104
495.801805	2426.216605
496.168839	2425.636873
496.535815	2425.992274
496.902733	2425.805751
497.269593	2425.296595
497.636395	2423.829619
498.003139	2423.756522
498.369825	2431.048551
498.736453	2427.502100
499.103023	2427.383633
499.469535	2426.960176
499.835989	2427.371030
500.202385	2430.609971
500.568723	2430.567121
500.935003	2428.704415
501.301226	2429.480753
501.667390	2433.609458
502.033497	2434.395877
502.399546	2435.078954
502.765537	2436.190528
503.131470	2437.334870
503.497345	2437.216403
503.863163	2438.827052
504.228923	2440.573812
504.594625	2437.670107
504.960269	2439.033739
505.325856	2440.576332
505.691385	2442.237392
506.056856	2444.407609
506.422270	2446.547579
506.787625	2449.473969
507.152924	2448.944647
507.518164	2449.113526
507.883347	2450.298197
508.248472	2451.810543
508.613540	2452.302056
508.978550	2456.556790
509.343503	2454.512602
509.708398	2457.867490
510.073236	2457.930504
510.438016	2460.035186
510.802738	2459.251287
511.167403	2460.577110
511.532010	2460.940073
511.896561	2461.867645
512.261053	2464.027780
512.625488	2459.266410
512.989866	2458.560648
513.354186	2461.587861
513.718449	2457.219702
514.082655	2461.892851
514.446803	2460.967799
514.810894	2462.026442
515.174927	2463.778243
515.538904	2461.292954
515.902822	2460.756071
516.266684	2457.776749
516.630488	2458.326235
516.994235	2458.406893
517.357925	2453.655606
517.721558	2455.067129
518.085133	2452.826336
518.448651	2453.214505
518.812112	2452.871706
519.175516	2452.586881
519.538863	2452.826336
519.902152	2449.642847
520.265385	2446.580346
520.628560	2443.311158
520.991678	2442.802002
521.354739	2441.254367
521.717743	2439.142124
522.080690	2439.379058
522.443580	2441.284614
522.806413	2435.515014
523.169189	2436.137596
523.531908	2433.695157
523.894569	2432.245825
524.257174	2433.221289
524.619722	2430.756164
524.982213	2429.815989
525.344647	2431.174580
525.707025	2429.818510
526.069345	2428.631318
526.431608	2429.072419
526.793815	2426.516554
527.155964	2426.909764
527.518057	2424.058992
527.880093	2421.072108
528.242072	2423.380956
528.603995	2421.268713
528.965860	2423.660740
529.327669	2423.259969
529.689421	2419.814340
530.051117	2420.953641
530.412755	2418.987591
530.774337	2421.430030
531.135862	2421.049423
531.497331	2416.172106
531.858743	2412.461817
532.220098	2416.766963
532.581396	2415.065573
532.942638	2415.811664
533.303824	2415.761252
533.664953	2416.361150
534.026025	2417.702097
534.387040	2418.790986
534.747999	2417.792837
535.108902	2418.072621
535.469748	2414.669843
535.830537	2415.564647
536.191270	2415.978022
536.551947	2417.034144
536.912567	2414.105233
537.273131	2415.776376
537.633638	2416.197312
537.994089	2415.035326
538.354483	2414.160686
538.714821	2416.867786
539.075103	2417.419792
539.435328	2415.199164
539.795497	2416.900553
540.155609	2414.553896
540.515665	2415.647826
540.875665	2416.343506
541.235609	2411.393092
541.595496	2414.984915
541.955328	2412.353432
542.315102	2413.548186
542.674821	2413.603638
543.034483	2414.836201
543.394090	2415.819226
543.753640	2416.920718
544.113134	2414.886612
544.472571	2414.460635
544.831953	2413.918711
545.191278	2411.138514
545.550548	2413.291087
545.909761	2416.530028
546.268918	2412.451735
546.628019	2415.383166
546.987064	2411.168761
547.346053	2415.604977
547.704986	2414.301838
548.063863	2415.446180
548.422684	2414.778227
548.781449	2410.964594
549.140158	2412.660943
549.498811	2413.964081
549.857408	2413.480130
550.215949	2413.742270
550.574434	2411.753535
550.932864	2412.683628
551.291237	2407.854202
551.649555	2413.114647
552.007817	2414.107754
552.366022	2413.328896
552.724173	2413.429719
553.082267	2413.727147
553.440305	2412.403844
553.798288	2413.074317
554.156215	2414.014492
554.514086	2412.071128
554.871902	2414.004410
555.229661	2410.253792
555.587365	2413.933834
555.945014	2413.313772
556.302606	2415.438618
556.660143	2412.822260
557.017625	2412.154307
557.375050	2412.411406
557.732421	2414.047260
558.089735	2412.119019
558.446994	2413.727147
558.804197	2416.305697
559.161345	2413.850655
559.518437	2411.778741
559.875474	2412.234965
560.232455	2411.012485
560.589381	2412.229924
560.946251	2412.446694
561.303065	2414.483320
561.659825	2414.165727
562.016528	2412.454255
562.373177	2414.324523
562.729770	2414.170768
563.086307	2411.965263
563.442789	2409.321178
563.799216	2416.139339
564.155587	2410.470561
564.511904	2412.653381
564.868164	2411.335119
565.224370	2411.045253
565.580520	2413.598597
565.936615	2412.580284
566.292654	2412.686148
566.648638	2412.202198
567.004567	2410.405026
567.360441	2414.125398
567.716260	2415.864596
568.072023	2411.778741
568.427732	2408.312948
568.783385	2410.372259
569.138982	2406.780437
569.494525	2410.861251
569.850013	2408.948133
570.205445	2413.223031
570.560823	2412.131622
570.916145	2415.055491
571.271412	2411.357804
571.626625	2411.695562
571.981782	2411.307393
572.336884	2412.918042
572.691931	2411.899728
573.046923	2410.921745
573.401860	2412.119019
573.756743	2411.592218
574.111570	2409.154820
574.466342	2412.847465
574.821059	2411.861920
575.175722	2411.282187
575.530330	2411.377969
575.884882	2408.675911
576.239380	2409.711868
576.593823	2413.868299
576.948211	2410.344532
577.302544	2412.890315
577.656823	2411.675397
578.011047	2413.185223
578.365216	2411.062897
578.719330	2411.982908
579.073389	2409.152300
579.427394	2413.470048
579.781344	2408.963256
580.135239	2412.754204
580.489080	2409.709347
580.842866	2408.489388
581.196597	2411.841755
581.550273	2410.740263
581.903895	2411.655233
582.257463	2410.117681
582.610975	2410.294121
582.964434	2412.751683
583.317837	2411.942578
583.671186	2411.924934
584.024481	2409.180026
584.377721	2411.012485
584.730906	2411.738412
585.084037	2410.006775
585.437113	2406.888822
585.790135	2408.292783
586.143103	2410.273956
586.496016	2411.607342
586.848874	2404.469068
587.201679	2408.610376
587.554428	2408.275139
587.907124	2407.677762
588.259765	2405.381517
588.612352	2409.525345
588.964884	2407.322361
589.317362	2407.823956
589.669786	2407.196332
590.022155	2407.574418
590.374470	2407.264388
590.726731	2407.687844
591.078937	2411.375448
591.431090	2406.669531
591.783188	2409.880746
592.135232	2409.492578
592.487222	2411.440983
592.839157	2409.469892
593.191038	2412.126580
593.542866	2408.474264
593.894639	2407.937382
594.246358	2409.117012
594.598022	2410.183216
594.949633	2408.285221
595.301190	2408.375962
595.652692	2408.428894
596.004141	2408.580129
596.355535	2410.725140
596.706876	2407.889491
597.058162	2408.469223
597.409395	2408.970818
597.760573	2405.381517
598.111698	2410.362177
598.462768	2407.758421
598.813785	2409.464851
599.164748	2407.685324
599.515657	2408.340674
599.866511	2407.753379
600.217312	2407.753379
600.568060	2408.559964
600.918753	2409.109450
601.269392	2409.986611
601.619978	2407.332443
601.970510	2408.340674
602.320988	2408.703637
602.671412	2408.305386
603.021783	2410.231107
603.372100	2411.173802
603.722363	2410.727660
604.072572	2408.839748
604.422728	2408.673390
604.772830	2404.222051
605.122878	2405.547875
605.472872	2404.401012
605.822813	2402.611403
606.172701	2409.225396
606.522534	2407.221538
606.872314	2407.760941
607.222041	2405.726836
607.571714	2407.859244
607.921333	2406.276321
608.270899	2410.047104
608.620411	2408.834707
608.969870	2409.469892
609.319276	2407.677762
609.668627	2408.801939
610.017926	2411.483833
610.367171	2408.386044
610.716362	2407.604665
611.065500	2408.043246
611.414585	2411.418298
611.763616	2408.693555
612.112594	2408.577608
612.461518	2409.099368
612.810389	2408.854872
613.159207	2408.912845
613.507971	2408.156672
613.856682	2409.013668
614.205340	2409.326219
614.553945	2407.934861
614.902496	2409.328740
615.250994	2408.716240
615.599439	2408.348236
615.947830	2411.531724
616.296169	2409.033832
616.644454	2409.623648
616.992686	2408.149110
617.340864	2409.790006
617.688990	2408.146589
618.037063	2409.542989
618.385082	2407.632392
618.733048	2404.774058
619.080961	2409.633730
619.428821	2410.694893
619.776628	2408.728843
620.124382	2408.653225
620.472083	2413.936355
620.819731	2407.904614
621.167326	2408.864954
621.514868	2409.149779
621.862357	2408.144069
622.209793	2410.140366
622.557176	2406.125087
622.904506	2407.650036
623.251783	2404.882442
623.599007	2408.053328
623.946179	2403.738100
624.293297	2404.292627
624.640363	2406.611558
624.987376	2407.266908
625.334336	2403.415467
625.681243	2407.929820
626.028097	2408.048287
626.374899	2408.194480
626.721647	2407.997875
627.068343	2407.521486
627.414987	2406.125087
627.761577	2408.731363
628.108115	2403.869170
628.454600	2406.513256
628.801032	2407.211455
629.147412	2406.049469
629.493739	2406.120046
629.840014	2409.036353
630.186236	2404.539644
630.532405	2407.589542
630.878521	2405.855385
631.224585	2405.298338
631.570597	2407.045097
631.916556	2408.612896
632.262462	2404.781619
632.608316	2405.462175
632.954117	2407.927299
633.299866	2404.516959
633.645562	2405.280693
633.991206	2406.344377
634.336797	2406.210786
634.682336	2409.109450
635.027823	2403.231464
635.373257	2407.355128
635.718639	2406.094840
636.063968	2404.166598
636.409245	2407.057700
636.754470	2406.825807
637.099642	2404.630385
637.444762	2406.636764
637.789829	2405.469737
638.134845	2403.896897
638.479808	2405.744480
638.824719	2405.101732
639.169577	2406.848492
639.514383	2405.537792
639.859137	2406.462844
640.203839	2404.897566
640.548489	2407.176167
640.893086	2398.104611
641.237632	2399.962276
641.582125	2400.456309
641.926566	2400.703326
642.270955	2403.952349
642.615292	2401.290620
642.959576	2406.016702
643.303809	2402.820610
643.647990	2401.915723
643.992118	2404.176681
644.336195	2404.307751
