Dividing Wavelength (nm)	Counts (n)	Blue Motor Position (mm): 0.000000	Red Motor Position (mm): 33.800000	
326.493990	1990.965903
326.888308	1990.965903
327.282561	1990.965903
327.676750	1967.814404
328.070874	1966.798611
328.464933	1975.121556
328.858929	1983.628503
329.252859	1995.543271
329.646726	2011.301917
330.040528	2028.414114
330.434265	2045.347350
330.827938	2062.779660
331.221547	2084.703638
331.615091	2105.198449
332.008571	2124.216202
332.401986	2144.557258
332.795338	2165.599034
333.188625	2187.540656
333.581847	2205.880374
333.975006	2222.997612
334.368100	2239.487226
334.761129	2258.449526
335.154095	2275.075251
335.546996	2297.135341
335.939833	2331.226143
336.332606	2345.666529
336.725315	2359.196986
337.117960	2368.439941
337.510540	2372.558564
337.903056	2382.459390
338.295508	2388.634803
338.687896	2394.477501
339.080220	2403.039901
339.472480	2408.060890
339.864676	2412.202198
340.256807	2414.614390
340.648875	2418.191088
341.040879	2422.148394
341.432818	2419.852149
341.824694	2420.729309
342.216506	2421.288878
342.608253	2420.323497
342.999937	2421.601429
343.391557	2418.422982
343.783113	2418.717889
344.174605	2416.711510
344.566033	2413.313772
344.957397	2412.136663
345.348697	2412.081210
345.739934	2409.338822
346.131106	2409.028791
346.522215	2407.864285
346.913260	2405.784809
347.304241	2404.307751
347.695159	2401.431773
348.086012	2402.177863
348.476802	2399.291803
348.867528	2399.609395
349.258191	2396.466236
349.648789	2394.880793
350.039324	2394.306102
350.429796	2397.358520
350.820203	2394.752244
351.210548	2391.384753
351.600828	2394.588406
351.991045	2396.209137
352.381198	2391.319218
352.771288	2394.951369
353.161314	2390.285781
353.551276	2392.932387
353.941175	2392.055226
354.331010	2393.330638
354.720782	2391.868704
355.110490	2393.431461
355.500135	2392.652603
355.889717	2393.875083
356.279235	2396.554456
356.668689	2396.970351
357.058080	2395.258880
357.447408	2393.345762
357.836672	2394.265772
358.225873	2397.441699
358.615010	2393.312994
359.004084	2401.278017
359.393095	2401.537637
359.782043	2403.060065
360.170927	2400.544529
360.559748	2404.867319
360.948505	2404.650549
361.337199	2406.067113
361.725830	2404.232133
362.114398	2408.285221
362.502903	2407.395458
362.891344	2409.661456
363.279722	2406.495612
363.668037	2409.691703
364.056289	2410.233627
364.444478	2412.131622
364.832603	2413.056673
365.220665	2416.918197
365.608665	2414.251427
365.996601	2414.372414
366.384474	2413.056673
366.772284	2416.204874
367.160031	2417.981881
367.547715	2415.211767
367.935336	2418.753177
368.322893	2420.099165
368.710388	2422.231573
369.097820	2427.242480
369.485189	2423.441450
369.872495	2428.487645
370.259738	2426.423293
370.646918	2430.491504
371.034035	2431.199786
371.421090	2436.677000
371.808081	2440.079778
372.195010	2444.947013
372.581875	2448.732919
372.968678	2456.559310
373.355418	2464.451237
373.742096	2473.043883
374.128710	2483.441263
374.515262	2499.605723
374.901751	2511.764986
375.288177	2528.443644
375.674540	2546.957281
376.060841	2568.258677
376.447079	2595.768253
376.833254	2621.102572
377.219367	2646.900677
377.605417	2683.451563
377.991404	2707.921323
378.377329	2752.298601
378.763191	2785.361008
379.148991	2832.531085
379.534727	2881.725185
379.920402	2932.691250
380.306013	2978.843013
380.691563	3042.976573
381.077049	3103.790532
381.462474	3158.887823
381.847835	3232.115624
382.233134	3308.048004
382.618371	3369.056048
383.003545	3456.202474
383.388657	3536.828168
383.773706	3627.296715
384.158693	3704.592727
384.543618	3801.294661
384.928480	3879.656877
385.313280	3984.013802
385.698017	4087.720419
386.082692	4213.071230
386.467305	4280.781488
386.851856	4408.526847
387.236344	4566.183893
387.620770	4633.493379
388.005133	4755.184312
388.389435	4898.723606
388.773674	4987.135362
389.157851	5122.755003
389.541965	5253.610754
389.926018	5279.378612
390.310008	5461.510460
390.693936	5587.514100
391.077802	5704.153797
391.461606	5843.798800
391.845348	5958.550585
392.229027	6080.153298
392.612645	6311.169214
392.996200	6426.581390
393.379694	6607.929338
393.763125	6829.528379
394.146494	6929.522186
394.529801	7070.074596
394.913047	7318.021228
395.296230	7309.877244
395.679351	7370.050977
396.062410	7634.260370
396.445408	7530.644494
396.828343	7693.113321
397.211217	7831.195566
397.594028	7711.543779
397.976778	7914.888802
398.359466	8082.423988
398.742092	8054.700163
399.124656	8208.593987
399.507158	8401.907113
399.889598	8417.459073
400.271977	8631.425807
400.654294	8667.528030
401.036549	8864.788380
401.418742	8896.255262
401.800874	9203.949649
402.182944	9283.559551
402.564952	9652.912290
402.946898	9471.912182
403.328783	9529.792190
403.710606	9730.677129
404.092367	9990.873764
404.474067	10358.651143
404.855705	10143.895469
405.237282	10089.511501
405.618797	10531.270333
406.000250	10781.871132
406.381642	11160.676035
406.762972	11099.685635
407.144240	10901.621221
407.525447	11155.511373
407.906593	11096.764287
408.287677	11359.466375
408.668700	11516.213492
409.049661	11483.014974
409.430560	11647.633853
409.811399	11624.298351
410.192176	11791.115173
410.572891	11866.056966
410.953545	12350.060668
411.334138	11825.332005
411.714669	12447.478445
412.095139	11739.163562
412.475547	12251.672468
412.855894	12081.576376
413.236180	12421.040114
413.616405	12098.050866
413.996568	12374.565717
414.376670	12354.549815
414.756711	12223.870505
415.136691	12512.582427
415.516609	12693.532123
415.896466	12768.967949
416.276262	13061.632136
416.655997	13500.283097
417.035670	13537.441442
417.415283	14201.764696
417.794834	14288.812820
418.174324	14033.606927
418.553753	13932.070527
418.933121	14433.761116
419.312428	14234.748965
419.691674	14151.983301
420.070859	14599.630201
420.449983	14263.586886
420.829045	14817.166072
421.208047	14560.490683
421.586988	15028.375295
421.965867	15286.469769
422.344686	15278.015754
422.723444	15849.264184
423.102141	14513.963353
423.480777	15725.360184
423.859352	15225.086159
424.237866	16344.078640
424.616319	16048.490584
424.994712	16712.312243
425.373044	16502.484297
425.751314	17185.696754
426.129524	16306.950542
426.507673	17406.216988
426.885762	17099.712313
427.263789	17306.190413
427.641756	17476.783059
428.019662	17538.398562
428.397508	17573.064057
428.775292	17885.970996
429.153016	17843.206888
429.530679	17928.062110
429.908282	17943.971992
430.285824	17655.539854
430.663305	18380.049444
431.040726	17973.939131
431.418086	17790.983055
431.795385	18458.918296
432.172624	18878.629641
432.549802	18423.103418
432.926920	18613.459908
433.303977	18503.706427
433.680974	18759.769316
434.057910	19040.506133
434.434786	19077.513243
434.811601	18986.210385
435.188355	20039.390602
435.565050	19684.987405
435.941683	19622.741758
436.318257	20519.936072
436.694770	20326.542287
437.071222	20920.957340
437.447614	19988.719445
437.823946	20028.398367
438.200218	20175.859678
438.576429	19948.012127
438.952580	20218.432223
439.328670	20177.291366
439.704700	20608.496543
440.080670	20163.027421
440.456580	20767.915471
440.832429	20949.477668
441.208218	19914.478372
441.583947	20377.208404
441.959616	20488.053295
442.335224	20725.413503
442.710773	20851.248265
443.086261	21401.843088
443.461689	20742.523179
443.837057	20876.174250
444.212365	21531.912419
444.587612	21534.092718
444.962800	21095.184658
445.337927	21526.551152
445.712995	20245.016747
446.088002	22128.170013
446.462949	22307.604843
446.837837	22490.744922
447.212664	22436.771808
447.587431	25309.017103
447.962139	28251.601617
448.336786	30658.203093
448.711374	29086.865357
449.085901	25369.357194
449.460369	25333.834703
449.834776	25244.235755
450.209124	27735.412669
450.583412	27277.950643
450.957640	27806.893710
451.331808	26453.394314
451.705917	25066.240175
452.079965	25103.295176
452.453954	25471.616999
452.827883	25356.895461
453.201752	25158.616798
453.575562	25317.498844
453.949311	26446.102285
454.323001	26504.075554
454.696632	26250.460145
455.070202	27823.867275
455.443713	27962.708214
455.817164	28562.850017
456.190556	29103.067625
456.563888	28532.250213
456.937160	28988.663680
457.310373	27288.642930
457.683526	27762.231608
458.056619	27741.973731
458.429653	27670.646445
458.802628	28241.849505
459.175542	28365.506488
459.548398	29674.774801
459.921194	31247.128329
460.293930	31914.937541
460.666607	33967.730675
461.039224	35708.088217
461.411782	36116.434282
461.784280	34924.282056
462.156719	34454.340653
462.529099	33899.470932
462.901419	32603.334825
463.273680	31538.338143
463.645882	31615.530811
464.018024	31593.901741
464.390106	32426.912084
464.762130	35136.491947
465.134094	39188.848672
465.505999	44503.293551
465.877845	49077.046736
466.249631	50272.581576
466.621358	48593.083364
466.993026	46487.123701
467.364634	44420.815233
467.736184	42432.080041
468.107674	41174.163442
468.479105	40389.401982
468.850477	39676.935708
469.221790	38252.378728
469.593043	36485.449264
469.964238	35604.411847
470.335373	35519.912027
470.706449	37246.005624
471.077467	39818.985342
471.448425	44391.107713
471.819324	47209.997436
472.190164	45374.863681
472.560945	41802.628968
472.931667	38686.906025
473.302330	37568.145437
473.672934	36760.905472
474.043479	37250.099041
474.413965	36454.035314
474.784393	36073.370225
475.154761	36978.607701
475.525070	36999.029415
475.895321	36545.454118
476.265513	37123.941646
476.635645	38102.570759
477.005719	37919.259282
477.375734	38377.968994
477.745691	39081.351108
478.115588	40428.095358
478.485427	42381.413924
478.855207	45748.922337
479.224928	48358.546202
479.594591	50018.706548
479.964194	49017.382160
480.333739	49175.813022
480.703226	49195.402946
481.072653	49849.628769
481.442022	50305.802780
481.811333	50568.706515
482.180584	49269.528072
482.549777	48762.561915
482.918912	48216.360457
483.287988	47927.041077
483.657005	47075.554904
484.025964	46446.187011
484.394864	46477.595920
484.763706	46035.738785
485.132489	45169.091342
485.501213	44982.145193
485.869879	45133.344520
486.238487	44719.687600
486.607036	44909.262711
486.975527	44358.912384
487.343959	44561.168518
487.712333	44633.206606
488.080648	44541.944077
488.448905	45012.200552
488.817104	44804.789839
489.185244	45760.446415
489.553326	47452.784446
489.921350	50131.313322
490.289315	53007.767980
490.657222	53587.659469
491.025070	53866.662129
491.392861	52978.113393
491.760593	51737.951738
492.128267	50055.378422
492.495883	48532.188746
492.863440	47134.246537
493.230939	45777.609023
493.598380	44669.465105
493.965763	44318.126929
494.333088	43510.017365
494.700354	43005.264274
495.067563	42724.146850
495.434713	42577.005652
495.801805	42622.302940
496.168839	42229.047569
496.535815	41886.750703
496.902733	41900.964236
497.269593	41486.483087
497.636395	41393.378017
498.003139	41788.110445
498.369825	41226.694786
498.736453	41525.408357
499.103023	41040.875334
499.469535	40874.398790
499.835989	40954.931223
500.202385	40598.972829
500.568723	40609.065219
500.935003	40771.191247
501.301226	40526.050018
501.667390	41124.437500
502.033497	41366.191074
502.399546	40763.894177
502.765537	40072.757026
503.131470	40429.431264
503.497345	40745.156208
503.863163	39381.614834
504.228923	39950.844282
504.594625	40323.630047
504.960269	39586.567985
505.325856	40215.303213
505.691385	39555.983304
506.056856	39652.649950
506.422270	40034.003156
506.787625	39570.453936
507.152924	39713.398374
507.518164	39775.172673
507.883347	38945.872619
508.248472	39149.010954
508.613540	39543.670286
508.978550	39793.018358
509.343503	39474.954318
509.708398	39608.592786
510.073236	40064.643289
510.438016	40017.029591
510.802738	39395.014221
511.167403	39940.146954
511.532010	40087.976270
511.896561	40301.020472
512.261053	41036.912987
512.625488	40505.429178
512.989866	40304.025000
513.354186	40082.592317
513.718449	39985.666052
514.082655	40542.267410
514.446803	40128.683587
514.810894	40531.983456
515.174927	40343.056134
515.538904	40144.354014
515.902822	40685.577332
516.266684	40031.328824
516.630488	40344.553356
516.994235	40090.360735
517.357925	40526.609586
517.721558	40551.154964
518.085133	40723.033105
518.448651	40729.064845
518.812112	40380.292617
519.175516	40356.316889
519.538863	40535.451770
519.902152	40365.547242
520.265385	40641.552935
520.628560	40537.526205
520.991678	40218.653060
521.354739	40291.376745
521.717743	40435.029465
522.080690	40187.571826
522.443580	40544.377133
522.806413	40440.451226
523.169189	40226.960881
523.531908	40223.091796
523.894569	39933.722003
524.257174	39932.842322
524.619722	40040.256707
524.982213	39856.751146
525.344647	39613.122262
525.707025	39487.035443
526.069345	39648.788426
526.431608	39417.152448
526.793815	39512.455461
527.155964	38950.412178
527.518057	38898.997450
527.880093	38526.599853
528.242072	38805.917585
528.603995	38352.364974
528.965860	38178.931637
529.327669	38085.980322
529.689421	37794.236146
530.051117	37572.503515
530.412755	37505.408278
530.774337	37368.850982
531.135862	37006.492843
531.497331	36986.328228
531.858743	36701.442542
532.220098	36779.277957
532.581396	36344.443150
532.942638	35870.695676
533.303824	35924.164674
533.664953	35679.850194
534.026025	35250.706850
534.387040	35432.122853
534.747999	35174.053585
535.108902	35096.568530
535.469748	34514.804252
535.830537	34401.683281
536.191270	34325.564378
536.551947	33837.595809
536.912567	33864.666805
537.273131	33731.650920
537.633638	33139.640497
537.994089	33184.758824
538.354483	32659.188289
538.714821	32850.772300
539.075103	32879.479150
539.435328	32499.711387
539.795497	32193.231918
540.155609	31968.346045
540.515665	32055.865517
540.875665	31460.843005
541.235609	31456.101800
541.595496	31211.822608
541.955328	31426.888314
542.315102	30770.335998
542.674821	30409.215463
543.034483	30201.436746
543.394090	29969.281529
543.753640	29706.289574
544.113134	30133.729008
544.472571	29266.690876
544.831953	29824.456741
545.191278	29098.885988
545.550548	28679.998871
545.909761	28738.632531
546.268918	28621.213976
546.628019	28568.596933
546.987064	28070.669564
547.346053	27385.725471
547.704986	27689.084465
548.063863	27198.194548
548.422684	27069.677892
548.781449	26755.147701
549.140158	26751.959171
549.498811	26434.643742
549.857408	25886.987912
550.215949	26127.713090
550.574434	25856.683015
550.932864	25495.456616
551.291237	25659.740258
551.649555	25201.890063
552.007817	25109.936896
552.366022	24687.810838
552.724173	24558.139758
553.082267	24545.438571
553.440305	24460.048986
553.798288	23882.405852
554.156215	23818.098373
554.514086	23698.068500
554.871902	23340.300332
555.229661	23126.048773
555.587365	22811.652172
555.945014	22639.663127
556.302606	22383.088561
556.660143	22260.492740
557.017625	22095.102565
557.375050	21775.435438
557.732421	21717.086602
558.089735	21486.385758
558.446994	21249.055797
558.804197	21232.518292
559.161345	20988.367649
559.518437	20448.681883
559.875474	20367.715911
560.232455	20220.239476
560.589381	20091.155691
560.946251	19756.468446
561.303065	19818.845163
561.659825	19532.694147
562.016528	19194.624288
562.373177	18891.678668
562.729770	18867.929792
563.086307	18489.959200
563.442789	18460.286969
563.799216	18274.618752
564.155587	18001.582298
564.511904	17793.352397
564.868164	17642.526115
565.224370	17532.132408
565.580520	17240.932677
565.936615	17123.088144
566.292654	16843.551122
566.648638	16733.164976
567.004567	16540.134154
567.360441	16371.318515
567.716260	16143.188659
568.072023	16055.139866
568.427732	15865.713469
568.783385	15560.249793
569.138982	15499.428272
569.494525	15324.485110
569.850013	15086.335961
570.205445	14904.057920
570.560823	14734.271859
570.916145	14537.545871
571.271412	14388.385690
571.626625	14155.890196
571.981782	14020.467159
572.336884	13786.124082
572.691931	13719.522878
573.046923	13453.274337
573.401860	13267.505297
573.756743	13113.903860
574.111570	12997.808608
574.466342	12806.428764
574.821059	12677.700380
575.175722	12418.396029
575.530330	12278.078032
575.884882	12082.672827
576.239380	11937.691762
576.593823	11799.697738
576.948211	11647.742237
577.302544	11419.579614
577.656823	11295.108485
578.011047	11211.309384
578.365216	11033.281036
578.719330	10869.211643
579.073389	10720.127080
579.427394	10619.674528
579.781344	10490.588222
580.135239	10311.080295
580.489080	10206.027690
580.842866	10004.762143
581.196597	9969.592533
581.550273	9846.568215
581.903895	9719.190860
582.257463	9682.612248
582.610975	9476.469385
582.964434	9418.410416
583.317837	9258.893185
583.671186	9127.785376
584.024481	9061.700890
584.377721	8893.028924
584.730906	8829.354110
585.084037	8741.212055
585.437113	8593.523892
585.790135	8498.835899
586.143103	8353.403652
586.496016	8276.394985
586.848874	8185.011469
587.201679	8095.346986
587.554428	7933.099970
587.907124	7873.947071
588.259765	7758.255111
588.612352	7704.032460
588.964884	7541.006586
589.317362	7492.813155
589.669786	7402.410143
590.022155	7296.477857
590.374470	7259.929491
590.726731	7123.795652
591.078937	6991.939232
591.431090	6925.635456
591.783188	6815.919784
592.135232	6705.412651
592.487222	6652.351986
592.839157	6591.769919
593.191038	6487.445761
593.542866	6392.979579
593.894639	6263.222800
594.246358	6222.563373
594.598022	6151.828423
594.949633	6055.025667
595.301190	5979.350386
595.652692	5903.251648
596.004141	5867.146904
596.355535	5725.755141
596.706876	5656.106560
597.058162	5582.099901
597.409395	5562.585594
597.760573	5510.094580
598.111698	5419.449592
598.462768	5367.926480
598.813785	5316.237009
599.164748	5220.432400
599.515657	5193.000962
599.866511	5107.941573
600.217312	5098.640644
600.568060	4977.524402
600.918753	4978.772088
601.269392	4923.452986
601.619978	4856.244323
601.970510	4824.323737
602.320988	4786.235299
602.671412	4761.205970
603.021783	4700.429819
603.372100	4637.425479
603.722363	4597.451649
604.072572	4563.126433
604.422728	4521.226882
604.772830	4465.000373
605.122878	4431.998459
605.472872	4393.864651
605.822813	4358.488354
606.172701	4322.184485
606.522534	4294.926966
606.872314	4267.853449
607.222041	4224.640678
607.571714	4201.993295
607.921333	4146.921209
608.270899	4129.211636
608.620411	4108.253039
608.969870	4063.686718
609.319276	4032.958365
609.668627	4002.839991
610.017926	3989.067559
610.367171	3965.454794
610.716362	3941.398408
611.065500	3907.005136
611.414585	3886.076786
611.763616	3868.155484
612.112594	3839.070547
612.461518	3819.263853
612.810389	3800.513282
613.159207	3773.895989
613.507971	3749.264912
613.856682	3740.190835
614.205340	3713.444993
614.553945	3708.923078
614.902496	3668.813138
615.250994	3660.507837
615.599439	3641.638798
615.947830	3625.320583
616.296169	3603.688992
616.644454	3586.453287
616.992686	3573.802511
617.340864	3569.018456
617.688990	3542.146585
618.037063	3537.153323
618.385082	3519.224459
618.733048	3511.211545
619.080961	3492.904595
619.428821	3477.110660
619.776628	3461.367136
620.124382	3436.441151
620.472083	3423.266095
620.819731	3404.576018
621.167326	3381.663973
621.514868	3364.314842
621.862357	3335.718897
622.209793	3320.666012
622.557176	3299.909061
622.904506	3275.283024
623.251783	3251.725712
623.599007	3234.179976
623.946179	3216.089796
624.293297	3207.711398
624.640363	3184.131401
624.987376	3172.632529
625.334336	3158.973523
625.681243	3141.092550
626.028097	3128.829943
626.374899	3117.704117
626.721647	3105.862446
627.068343	3098.484718
627.414987	3082.158941
627.761577	3072.197621
628.108115	3065.722259
628.454600	3051.034857
628.801032	3040.824000
629.147412	3037.471633
629.493739	3023.905888
629.840014	3016.762573
630.186236	3014.050432
630.532405	2998.884121
630.878521	2995.562000
631.224585	2987.309631
631.570597	2980.672952
631.916556	2974.593321
632.262462	2970.333546
632.608316	2964.584110
632.954117	2955.099179
633.299866	2948.170113
633.645562	2941.104936
633.991206	2928.403749
634.336797	2918.054260
634.682336	2911.868764
635.027823	2903.019018
635.373257	2895.910992
635.718639	2891.787328
636.063968	2883.968498
636.409245	2868.499718
636.754470	2867.151209
637.099642	2858.936649
637.444762	2851.871472
