Dividing Wavelength (nm)	Counts (n)	Blue Motor Position (mm): 0.000000	Red Motor Position (mm): 11.800000	
326.493990	1976.969139
326.888308	1976.969139
327.282561	1976.969139
327.676750	1954.634307
328.070874	1959.136057
328.464933	1962.291820
328.858929	1970.145937
329.252859	1982.695890
329.646726	1997.973107
330.040528	2012.509274
330.434265	2033.268745
330.827938	2050.864893
331.221547	2071.513459
331.615091	2091.161356
332.008571	2111.623400
332.401986	2132.012346
332.795338	2152.779380
333.188625	2174.126146
333.581847	2190.519978
333.975006	2210.240972
334.368100	2228.159753
334.761129	2246.527197
335.154095	2261.431368
335.546996	2275.380241
335.939833	2288.865328
336.332606	2302.040383
336.725315	2315.195274
337.117960	2324.639876
337.510540	2327.062150
337.903056	2339.612103
338.295508	2343.743328
338.687896	2354.649865
339.080220	2359.239835
339.472480	2365.657224
339.864676	2367.948429
340.256807	2370.708460
340.648875	2373.271887
341.040879	2374.569984
341.432818	2376.778010
341.824694	2376.906559
342.216506	2377.806405
342.608253	2377.002341
342.999937	2375.232896
343.391557	2374.499408
343.783113	2373.725591
344.174605	2371.197452
344.566033	2369.138141
344.957397	2366.657893
345.348697	2367.401463
345.739934	2364.132275
346.131106	2364.374251
346.522215	2361.934332
346.913260	2360.411904
347.304241	2358.153467
347.695159	2357.241018
348.086012	2355.408558
348.476802	2352.565348
348.867528	2351.748681
349.258191	2350.511078
349.648789	2353.187930
350.039324	2351.047960
350.429796	2351.708352
350.820203	2347.982939
351.210548	2346.750377
351.600828	2343.934892
351.991045	2344.186950
352.381198	2344.207115
352.771288	2347.511591
353.161314	2343.856754
353.551276	2346.621827
353.941175	2344.242403
354.331010	2345.845490
354.720782	2346.747856
355.110490	2347.516632
355.500135	2346.677280
355.889717	2347.746005
356.279235	2348.164420
356.668689	2346.987311
357.058080	2350.178361
357.447408	2345.853051
357.836672	2346.815912
358.225873	2347.990501
358.615010	2345.290963
359.004084	2352.154494
359.393095	2350.344719
359.782043	2354.211284
360.170927	2355.126254
360.559748	2356.668847
360.948505	2356.575586
361.337199	2357.114989
361.725830	2354.044926
362.114398	2355.574917
362.502903	2354.599453
362.891344	2359.000381
363.279722	2358.392922
363.668037	2361.082377
364.056289	2362.703108
364.444478	2359.476770
364.832603	2361.576410
365.220665	2359.685978
365.608665	2361.894003
365.996601	2362.851822
366.384474	2364.447347
366.772284	2363.882738
367.160031	2365.599251
367.547715	2363.585310
367.935336	2366.665455
368.322893	2365.014477
368.710388	2369.087729
369.097820	2371.683924
369.485189	2368.833151
369.872495	2374.406147
370.259738	2372.248533
370.646918	2373.544109
371.034035	2378.431508
371.421090	2377.685417
371.808081	2383.785213
372.195010	2385.025337
372.581875	2390.558004
372.968678	2395.969682
373.355418	2402.029149
373.742096	2413.137332
374.128710	2425.059661
374.515262	2432.674323
374.901751	2447.875923
375.288177	2464.577266
375.674540	2479.758700
376.060841	2504.142762
376.447079	2525.270237
376.833254	2548.762014
377.219367	2574.650860
377.605417	2608.834924
377.991404	2635.527834
378.377329	2675.330264
378.763191	2706.212372
379.148991	2751.388672
379.534727	2799.163687
379.920402	2845.360821
380.306013	2893.332441
380.691563	2951.414095
381.077049	3007.973321
381.462474	3063.468863
381.847835	3132.976292
382.233134	3201.939277
382.618371	3263.448916
383.003545	3345.254240
383.388657	3422.560334
383.773706	3514.485774
384.158693	3582.596804
384.543618	3676.526103
384.928480	3754.472424
385.313280	3855.827342
385.698017	3957.484730
386.082692	4075.498142
386.467305	4136.032317
386.851856	4260.054784
387.236344	4413.668824
387.620770	4470.389367
388.005133	4594.182461
388.389435	4733.298142
388.773674	4812.734124
389.157851	4943.589875
389.541965	5070.649637
389.926018	5094.965643
390.310008	5265.006283
390.693936	5385.215117
391.077802	5497.612683
391.461606	5624.884173
391.845348	5730.849227
392.229027	5844.539849
392.612645	6052.918464
392.996200	6160.685731
393.379694	6315.791952
393.763125	6517.002046
394.146494	6593.027687
394.529801	6702.713113
394.913047	6923.568583
395.296230	6892.855353
395.679351	6922.628408
396.062410	7136.804350
396.445408	7012.839856
396.828343	7120.609643
397.211217	7208.703807
397.594028	7059.001702
397.976778	7200.363217
398.359466	7301.246788
398.742092	7225.301806
399.124656	7303.233003
399.507158	7405.419712
399.889598	7362.675768
400.271977	7477.692214
400.654294	7436.473220
401.036549	7528.771705
401.418742	7474.269271
401.800874	7640.498798
402.182944	7618.660520
402.564952	7814.511867
402.946898	7583.052329
403.328783	7535.952829
403.710606	7584.960406
404.092367	7674.123294
404.474067	7817.574368
404.855705	7558.101138
405.237282	7417.200888
405.618797	7593.810152
406.000250	7634.227603
406.381642	7743.018223
406.762972	7580.083090
407.144240	7335.254412
407.525447	7352.129675
407.906593	7189.842329
408.287677	7207.622479
408.668700	7150.891854
409.049661	7005.157138
409.430560	6951.005063
409.811399	6807.286808
410.192176	6750.341934
410.572891	6648.359392
410.953545	6716.525874
411.334138	6352.204206
411.714669	6465.126052
412.095139	6049.583741
412.475547	6106.997442
412.855894	5925.939361
413.236180	5900.988170
413.616405	5662.002189
413.996568	5620.631960
414.376670	5484.997195
414.756711	5320.380837
415.136691	5275.406183
415.516609	5202.311973
415.896466	5097.012351
416.276262	5047.067120
416.655997	5025.617010
417.035670	4913.945370
417.415283	4938.291623
417.794834	4832.225746
418.174324	4663.762987
418.553753	4526.840207
418.933121	4496.089169
419.312428	4357.180175
419.691674	4235.781628
420.070859	4197.282336
420.449983	4046.597207
420.829045	4019.236344
421.208047	3891.816140
421.586988	3858.199205
421.965867	3792.160090
422.344686	3706.286555
422.723444	3669.223992
423.102141	3477.314826
423.480777	3495.629338
423.859352	3390.294429
424.237866	3395.171745
424.616319	3307.178405
424.994712	3281.168571
425.373044	3207.487067
425.751314	3183.662574
426.129524	3084.135073
426.507673	3077.805905
426.885762	3015.731657
427.263789	2973.854792
427.641756	2936.673762
428.019662	2896.669685
428.397508	2856.058150
428.775292	2829.224088
429.153016	2795.055147
429.530679	2765.151022
429.908282	2735.178842
430.285824	2704.727752
430.663305	2693.871628
431.040726	2667.816424
431.418086	2644.070069
431.795385	2635.104377
432.172624	2622.224229
432.549802	2601.615992
432.926920	2589.406317
433.303977	2575.681776
433.680974	2564.104766
434.057910	2558.740978
434.434786	2547.965512
434.811601	2538.384799
435.188355	2537.363965
435.565050	2531.995137
435.941683	2522.411903
436.318257	2521.534742
436.694770	2512.924452
437.071222	2514.998886
437.447614	2501.319715
437.823946	2498.723521
438.200218	2499.532626
438.576429	2491.756647
438.952580	2492.348982
439.328670	2489.838487
439.704700	2487.701038
440.080670	2480.774493
440.456580	2482.647282
440.832429	2482.564102
441.208218	2474.490695
441.583947	2476.706282
441.959616	2471.985241
442.335224	2472.166723
442.710773	2472.297793
443.086261	2468.794191
443.461689	2471.135807
443.837057	2466.157667
444.212365	2470.414922
444.587612	2464.544498
444.962800	2462.356637
445.337927	2466.840744
445.712995	2458.263220
446.088002	2466.853347
446.462949	2465.290589
446.837837	2463.324539
447.212664	2461.572738
447.587431	2471.123204
447.962139	2479.196612
448.336786	2489.478045
448.711374	2480.769452
449.085901	2469.646146
449.460369	2464.869652
449.834776	2467.334777
450.209124	2475.365335
450.583412	2473.779892
450.957640	2475.965232
451.331808	2466.737400
451.705917	2463.286730
452.079965	2466.923923
452.453954	2464.657924
452.827883	2464.365537
453.201752	2462.991823
453.575562	2462.911164
453.949311	2466.792853
454.323001	2464.917543
454.696632	2465.348562
455.070202	2471.864253
455.443713	2468.620271
455.817164	2469.777216
456.190556	2468.453913
456.563888	2467.874180
456.937160	2467.687658
457.310373	2466.250929
457.683526	2470.082206
458.056619	2467.337297
458.429653	2468.045579
458.802628	2469.225209
459.175542	2470.871146
459.548398	2472.421301
459.921194	2480.582929
460.293930	2480.905563
460.666607	2483.567292
461.039224	2490.682881
461.411782	2488.943683
461.784280	2487.338075
462.156719	2485.044350
462.529099	2482.798516
462.901419	2479.604945
463.273680	2475.735860
463.645882	2474.760396
464.018024	2476.706282
464.390106	2478.994966
464.762130	2485.999649
465.134094	2496.170177
465.505999	2511.815398
465.877845	2522.225380
466.249631	2525.988602
466.621358	2520.743281
466.993026	2516.170955
467.364634	2510.913031
467.736184	2506.300375
468.107674	2502.232164
468.479105	2499.371309
468.850477	2497.921978
469.221790	2491.234887
469.593043	2487.000318
469.964238	2484.114257
470.335373	2484.807416
470.706449	2488.121975
471.077467	2497.014570
471.448425	2506.151661
471.819324	2516.385204
472.190164	2511.275994
472.560945	2499.804849
472.931667	2492.606081
473.302330	2489.195740
473.672934	2488.326141
474.043479	2485.414875
474.413965	2483.196767
474.784393	2478.574029
475.154761	2485.863538
475.525070	2483.093424
475.895321	2483.237097
476.265513	2483.247179
476.635645	2491.466780
477.005719	2485.924032
477.375734	2491.008035
477.745691	2491.620535
478.115588	2496.737307
478.485427	2499.101608
478.855207	2509.478823
479.224928	2516.004597
479.594591	2518.147087
479.964194	2517.650533
480.333739	2518.913342
480.703226	2518.000893
481.072653	2518.656243
481.442022	2516.649864
481.811333	2521.196985
482.180584	2518.401665
482.549777	2516.039885
482.918912	2514.444359
483.287988	2516.039885
483.657005	2510.270284
484.025964	2510.867661
484.394864	2509.955212
484.763706	2508.710047
485.132489	2507.732063
485.501213	2505.486229
485.869879	2504.689727
486.238487	2506.895232
486.607036	2502.653101
486.975527	2504.941784
487.343959	2504.006650
487.712333	2505.750890
488.080648	2502.569922
488.448905	2506.068482
488.817104	2504.480519
489.185244	2506.817094
489.553326	2510.262722
489.921350	2523.551204
490.289315	2530.162677
490.657222	2528.310053
491.025070	2529.199817
491.392861	2527.274096
491.760593	2524.839219
492.128267	2518.542818
492.495883	2514.290604
492.863440	2510.078720
493.230939	2508.967146
493.598380	2504.286434
493.965763	2498.176556
494.333088	2499.792246
494.700354	2501.818790
495.067563	2501.380209
495.434713	2495.436689
495.801805	2500.974396
496.168839	2499.739314
496.535815	2499.378871
496.902733	2500.306443
497.269593	2496.719663
497.636395	2502.332987
498.003139	2501.032370
498.369825	2499.020949
498.736453	2500.588748
499.103023	2497.869046
499.469535	2501.395333
499.835989	2502.567401
500.202385	2500.850888
500.568723	2504.387258
500.935003	2503.542864
501.301226	2507.225427
501.667390	2506.358349
502.033497	2511.699451
502.399546	2510.958402
502.765537	2506.504542
503.131470	2510.708864
503.497345	2512.057373
503.863163	2510.103926
504.228923	2513.400841
504.594625	2516.922087
504.960269	2516.410409
505.325856	2521.050792
505.691385	2518.752025
506.056856	2521.020545
506.422270	2525.403828
506.787625	2528.743592
507.152924	2528.489014
507.518164	2531.682585
507.883347	2530.177801
508.248472	2535.586959
508.613540	2540.129038
508.978550	2540.038298
509.343503	2545.079451
509.708398	2549.608928
510.073236	2551.146480
510.438016	2554.093034
510.802738	2551.877447
511.167403	2553.246121
511.532010	2560.870866
511.896561	2564.455126
512.261053	2570.373441
512.625488	2563.930846
512.989866	2565.896896
513.354186	2568.682134
513.718449	2569.975190
514.082655	2578.638412
514.446803	2577.660429
514.810894	2581.433732
515.174927	2584.455904
515.538904	2584.208887
515.902822	2589.441605
516.266684	2583.737540
516.630488	2588.539239
516.994235	2587.175607
517.357925	2591.016966
517.721558	2594.487800
518.085133	2596.196751
518.448651	2595.402770
518.812112	2594.424786
519.175516	2596.428644
519.538863	2598.228336
519.902152	2598.477873
520.265385	2599.312184
520.628560	2600.322936
520.991678	2598.911413
521.354739	2599.453337
521.717743	2598.553491
522.080690	2597.749427
522.443580	2600.867380
522.806413	2601.598348
523.169189	2598.649273
523.531908	2600.317895
523.894569	2593.434199
524.257174	2595.425455
524.619722	2597.348655
524.982213	2595.511154
525.344647	2591.858838
525.707025	2589.454208
526.069345	2590.268354
526.431608	2588.819023
526.793815	2586.260637
527.155964	2582.169741
527.518057	2581.002714
527.880093	2577.617579
528.242072	2574.814697
528.603995	2574.242526
528.965860	2570.640622
529.327669	2570.670869
529.689421	2564.787842
530.051117	2564.220713
530.412755	2558.897254
530.774337	2558.662840
531.135862	2553.140256
531.497331	2551.045657
531.858743	2545.265974
532.220098	2546.506098
532.581396	2540.237423
532.942638	2534.465302
533.303824	2536.801877
533.664953	2535.211393
534.026025	2530.714683
534.387040	2532.080836
534.747999	2524.980371
535.108902	2524.229239
535.469748	2517.438805
535.830537	2516.601973
536.191270	2514.814884
536.551947	2513.443690
536.912567	2508.231137
537.273131	2506.365910
537.633638	2503.575632
537.994089	2501.977586
538.354483	2498.786536
538.714821	2499.081443
539.075103	2498.234529
539.435328	2496.578510
539.795497	2493.256390
540.155609	2491.822182
540.515665	2486.775987
540.875665	2487.796820
541.235609	2485.082159
541.595496	2484.431850
541.955328	2484.517550
542.315102	2479.937661
542.674821	2479.478916
543.034483	2480.562764
543.394090	2480.305666
543.753640	2476.204687
544.113134	2476.131590
544.472571	2473.782412
544.831953	2473.510190
545.191278	2472.912813
545.550548	2470.319140
545.909761	2471.382823
546.268918	2467.677575
546.628019	2471.448358
546.987064	2469.386526
547.346053	2466.324025
547.704986	2467.339818
548.063863	2469.590693
548.422684	2464.234467
548.781449	2465.522482
549.140158	2466.414766
549.498811	2465.194807
549.857408	2463.463171
550.215949	2463.528706
550.574434	2459.420165
550.932864	2460.060392
551.291237	2457.401183
551.649555	2463.049796
552.007817	2464.579786
552.366022	2464.337811
552.724173	2460.932511
553.082267	2462.525516
553.440305	2463.924436
553.798288	2461.998715
554.156215	2462.727162
554.514086	2459.321863
554.871902	2458.369085
555.229661	2460.539301
555.587365	2460.577110
555.945014	2461.512244
556.302606	2457.252469
556.660143	2459.168107
557.017625	2458.505196
557.375050	2460.630042
557.732421	2457.973354
558.089735	2460.317491
558.446994	2459.203396
558.804197	2460.516616
559.161345	2457.282716
559.518437	2460.012501
559.875474	2457.040741
560.232455	2456.624845
560.589381	2459.992336
560.946251	2456.803806
561.303065	2462.548201
561.659825	2454.338682
562.016528	2457.743982
562.373177	2457.391101
562.729770	2460.718262
563.086307	2456.337500
563.442789	2458.217850
563.799216	2458.845474
564.155587	2456.282047
564.511904	2456.823971
564.868164	2454.041254
565.224370	2457.522171
565.580520	2458.888323
565.936615	2455.815740
566.292654	2457.829681
566.648638	2457.000411
567.004567	2457.290278
567.360441	2456.914712
567.716260	2456.970164
568.072023	2452.569237
568.427732	2453.045626
568.783385	2455.228446
569.138982	2450.792230
569.494525	2455.664506
569.850013	2452.055039
570.205445	2456.105607
570.560823	2454.782304
570.916145	2455.132664
571.271412	2455.858590
571.626625	2455.195678
571.981782	2454.820112
572.336884	2454.182406
572.691931	2452.975050
573.046923	2455.561162
573.401860	2450.416664
573.756743	2454.381532
574.111570	2454.038733
574.466342	2452.791048
574.821059	2452.589402
575.175722	2451.429936
575.530330	2452.536470
575.884882	2452.286933
576.239380	2449.519339
576.593823	2451.475307
576.948211	2452.791048
577.302544	2451.656788
577.656823	2449.398351
578.011047	2453.464042
578.365216	2450.525049
578.719330	2452.856583
579.073389	2449.547065
579.427394	2455.525874
579.781344	2449.899946
580.135239	2450.028496
580.489080	2449.610080
580.842866	2449.617642
581.196597	2449.093362
581.550273	2452.975050
581.903895	2449.506736
582.257463	2450.162086
582.610975	2446.696293
582.964434	2446.005655
583.317837	2449.776438
583.671186	2447.969184
584.024481	2445.811570
584.377721	2447.825511
584.730906	2446.643361
585.084037	2449.340378
585.437113	2447.762497
585.790135	2446.121601
586.143103	2446.812239
586.496016	2444.097578
586.848874	2443.941302
587.201679	2446.275357
587.554428	2441.755962
587.907124	2443.848041
588.259765	2443.500201
588.612352	2445.151179
588.964884	2445.178906
589.317362	2447.754935
589.669786	2443.089347
590.022155	2446.794595
590.374470	2446.570264
590.726731	2444.180757
591.078937	2446.524894
591.431090	2445.118412
591.783188	2443.883329
592.135232	2442.499532
592.487222	2444.783175
592.839157	2444.848710
593.191038	2443.152362
593.542866	2443.021292
593.894639	2441.534151
594.246358	2443.452310
594.598022	2442.290324
594.949633	2442.733946
595.301190	2442.265119
595.652692	2440.772937
596.004141	2442.078596
596.355535	2442.255036
596.706876	2442.670932
597.058162	2441.587083
597.409395	2441.168668
597.760573	2442.441559
598.111698	2438.617844
598.462768	2442.476847
598.813785	2439.578184
599.164748	2441.869388
599.515657	2441.234203
599.866511	2439.351332
600.217312	2439.885694
600.568060	2438.902669
600.918753	2438.625406
601.269392	2438.988369
601.619978	2441.095571
601.970510	2443.716971
602.320988	2438.204469
602.671412	2442.686055
603.021783	2440.843513
603.372100	2437.377720
603.722363	2440.049532
604.072572	2439.868050
604.422728	2441.357711
604.772830	2436.840837
605.122878	2436.946701
605.472872	2436.871084
605.822813	2435.265477
606.172701	2439.608431
606.522534	2438.592638
606.872314	2441.420725
607.222041	2437.677669
607.571714	2438.930395
607.921333	2437.223965
608.270899	2441.851744
608.620411	2440.397371
608.969870	2440.220931
609.319276	2440.367124
609.668627	2441.708071
610.017926	2442.325612
610.367171	2438.065837
610.716362	2439.202618
611.065500	2439.767227
611.414585	2439.495005
611.763616	2438.862340
612.112594	2436.729932
612.461518	2438.514500
612.810389	2440.137752
613.159207	2440.044490
613.507971	2438.448965
613.856682	2438.310333
614.205340	2439.442073
614.553945	2440.483071
614.902496	2439.409305
615.250994	2441.375355
615.599439	2439.875612
615.947830	2441.380396
616.296169	2440.200766
616.644454	2440.999789
616.992686	2440.389809
617.340864	2441.425767
617.688990	2440.420056
618.037063	2441.614810
618.385082	2440.296548
618.733048	2439.815118
619.080961	2440.611620
619.428821	2438.398554
619.776628	2441.075406
620.124382	2439.583225
620.472083	2441.496343
620.819731	2440.183122
621.167326	2440.518359
621.514868	2439.169850
621.862357	2440.036929
622.209793	2440.470468
622.557176	2440.987186
622.904506	2438.973245
623.251783	2432.883531
623.599007	2434.968048
623.946179	2432.805393
624.293297	2436.293872
624.640363	2436.649273
624.987376	2435.104160
625.334336	2434.232040
625.681243	2434.181628
626.028097	2434.126176
626.374899	2434.206834
626.721647	2434.927719
627.068343	2437.274376
627.414987	2433.702719
627.761577	2433.425455
628.108115	2436.981989
628.454600	2434.615168
628.801032	2434.385795
629.147412	2435.651125
629.493739	2434.458892
629.840014	2433.317071
630.186236	2435.545261
630.532405	2436.127514
630.878521	2435.028542
631.224585	2433.722883
631.570597	2433.150713
631.916556	2433.831268
632.262462	2434.607606
632.608316	2432.276072
632.954117	2433.334715
633.299866	2432.031576
633.645562	2431.766916
633.991206	2429.931936
634.336797	2432.185332
634.682336	2433.009560
635.027823	2431.076278
635.373257	2432.245825
635.718639	2431.459405
636.063968	2429.110228
636.409245	2428.830444
636.754470	2430.002512
637.099642	2428.717018
637.444762	2432.603747
637.789829	2429.861360
638.134845	2428.596030
638.479808	2427.670978
638.824719	2426.884558
639.169577	2426.778694
639.514383	2428.694332
639.859137	2429.279106
640.203839	2428.613674
640.548489	2429.349682
640.893086	2428.066709
641.237632	2425.228539
641.582125	2426.423293
641.926566	2421.122519
642.270955	2429.450506
642.615292	2425.636873
642.959576	2428.999322
643.303809	2427.474373
643.647990	2425.525967
643.992118	2427.948242
644.336195	2428.429672
