Dividing Wavelength (nm)	Counts (n)	Blue Motor Position (mm): 0.000000	Red Motor Position (mm): 8.800000	
326.493990	1976.311269
326.888308	1976.311269
327.282561	1976.311269
327.676750	1952.476693
328.070874	1955.907198
328.464933	1960.013218
328.858929	1970.836576
329.252859	1981.977526
329.646726	1997.106028
330.040528	2012.040447
330.434265	2033.440145
330.827938	2049.377753
331.221547	2071.959601
331.615091	2089.031469
332.008571	2110.879829
332.401986	2129.869856
332.795338	2151.345171
333.188625	2171.557678
333.581847	2190.015863
333.975006	2209.598225
334.368100	2228.187479
334.761129	2243.913359
335.154095	2256.463311
335.546996	2273.943512
335.939833	2286.473300
336.332606	2301.064920
336.725315	2312.034471
337.117960	2322.139464
337.510540	2326.900833
337.903056	2336.562205
338.295508	2341.580673
338.687896	2347.995542
339.080220	2357.276306
339.472480	2362.889631
339.864676	2364.618747
340.256807	2369.874149
340.648875	2368.767616
341.040879	2371.033615
341.432818	2371.474716
341.824694	2372.500591
342.216506	2371.227699
342.608253	2375.525283
342.999937	2371.573018
343.391557	2371.739376
343.783113	2368.573532
344.174605	2370.312730
344.566033	2366.042873
344.957397	2367.610671
345.348697	2365.057327
345.739934	2362.758561
346.131106	2359.320494
346.522215	2360.532891
346.913260	2355.703466
347.304241	2355.451408
347.695159	2352.177179
348.086012	2352.504854
348.476802	2349.936386
348.867528	2348.219873
349.258191	2347.917404
349.648789	2345.177537
350.039324	2346.180726
350.429796	2349.472600
350.820203	2343.962619
351.210548	2344.728874
351.600828	2343.970180
351.991045	2345.666529
352.381198	2341.379027
352.771288	2343.536641
353.161314	2343.017402
353.551276	2344.227279
353.941175	2343.957578
354.331010	2346.286591
354.720782	2345.621158
355.110490	2342.888853
355.500135	2346.029492
355.889717	2345.963957
356.279235	2344.996055
356.668689	2347.531756
357.058080	2343.597135
357.447408	2343.602176
357.836672	2343.894563
358.225873	2347.196519
358.615010	2346.780624
359.004084	2348.555110
359.393095	2347.408247
359.782043	2350.926973
360.170927	2351.050481
360.559748	2352.242714
360.948505	2351.741119
361.337199	2351.461335
361.725830	2351.413444
362.114398	2354.183558
362.502903	2353.238342
362.891344	2354.785976
363.279722	2356.807479
363.668037	2357.798065
364.056289	2355.872345
364.444478	2358.392922
364.832603	2358.055164
365.220665	2359.260000
365.608665	2356.197499
365.996601	2357.916533
366.384474	2359.166739
366.772284	2360.540453
367.160031	2358.062726
367.547715	2361.384846
367.935336	2359.940556
368.322893	2360.386698
368.710388	2363.555063
369.097820	2364.401977
369.485189	2362.156143
369.872495	2365.967255
370.259738	2366.002543
370.646918	2368.860878
371.034035	2370.085878
371.421090	2371.051259
371.808081	2376.125180
372.195010	2381.690614
372.581875	2384.427961
372.968678	2387.124978
373.355418	2396.246946
373.742096	2405.653739
374.128710	2412.502146
374.515262	2427.514703
374.901751	2438.469130
375.288177	2456.496296
375.674540	2473.961373
376.060841	2493.163128
376.447079	2517.456449
376.833254	2541.931251
377.219367	2566.499314
377.605417	2601.235385
377.991404	2627.469549
378.377329	2667.156033
378.763191	2700.886393
379.148991	2745.104874
379.534727	2791.780918
379.920402	2838.439317
380.306013	2884.523025
380.691563	2949.019547
381.077049	3004.283196
381.462474	3054.263716
381.847835	3126.445477
382.233134	3193.059284
382.618371	3253.480034
383.003545	3333.082374
383.388657	3410.327974
383.773706	3500.894823
384.158693	3566.855801
384.543618	3656.401817
384.928480	3729.392683
385.313280	3823.296777
385.698017	3918.153648
386.082692	4029.358981
386.467305	4076.130807
386.851856	4188.251109
387.236344	4321.556861
387.620770	4362.170917
388.005133	4463.697235
388.389435	4578.794339
388.773674	4636.933966
389.157851	4734.621445
389.541965	4823.960774
389.926018	4820.638653
390.310008	4944.048620
390.693936	5013.881204
391.077802	5078.292027
391.461606	5148.621164
391.845348	5199.511612
392.229027	5252.282410
392.612645	5378.502820
392.996200	5417.773409
393.379694	5495.853320
393.763125	5610.721052
394.146494	5615.895796
394.529801	5653.979193
394.913047	5757.416108
395.296230	5683.187638
395.679351	5644.068284
396.062410	5741.405403
396.445408	5593.818063
396.828343	5613.428151
397.211217	5607.033448
397.594028	5454.011743
397.976778	5480.944108
398.359466	5489.161188
398.742092	5383.662441
399.124656	5370.774732
399.507158	5372.256831
399.889598	5290.859840
400.271977	5296.064832
400.654294	5213.152974
401.036549	5199.264595
401.418742	5114.467347
401.800874	5135.254544
402.182944	5064.370880
402.564952	5102.721458
402.946898	4928.398358
403.328783	4849.204352
403.710606	4806.077281
404.092367	4790.502636
404.474067	4796.007576
404.855705	4630.118326
405.237282	4509.009646
405.618797	4524.768293
406.000250	4491.310155
406.381642	4470.704439
406.762972	4355.894680
407.144240	4211.344635
407.525447	4164.729085
407.906593	4058.607756
408.287677	4014.401878
408.668700	3944.314716
409.049661	3851.376003
409.430560	3789.125315
409.811399	3698.760112
410.192176	3640.285248
410.572891	3568.756316
410.953545	3549.768810
411.334138	3414.149169
411.714669	3400.540574
412.095139	3267.381016
412.475547	3244.869743
412.855894	3176.342818
413.236180	3139.078609
413.616405	3059.864438
413.996568	3025.801362
414.376670	2974.432004
414.756711	2919.496030
415.136691	2889.241545
415.516609	2857.109230
415.896466	2820.855772
416.276262	2795.476083
416.655997	2774.318361
417.035670	2741.606313
417.415283	2730.268758
417.794834	2702.232381
418.174324	2673.747342
418.553753	2642.968577
418.933121	2629.400311
419.312428	2605.217896
419.691674	2583.268712
420.070859	2575.417115
420.449983	2552.207643
420.829045	2544.560213
421.208047	2526.265865
421.586988	2520.022396
421.965867	2512.601818
422.344686	2504.770385
422.723444	2499.325939
423.102141	2479.544451
423.480777	2484.194916
423.859352	2472.176805
424.237866	2475.745942
424.616319	2469.343677
424.994712	2469.081537
425.373044	2462.989302
425.751314	2461.686164
426.129524	2456.208950
426.507673	2456.831533
426.885762	2450.250306
427.263789	2450.366253
427.641756	2448.624534
428.019662	2445.521704
428.397508	2443.530448
428.775292	2444.211004
429.153016	2442.673452
429.530679	2442.862495
429.908282	2441.483740
430.285824	2434.315219
430.663305	2435.809921
431.040726	2435.590631
431.418086	2432.641556
431.795385	2432.525609
432.172624	2432.767585
432.549802	2432.036617
432.926920	2429.649631
433.303977	2431.343459
433.680974	2427.086204
434.057910	2429.579055
434.434786	2427.676019
434.811601	2429.011925
435.188355	2429.994950
435.565050	2427.945721
435.941683	2427.613005
436.318257	2429.392532
436.694770	2421.987077
437.071222	2428.457398
437.447614	2424.084197
437.823946	2426.425813
438.200218	2427.471853
438.576429	2424.472366
438.952580	2428.893458
439.328670	2426.282140
439.704700	2425.727613
440.080670	2428.139806
440.456580	2426.766091
440.832429	2429.281627
441.208218	2424.454722
441.583947	2424.999167
441.959616	2426.105700
442.335224	2426.226688
442.710773	2426.017480
443.086261	2426.766091
443.461689	2427.423962
443.837057	2427.615526
444.212365	2427.363468
444.587612	2430.983016
444.962800	2426.806420
445.337927	2427.686102
445.712995	2424.709300
446.088002	2430.186514
446.462949	2429.546288
446.837837	2430.420928
447.212664	2427.575196
447.587431	2432.523089
447.962139	2439.182453
448.336786	2446.585387
448.711374	2440.604058
449.085901	2435.426793
449.460369	2431.439241
449.834776	2433.705239
450.209124	2438.118770
450.583412	2438.534665
450.957640	2436.838317
451.331808	2438.728749
451.705917	2435.197421
452.079965	2433.657348
452.453954	2433.281783
452.827883	2435.199942
453.201752	2434.748758
453.575562	2435.240271
453.949311	2437.677669
454.323001	2436.785384
454.696632	2434.957966
455.070202	2437.791095
455.443713	2437.720518
455.817164	2439.668924
456.190556	2437.302103
456.563888	2441.592125
456.937160	2434.484098
457.310373	2435.426793
457.683526	2438.151537
458.056619	2437.289500
458.429653	2438.960642
458.802628	2438.585076
459.175542	2440.394851
459.548398	2439.464758
459.921194	2445.161262
460.293930	2445.942640
460.666607	2448.112857
461.039224	2453.562344
461.411782	2449.423557
461.784280	2452.029834
462.156719	2450.890533
462.529099	2449.214349
462.901419	2442.212187
463.273680	2444.004317
463.645882	2444.372321
464.018024	2444.654626
464.390106	2444.798298
464.762130	2452.702828
465.134094	2460.166256
465.505999	2467.554067
465.877845	2475.335088
466.249631	2477.971611
466.621358	2474.662094
466.993026	2475.670325
467.364634	2469.817545
467.736184	2463.637090
468.107674	2460.201544
468.479105	2458.427058
468.850477	2456.420679
469.221790	2456.153497
469.593043	2451.198043
469.964238	2452.919597
470.335373	2449.612600
470.706449	2454.696604
471.077467	2455.982098
471.448425	2466.944087
471.819324	2470.041876
472.190164	2465.525002
472.560945	2461.063581
472.931667	2453.436316
473.302330	2454.058898
473.672934	2454.280709
474.043479	2453.723661
474.413965	2450.767025
474.784393	2445.201591
475.154761	2450.119236
475.525070	2446.126642
475.895321	2447.172682
476.265513	2446.918104
476.635645	2452.186109
477.005719	2451.757611
477.375734	2454.875565
477.745691	2454.008487
478.115588	2458.074177
478.485427	2459.783128
478.855207	2465.976186
479.224928	2470.727473
479.594591	2473.764768
479.964194	2470.361990
480.333739	2474.253760
480.703226	2470.525827
481.072653	2471.632360
481.442022	2472.033132
481.811333	2475.113277
482.180584	2469.978862
482.549777	2471.375262
482.918912	2468.668162
483.287988	2468.148923
483.657005	2468.398460
484.025964	2467.453244
484.394864	2463.949642
484.763706	2464.045424
485.132489	2464.718418
485.501213	2462.454940
485.869879	2463.306895
486.238487	2466.051803
486.607036	2463.664817
486.975527	2463.324539
487.343959	2460.471246
487.712333	2464.809159
488.080648	2462.502831
488.448905	2463.266566
488.817104	2461.209775
489.185244	2464.151288
489.553326	2467.193624
489.921350	2470.609006
490.289315	2478.962198
490.657222	2477.200315
491.025070	2477.462455
491.392861	2473.658904
491.760593	2474.195787
492.128267	2471.274438
492.495883	2468.012812
492.863440	2466.039200
493.230939	2463.095166
493.598380	2463.236319
493.965763	2458.195165
494.333088	2457.247428
494.700354	2455.667026
495.067563	2457.353292
495.434713	2457.370936
495.801805	2458.328755
496.168839	2458.157356
496.535815	2458.381687
496.902733	2457.774228
497.269593	2458.928653
497.636395	2457.678447
498.003139	2461.436627
498.369825	2461.020732
498.736453	2462.008798
499.103023	2461.053499
499.469535	2461.227419
499.835989	2461.827316
500.202385	2462.706997
500.568723	2462.381843
500.935003	2465.406535
501.301226	2462.253294
501.667390	2468.998358
502.033497	2470.230920
502.399546	2468.164047
502.765537	2466.084571
503.131470	2469.893162
503.497345	2472.703606
503.863163	2470.513224
504.228923	2475.763586
504.594625	2475.597228
504.960269	2475.408185
505.325856	2481.392034
505.691385	2479.549492
506.056856	2484.716675
506.422270	2485.263640
506.787625	2485.858497
507.152924	2487.955617
507.518164	2492.043992
507.883347	2491.837305
508.248472	2493.374857
508.613540	2494.993067
508.978550	2499.323418
509.343503	2499.711587
509.708398	2500.329129
510.073236	2503.961280
510.438016	2507.396826
510.802738	2504.903976
511.167403	2510.953360
511.532010	2513.022754
511.896561	2516.959895
512.261053	2519.838394
512.625488	2518.202540
512.989866	2518.217663
513.354186	2519.142715
513.718449	2516.972498
514.082655	2524.672861
514.446803	2524.317459
514.810894	2526.815351
515.174927	2524.314939
515.538904	2523.964578
515.902822	2526.802748
516.266684	2529.318284
516.630488	2525.602953
516.994235	2526.601102
517.357925	2526.933818
517.721558	2529.456916
518.085133	2526.167563
518.448651	2527.894158
518.812112	2524.516585
519.175516	2524.806451
519.538863	2524.534229
519.902152	2522.873169
520.265385	2522.585823
520.628560	2520.609691
520.991678	2519.510719
521.354739	2517.254803
521.717743	2516.175996
522.080690	2513.214318
522.443580	2513.032836
522.806413	2513.809174
523.169189	2505.685355
523.531908	2508.644512
523.894569	2504.780467
524.257174	2505.234171
524.619722	2499.489777
524.982213	2499.388953
525.344647	2494.196565
525.707025	2495.227481
526.069345	2491.993581
526.431608	2488.033754
526.793815	2486.710452
527.155964	2484.855307
527.518057	2479.786427
527.880093	2480.479585
528.242072	2476.756693
528.603995	2476.227372
528.965860	2472.494398
529.327669	2470.853502
529.689421	2469.331074
530.051117	2468.406022
530.412755	2464.980558
530.774337	2464.884776
531.135862	2461.048458
531.497331	2461.774384
531.858743	2455.011676
532.220098	2458.104424
532.581396	2451.492951
532.942638	2452.478496
533.303824	2453.859773
533.664953	2451.122426
534.026025	2450.237703
534.387040	2450.325924
534.747999	2447.235696
535.108902	2450.686366
535.469748	2446.350974
535.830537	2447.828032
536.191270	2444.815943
536.551947	2443.290993
536.912567	2443.800150
537.273131	2443.170006
537.633638	2439.116918
537.994089	2440.442742
538.354483	2439.051383
538.714821	2441.778647
539.075103	2441.559357
539.435328	2441.400561
539.795497	2436.896290
540.155609	2439.116918
540.515665	2439.593307
540.875665	2440.369645
541.235609	2437.715477
541.595496	2437.818821
541.955328	2435.893100
542.315102	2437.463420
542.674821	2439.202618
543.034483	2437.216403
543.394090	2434.627771
543.753640	2435.903182
544.113134	2436.709767
544.472571	2436.843358
544.831953	2436.082143
545.191278	2438.292689
545.550548	2432.397060
545.909761	2438.118770
546.268918	2436.556012
546.628019	2438.552309
546.987064	2431.799683
547.346053	2436.238419
547.704986	2433.352359
548.063863	2433.735486
548.422684	2434.542071
548.781449	2431.766916
549.140158	2435.663728
549.498811	2434.181628
549.857408	2434.292534
550.215949	2432.210537
550.574434	2430.751123
550.932864	2431.401432
551.291237	2430.796494
551.649555	2434.738676
552.007817	2431.643408
552.366022	2432.369334
552.724173	2436.568615
553.082267	2432.472677
553.440305	2433.889242
553.798288	2432.744900
554.156215	2433.992585
554.514086	2432.311360
554.871902	2432.707091
555.229661	2433.072575
555.587365	2431.093922
555.945014	2435.381423
556.302606	2434.889911
556.660143	2432.520568
557.017625	2433.493511
557.375050	2432.868408
557.732421	2432.729776
558.089735	2434.847061
558.446994	2432.555856
558.804197	2432.878490
559.161345	2433.891762
559.518437	2433.566608
559.875474	2429.206010
560.232455	2432.255908
560.589381	2430.632656
560.946251	2432.208017
561.303065	2431.678696
561.659825	2432.515527
562.016528	2433.433017
562.373177	2433.001998
562.729770	2431.098963
563.086307	2431.940836
563.442789	2432.697009
563.799216	2433.836309
564.155587	2431.976124
564.511904	2431.701381
564.868164	2433.700198
565.224370	2430.945208
565.580520	2433.024684
565.936615	2432.016453
566.292654	2430.113417
566.648638	2430.806576
567.004567	2431.875301
567.360441	2433.881680
567.716260	2430.448654
568.072023	2431.209868
568.427732	2428.923705
568.783385	2429.843716
569.138982	2427.020669
569.494525	2429.067378
569.850013	2423.948086
570.205445	2430.408325
570.560823	2432.891093
570.916145	2429.689960
571.271412	2428.830444
571.626625	2431.318253
571.981782	2428.969075
572.336884	2431.648449
572.691931	2429.211051
573.046923	2429.395053
573.401860	2432.722214
573.756743	2429.044693
574.111570	2430.355393
574.466342	2429.513520
574.821059	2430.360434
575.175722	2429.798345
575.530330	2428.616195
575.884882	2427.003025
576.239380	2429.158119
576.593823	2430.476380
576.948211	2427.950762
577.302544	2429.390012
577.656823	2429.299271
578.011047	2429.508479
578.365216	2428.165011
578.719330	2427.492017
579.073389	2427.446647
579.427394	2428.802717
579.781344	2424.265679
580.135239	2426.186358
580.489080	2427.169383
580.842866	2426.209044
581.196597	2427.441606
581.550273	2425.001687
581.903895	2427.010587
582.257463	2427.822213
582.610975	2425.354568
582.964434	2426.269537
583.317837	2426.035124
583.671186	2428.086873
584.024481	2427.895310
584.377721	2428.313725
584.730906	2423.771646
585.084037	2427.759198
585.437113	2426.067891
585.790135	2426.821544
586.143103	2424.396749
586.496016	2424.973961
586.848874	2421.119999
587.201679	2424.691656
587.554428	2421.493044
587.907124	2424.432037
588.259765	2422.506316
588.612352	2427.015628
588.964884	2424.628642
589.317362	2427.144178
589.669786	2424.174938
590.022155	2423.108734
590.374470	2423.312901
590.726731	2426.987902
591.078937	2424.288364
591.431090	2424.230391
591.783188	2428.502769
592.135232	2425.596543
592.487222	2424.553025
592.839157	2422.198806
593.191038	2423.441450
593.542866	2425.384815
593.894639	2423.509506
594.246358	2427.703746
594.598022	2423.368353
594.949633	2421.490524
595.301190	2424.132088
595.652692	2427.607964
596.004141	2424.414393
596.355535	2422.614701
596.706876	2423.302818
597.058162	2422.123188
597.409395	2423.607808
597.760573	2424.298446
598.111698	2425.273910
598.462768	2421.916501
598.813785	2423.983374
599.164748	2421.160328
599.515657	2423.461615
599.866511	2421.919022
600.217312	2421.321645
600.568060	2422.055133
600.918753	2421.389701
601.269392	2422.173600
601.619978	2421.195616
601.970510	2423.537232
602.320988	2420.489855
602.671412	2422.307191
603.021783	2424.167376
603.372100	2423.045720
603.722363	2418.342323
604.072572	2424.321132
604.422728	2422.672674
604.772830	2420.073959
605.122878	2418.745615
605.472872	2418.077663
605.822813	2419.032961
606.172701	2422.770977
606.522534	2422.503796
606.872314	2421.488003
607.222041	2421.046902
607.571714	2421.747623
607.921333	2420.787283
608.270899	2422.360123
608.620411	2423.010432
608.969870	2422.743250
609.319276	2422.720565
609.668627	2424.825247
610.017926	2422.939855
610.367171	2423.451532
610.716362	2422.879362
611.065500	2420.731830
611.414585	2422.433219
611.763616	2422.090421
612.112594	2419.562282
612.461518	2419.776531
612.810389	2422.793662
613.159207	2421.440112
613.507971	2422.347520
613.856682	2423.562438
614.205340	2421.689649
614.553945	2422.960020
614.902496	2421.946748
615.250994	2422.980185
615.599439	2422.854156
615.947830	2423.784249
616.296169	2422.271903
616.644454	2423.428847
616.992686	2423.290216
617.340864	2425.893972
617.688990	2420.419278
618.037063	2422.350040
618.385082	2422.319793
618.733048	2421.876172
619.080961	2424.411872
619.428821	2424.192582
619.776628	2420.021027
620.124382	2424.336255
620.472083	2421.964392
620.819731	2422.251738
621.167326	2420.439443
621.514868	2424.001018
621.862357	2419.569844
622.209793	2422.307191
622.557176	2423.406162
622.904506	2420.187385
623.251783	2416.340985
623.599007	2417.659247
623.946179	2415.098341
624.293297	2418.362488
624.640363	2419.688311
624.987376	2418.647313
625.334336	2420.409196
625.681243	2422.226532
626.028097	2418.538928
626.374899	2423.776687
626.721647	2419.199319
627.068343	2420.174782
627.414987	2418.755698
627.761577	2420.590678
628.108115	2418.987591
628.454600	2418.430543
628.801032	2419.683270
629.147412	2420.504978
629.493739	2420.625966
629.840014	2419.988260
630.186236	2417.954154
630.532405	2417.013979
630.878521	2418.990111
631.224585	2420.963723
631.570597	2417.064391
631.916556	2417.510533
632.262462	2419.625297
632.608316	2417.369380
632.954117	2420.444484
633.299866	2419.040523
633.645562	2416.293094
633.991206	2416.482137
634.336797	2419.070770
634.682336	2420.482293
635.027823	2419.486665
635.373257	2418.175965
635.718639	2419.075811
636.063968	2417.160173
636.409245	2416.829977
636.754470	2417.893660
637.099642	2417.039185
637.444762	2420.245359
637.789829	2415.978022
638.134845	2417.457601
638.479808	2416.340985
638.824719	2415.216808
639.169577	2417.137487
639.514383	2417.119843
639.859137	2416.172106
640.203839	2416.595563
640.548489	2416.925759
640.893086	2414.833680
641.237632	2411.463669
641.582125	2414.425347
641.926566	2410.558782
642.270955	2414.964750
642.615292	2414.364853
642.959576	2414.790830
643.303809	2413.341498
643.647990	2414.367373
643.992118	2416.083886
644.336195	2415.839390
