Dividing Wavelength (nm)	Counts (n)	Blue Motor Position (mm): 0.000000	Red Motor Position (mm): 5.600000	
326.493990	1974.642647
326.888308	1974.642647
327.282561	1974.642647
327.676750	1949.759511
328.070874	1954.364605
328.464933	1958.712601
328.858929	1966.160905
329.252859	1979.325879
329.646726	1995.271048
330.040528	2011.087668
330.434265	2028.396470
330.827938	2049.649975
331.221547	2069.111349
331.615091	2088.129102
332.008571	2110.214397
332.401986	2132.869343
332.795338	2151.198978
333.188625	2172.999448
333.581847	2189.088290
333.975006	2208.756352
334.368100	2226.574310
334.761129	2243.391599
335.154095	2258.104207
335.546996	2272.809253
335.939833	2286.072528
336.332606	2299.058541
336.725315	2304.659263
337.117960	2317.904894
337.510540	2323.309011
337.903056	2334.021463
338.295508	2338.712257
338.687896	2346.304235
339.080220	2355.564834
339.472480	2360.278313
339.864676	2363.560104
340.256807	2364.044055
340.648875	2366.483973
341.040879	2367.792153
341.432818	2370.647967
341.824694	2370.232071
342.216506	2370.143851
342.608253	2371.210055
342.999937	2369.168388
343.391557	2366.408356
343.783113	2365.495907
344.174605	2367.726618
344.566033	2365.876514
344.957397	2362.859384
345.348697	2359.552387
345.739934	2356.958713
346.131106	2357.190606
346.522215	2356.212623
346.913260	2352.391428
347.304241	2352.582992
347.695159	2349.396983
348.086012	2349.278515
348.476802	2344.590242
348.867528	2346.394975
349.258191	2342.296517
349.648789	2344.260047
350.039324	2343.521518
350.429796	2342.732577
350.820203	2340.796774
351.210548	2343.665191
351.600828	2337.729232
351.991045	2339.871722
352.381198	2341.653770
352.771288	2339.952381
353.161314	2338.729901
353.551276	2340.658142
353.941175	2336.199242
354.331010	2340.829542
354.720782	2339.017247
355.110490	2340.680828
355.500135	2338.450117
355.889717	2338.747545
356.279235	2339.927175
356.668689	2341.663853
357.058080	2342.611589
357.447408	2340.262412
357.836672	2338.319047
358.225873	2343.871878
358.615010	2340.784171
359.004084	2344.552434
359.393095	2341.772237
359.782043	2346.009327
360.170927	2344.713751
360.559748	2345.182578
360.948505	2348.214832
361.337199	2347.730881
361.725830	2347.985459
362.114398	2348.948320
362.502903	2348.534945
362.891344	2349.775069
363.279722	2350.697600
363.668037	2349.586026
364.056289	2352.877899
364.444478	2354.060050
364.832603	2352.371263
365.220665	2352.351099
365.608665	2351.993177
365.996601	2351.015193
366.384474	2354.160873
366.772284	2355.872345
367.160031	2353.928980
367.547715	2355.416120
367.935336	2355.814371
368.322893	2355.174145
368.710388	2354.032323
369.097820	2359.701101
369.485189	2356.162211
369.872495	2357.866121
370.259738	2358.886955
370.646918	2359.413755
371.034035	2364.061699
371.421090	2367.623274
371.808081	2367.598068
372.195010	2371.941022
372.581875	2377.637526
372.968678	2384.642210
373.355418	2385.915101
373.742096	2398.966648
374.128710	2406.939233
374.515262	2418.589340
374.901751	2432.462595
375.288177	2446.348453
375.674540	2466.097173
376.060841	2480.550162
376.447079	2506.307937
376.833254	2527.306863
377.219367	2549.616490
377.605417	2581.337950
377.991404	2607.859461
378.377329	2645.156437
378.763191	2673.265911
379.148991	2712.105481
379.534727	2751.880185
379.920402	2786.528035
380.306013	2822.983139
380.691563	2872.146992
381.077049	2912.665266
381.462474	2947.466872
381.847835	2996.456805
382.233134	3043.979762
382.618371	3079.625761
383.003545	3131.809265
383.388657	3176.388189
383.773706	3225.100858
384.158693	3259.095879
384.543618	3302.510296
384.928480	3335.524813
385.313280	3384.030795
385.698017	3427.321704
386.082692	3478.454127
386.467305	3485.892350
386.851856	3537.201213
387.236344	3594.995522
387.620770	3599.363682
388.005133	3631.029689
388.389435	3673.420752
388.773674	3680.599355
389.157851	3710.944581
389.541965	3734.942994
389.926018	3706.863767
390.310008	3748.975045
390.693936	3758.994339
391.077802	3766.316615
391.461606	3774.344652
391.845348	3771.435906
392.229027	3771.687964
392.612645	3804.601658
392.996200	3795.215029
393.379694	3803.396822
393.763125	3826.225687
394.146494	3800.029331
394.529801	3781.089716
394.913047	3792.434833
395.296230	3734.902664
395.679351	3690.225438
396.062410	3695.644679
396.445408	3606.307871
396.828343	3584.149479
397.211217	3546.645815
397.594028	3464.661530
397.976778	3445.502625
398.359466	3419.943975
398.742092	3353.531814
399.124656	3323.738595
399.507158	3298.066519
399.889598	3246.530803
400.271977	3217.914693
400.654294	3169.920388
401.036549	3140.074237
401.418742	3090.307966
401.800874	3069.039338
402.182944	3029.015097
402.564952	3008.086747
402.946898	2947.340843
403.328783	2906.492373
403.710606	2875.453989
404.092367	2849.907942
404.474067	2833.708194
404.855705	2783.987294
405.237282	2745.079668
405.618797	2730.271279
406.000250	2708.274204
406.381642	2691.144363
406.762972	2659.982471
407.144240	2626.887296
407.525447	2608.172012
407.906593	2581.431212
408.287677	2568.162895
408.668700	2550.758311
409.049661	2531.556556
409.430560	2517.433764
409.811399	2502.499345
410.192176	2492.832933
410.572891	2481.318938
410.953545	2477.545634
411.334138	2462.301185
411.714669	2459.405042
412.095139	2443.346446
412.475547	2441.473657
412.855894	2436.757658
413.236180	2434.141299
413.616405	2427.912954
413.996568	2425.140319
414.376670	2421.714855
414.756711	2417.288722
415.136691	2416.099010
415.516609	2414.170768
415.896466	2411.929975
416.276262	2412.696231
416.655997	2410.901580
417.035670	2407.070303
417.415283	2410.122722
417.794834	2405.663821
418.174324	2408.940571
418.553753	2404.481671
418.933121	2403.874212
419.312428	2402.624005
419.691674	2400.569735
420.070859	2402.573594
420.449983	2403.662483
420.829045	2400.514282
421.208047	2400.720970
421.586988	2400.058058
421.965867	2400.320198
422.344686	2398.649056
422.723444	2398.661658
423.102141	2395.684857
423.480777	2399.798439
423.859352	2397.066133
424.237866	2401.167112
424.616319	2398.046638
424.994712	2397.862636
425.373044	2399.871535
425.751314	2401.653583
426.129524	2397.053530
426.507673	2397.643345
426.885762	2398.560835
427.263789	2394.769888
427.641756	2397.371123
428.019662	2395.274003
428.397508	2397.502193
428.775292	2397.174518
429.153016	2397.184600
429.530679	2401.366237
429.908282	2397.613098
430.285824	2398.966648
430.663305	2398.318860
431.040726	2396.841802
431.418086	2397.660989
431.795385	2400.642832
432.172624	2401.855229
432.549802	2398.654097
432.926920	2397.706360
433.303977	2398.540671
433.680974	2398.470095
434.057910	2398.991854
434.434786	2401.754406
434.811601	2401.464540
435.188355	2398.770043
435.565050	2402.563512
435.941683	2401.792215
436.318257	2401.973697
436.694770	2398.545712
437.071222	2398.666700
437.447614	2397.003119
437.823946	2398.931360
438.200218	2399.337173
438.576429	2399.495969
438.952580	2400.937739
439.328670	2403.047462
439.704700	2403.596948
440.080670	2401.141906
440.456580	2405.439490
440.832429	2403.249108
441.208218	2400.610064
441.583947	2402.283727
441.959616	2404.602658
442.335224	2402.250960
442.710773	2401.532596
443.086261	2405.477298
443.461689	2403.813718
443.837057	2403.549057
444.212365	2403.037380
444.587612	2401.088974
444.962800	2404.312792
445.337927	2403.178532
445.712995	2402.014026
446.088002	2404.632905
446.462949	2402.941598
446.837837	2405.182391
447.212664	2404.837072
447.587431	2408.718760
447.962139	2410.132804
448.336786	2413.283525
448.711374	2412.567681
449.085901	2407.095509
449.460369	2408.998544
449.834776	2410.412588
450.209124	2409.422001
450.583412	2411.786302
450.957640	2413.018865
451.331808	2409.986611
451.705917	2409.842938
452.079965	2405.008471
452.453954	2410.468041
452.827883	2410.253792
453.201752	2410.314286
453.575562	2409.338822
453.949311	2408.388565
454.323001	2410.284039
454.696632	2410.367218
455.070202	2412.295459
455.443713	2414.977353
455.817164	2408.113822
456.190556	2410.170613
456.563888	2409.154820
456.937160	2406.498132
457.310373	2409.144738
457.683526	2409.963925
458.056619	2410.858730
458.429653	2412.547517
458.802628	2412.882753
459.175542	2414.208577
459.548398	2414.753022
459.921194	2416.701428
460.293930	2416.507343
460.666607	2419.796696
461.039224	2420.769639
461.411782	2418.939700
461.784280	2420.242838
462.156719	2418.307035
462.529099	2418.775862
462.901419	2412.802095
463.273680	2414.047260
463.645882	2416.769483
464.018024	2412.202198
464.390106	2416.590522
464.762130	2419.335430
465.134094	2420.961203
465.505999	2427.802048
465.877845	2432.591144
466.249631	2431.877821
466.621358	2430.012594
466.993026	2431.202307
467.364634	2429.823551
467.736184	2424.701739
468.107674	2424.595874
468.479105	2423.030596
468.850477	2423.189392
469.221790	2422.178641
469.593043	2418.511202
469.964238	2417.371901
470.335373	2418.405338
470.706449	2418.627148
471.077467	2419.083373
471.448425	2425.677202
471.819324	2431.424117
472.190164	2425.057140
472.560945	2425.321801
472.931667	2422.032448
473.302330	2419.600091
473.672934	2421.130081
474.043479	2419.927766
474.413965	2418.516243
474.784393	2412.103895
475.154761	2415.940213
475.525070	2414.256468
475.895321	2416.121695
476.265513	2416.015831
476.635645	2419.665626
477.005719	2416.310738
477.375734	2419.579926
477.745691	2420.033630
478.115588	2420.439443
478.485427	2423.159146
478.855207	2425.273910
479.224928	2428.079312
479.594591	2427.514703
479.964194	2430.942687
480.333739	2431.086360
480.703226	2428.467481
481.072653	2425.142840
481.442022	2430.463777
481.811333	2429.405135
482.180584	2429.274065
482.549777	2429.342121
482.918912	2426.138468
483.287988	2428.449837
483.657005	2425.747778
484.025964	2424.028745
484.394864	2426.176276
484.763706	2425.505803
485.132489	2422.972623
485.501213	2421.992118
485.869879	2421.336768
486.238487	2424.936152
486.607036	2424.850453
486.975527	2420.905750
487.343959	2424.399269
487.712333	2420.540266
488.080648	2423.461615
488.448905	2424.968920
488.817104	2421.598908
489.185244	2423.133940
489.553326	2423.844742
489.921350	2429.095104
490.289315	2432.359251
490.657222	2433.906886
491.025070	2433.001998
491.392861	2433.044848
491.760593	2426.675350
492.128267	2429.279106
492.495883	2423.998498
492.863440	2423.721234
493.230939	2424.893302
493.598380	2424.547983
493.965763	2419.229566
494.333088	2420.189906
494.700354	2419.582447
495.067563	2421.258631
495.434713	2417.326531
495.801805	2423.932963
496.168839	2425.127716
496.535815	2423.201995
496.902733	2421.175452
497.269593	2423.368353
497.636395	2424.694177
498.003139	2423.670823
498.369825	2425.410021
498.736453	2425.223498
499.103023	2426.342634
499.469535	2425.157963
499.835989	2425.962027
500.202385	2428.008736
500.568723	2426.692994
500.935003	2429.286668
501.301226	2425.616708
501.667390	2432.447472
502.033497	2432.785229
502.399546	2432.633994
502.765537	2434.806732
503.131470	2432.747420
503.497345	2434.630291
503.863163	2435.280600
504.228923	2436.971907
504.594625	2436.871084
504.960269	2436.177925
505.325856	2440.099943
505.691385	2441.854265
506.056856	2440.967022
506.422270	2445.277208
506.787625	2445.257043
507.152924	2446.663525
507.518164	2445.413319
507.883347	2447.891046
508.248472	2450.441870
508.613540	2449.297528
508.978550	2449.756273
509.343503	2451.409772
509.708398	2454.076542
510.073236	2454.976388
510.438016	2456.161059
510.802738	2456.660133
511.167403	2456.818930
511.532010	2455.304063
511.896561	2457.033179
512.261053	2458.711883
512.625488	2454.484876
512.989866	2454.623507
513.354186	2456.274485
513.718449	2450.114195
514.082655	2457.386060
514.446803	2456.513940
514.810894	2459.357151
515.174927	2458.056533
515.538904	2455.737602
515.902822	2456.576954
516.266684	2456.309773
516.630488	2453.194340
516.994235	2451.664350
517.357925	2452.118054
517.721558	2451.336675
518.085133	2448.601849
518.448651	2451.031685
518.812112	2443.384255
519.175516	2443.913576
519.538863	2443.275870
519.902152	2442.817125
520.265385	2443.182609
520.628560	2439.638677
520.991678	2437.211362
521.354739	2437.798656
521.717743	2437.281938
522.080690	2435.109201
522.443580	2434.229519
522.806413	2434.723552
523.169189	2431.025866
523.531908	2431.746751
523.894569	2431.320774
524.257174	2428.275917
524.619722	2427.267686
524.982213	2426.950093
525.344647	2425.704928
525.707025	2426.410690
526.069345	2422.458425
526.431608	2421.893816
526.793815	2423.920360
527.155964	2423.549835
527.518057	2425.170566
527.880093	2419.907601
528.242072	2422.208888
528.603995	2421.445153
528.965860	2419.355595
529.327669	2420.373908
529.689421	2415.829308
530.051117	2418.896850
530.412755	2414.359812
530.774337	2417.276119
531.135862	2417.712179
531.497331	2415.173958
531.858743	2411.511560
532.220098	2417.563465
532.581396	2412.275294
532.942638	2412.232445
533.303824	2415.514236
533.664953	2414.001890
534.026025	2414.269071
534.387040	2416.225038
534.747999	2415.483989
535.108902	2414.957188
535.469748	2414.702610
535.830537	2412.983577
536.191270	2415.947775
536.551947	2415.206725
536.912567	2413.964081
537.273131	2416.719072
537.633638	2413.664132
537.994089	2414.541293
538.354483	2414.198495
538.714821	2413.926272
539.075103	2415.378125
539.435328	2416.242683
539.795497	2413.207908
540.155609	2412.739081
540.515665	2414.450552
540.875665	2413.704462
541.235609	2416.293094
541.595496	2414.115316
541.955328	2411.325037
542.315102	2414.289235
542.674821	2410.836045
543.034483	2410.838566
543.394090	2411.824111
543.753640	2414.768145
544.113134	2414.493402
544.472571	2412.459297
544.831953	2414.266550
545.191278	2412.550037
545.550548	2413.638927
545.909761	2414.382497
546.268918	2411.088103
546.628019	2411.788823
546.987064	2411.476272
547.346053	2413.338978
547.704986	2412.855027
548.063863	2413.717064
548.422684	2411.670356
548.781449	2410.379821
549.140158	2412.207239
549.498811	2411.942578
549.857408	2411.718247
550.215949	2411.020047
550.574434	2408.317989
550.932864	2409.422001
551.291237	2408.648184
551.649555	2412.534914
552.007817	2409.283370
552.366022	2412.620613
552.724173	2411.176323
553.082267	2412.164389
553.440305	2409.570715
553.798288	2412.681107
554.156215	2412.968453
554.514086	2411.370407
554.871902	2412.371076
555.229661	2409.472413
555.587365	2410.006775
555.945014	2412.461817
556.302606	2409.227917
556.660143	2410.992321
557.017625	2413.137332
557.375050	2412.413926
557.732421	2414.392579
558.089735	2412.174471
558.446994	2410.498288
558.804197	2409.633730
559.161345	2415.058011
559.518437	2409.744635
559.875474	2413.258319
560.232455	2409.389234
560.589381	2411.998031
560.946251	2413.162538
561.303065	2412.595408
561.659825	2413.349060
562.016528	2411.262023
562.373177	2411.607342
562.729770	2408.580129
563.086307	2412.003072
563.442789	2410.536096
563.799216	2410.684810
564.155587	2410.909142
564.511904	2410.465520
564.868164	2408.456620
565.224370	2413.845614
565.580520	2410.717578
565.936615	2410.800757
566.292654	2408.002917
566.648638	2412.313103
567.004567	2410.306724
567.360441	2411.856879
567.716260	2411.093144
568.072023	2409.931158
568.427732	2408.078534
568.783385	2408.300345
569.138982	2408.764131
569.494525	2406.566188
569.850013	2406.440159
570.205445	2409.016188
570.560823	2411.733370
570.916145	2411.314955
571.271412	2410.566343
571.626625	2411.418298
571.981782	2409.192629
572.336884	2411.511560
572.691931	2406.082237
573.046923	2409.810170
573.401860	2410.770510
573.756743	2410.417629
574.111570	2409.485016
574.466342	2411.680438
574.821059	2409.399316
575.175722	2411.781261
575.530330	2412.207239
575.884882	2409.779923
576.239380	2408.146589
576.593823	2410.175654
576.948211	2410.021899
577.302544	2409.374110
577.656823	2410.039543
578.011047	2410.689852
578.365216	2410.931827
578.719330	2410.432753
579.073389	2407.153482
579.427394	2414.049781
579.781344	2407.776065
580.135239	2409.805129
580.489080	2406.634243
580.842866	2410.263874
581.196597	2408.602814
581.550273	2408.507032
581.903895	2410.722619
582.257463	2408.257495
582.610975	2411.950140
582.964434	2410.112639
583.317837	2410.304203
583.671186	2407.970149
584.024481	2408.088616
584.377721	2410.518452
584.730906	2411.168761
585.084037	2411.125911
585.437113	2410.437794
585.790135	2409.245561
586.143103	2410.427712
586.496016	2410.457958
586.848874	2403.559139
587.201679	2407.178688
587.554428	2403.516290
587.907124	2407.508883
588.259765	2404.554767
588.612352	2414.110274
588.964884	2411.166241
589.317362	2407.198853
589.669786	2408.774213
590.022155	2408.993503
590.374470	2407.110632
590.726731	2408.224727
591.078937	2407.876888
591.431090	2408.232289
591.783188	2410.455438
592.135232	2408.217166
592.487222	2407.667680
592.839157	2409.507701
593.191038	2408.083575
593.542866	2408.938051
593.894639	2408.544841
594.246358	2405.341187
594.598022	2403.420508
594.949633	2405.580642
595.301190	2407.080385
595.652692	2407.410581
596.004141	2410.561302
596.355535	2405.177350
596.706876	2408.252454
597.058162	2407.183729
597.409395	2408.086096
597.760573	2408.169275
598.111698	2407.687844
598.462768	2408.421332
598.813785	2406.840931
599.164748	2404.320354
599.515657	2409.779923
599.866511	2407.884449
600.217312	2410.079872
600.568060	2407.624830
600.918753	2411.594739
601.269392	2406.924110
601.619978	2406.798081
601.970510	2409.066600
602.320988	2405.459654
602.671412	2404.942936
603.021783	2407.090468
603.372100	2407.405540
603.722363	2407.710530
604.072572	2410.435273
604.422728	2405.915879
604.772830	2405.754562
605.122878	2403.561660
605.472872	2405.358831
605.822813	2401.303223
606.172701	2407.934861
606.522534	2405.651218
606.872314	2408.012999
607.222041	2410.697413
607.571714	2407.150962
607.921333	2406.876219
608.270899	2409.416960
608.620411	2408.673390
608.969870	2405.467216
609.319276	2404.368245
609.668627	2407.430746
610.017926	2406.795560
610.367171	2407.337484
610.716362	2408.295303
611.065500	2406.142731
611.414585	2407.952505
611.763616	2408.701116
612.112594	2403.125600
612.461518	2407.992834
612.810389	2407.702968
613.159207	2407.052659
613.507971	2404.816907
613.856682	2406.573749
614.205340	2407.796229
614.553945	2406.369583
614.902496	2406.309089
615.250994	2407.289593
615.599439	2406.452762
615.947830	2407.534089
616.296169	2408.431415
616.644454	2407.975190
616.992686	2408.292783
617.340864	2408.348236
617.688990	2405.177350
618.037063	2408.108781
618.385082	2405.968811
618.733048	2408.348236
619.080961	2408.869995
619.428821	2408.635581
619.776628	2407.879408
620.124382	2407.463513
620.472083	2407.498801
620.819731	2410.311765
621.167326	2406.001578
621.514868	2408.839748
621.862357	2407.047618
622.209793	2406.268760
622.557176	2409.225396
622.904506	2405.005951
623.251783	2400.967986
623.599007	2401.953532
623.946179	2403.291958
624.293297	2403.707853
624.640363	2404.108625
624.987376	2407.224058
625.334336	2406.994686
625.681243	2407.536610
626.028097	2405.653739
626.374899	2409.237999
626.721647	2404.393450
627.068343	2408.794378
627.414987	2405.709192
627.761577	2407.650036
628.108115	2406.059552
628.454600	2407.526527
628.801032	2406.016702
629.147412	2405.482340
629.493739	2406.306568
629.840014	2405.366393
630.186236	2405.000909
630.532405	2404.670714
630.878521	2404.910169
631.224585	2402.969324
631.570597	2404.821948
631.916556	2404.663152
632.262462	2405.000909
632.608316	2409.555592
632.954117	2402.402195
633.299866	2405.008471
633.645562	2405.384037
633.991206	2404.358162
634.336797	2405.162226
634.682336	2406.369583
635.027823	2405.033677
635.373257	2405.658780
635.718639	2407.259346
636.063968	2402.505538
636.409245	2405.149623
636.754470	2403.105436
637.099642	2405.442010
637.444762	2405.033677
637.789829	2404.733728
638.134845	2406.493091
638.479808	2402.288769
638.824719	2401.540157
639.169577	2401.509910
639.514383	2401.630898
639.859137	2406.419994
640.203839	2402.719787
640.548489	2406.251116
640.893086	2400.453789
641.237632	2400.201731
641.582125	2401.494787
641.926566	2399.803480
642.270955	2406.130128
642.615292	2401.620816
642.959576	2403.407905
643.303809	2400.262225
643.647990	2403.392781
643.992118	2404.171640
644.336195	2403.687689
