Dividing Wavelength (nm)	Counts (n)	Blue Motor Position (mm): 0.000000	Red Motor Position (mm): 44.600000	
326.493990	1999.450165
326.888308	1999.450165
327.282561	1999.450165
327.676750	1973.500825
328.070874	1976.399489
328.464933	1981.828812
328.858929	1992.072436
329.252859	2000.203817
329.646726	2016.572444
330.040528	2030.680113
330.434265	2052.467980
330.827938	2070.343911
331.221547	2089.825450
331.615091	2109.911928
332.008571	2131.004116
332.401986	2152.217291
332.795338	2172.086999
333.188625	2191.878569
333.581847	2211.546631
333.975006	2231.207131
334.368100	2248.450397
334.761129	2265.171905
335.154095	2281.222938
335.546996	2315.890953
335.939833	2389.063302
336.332606	2404.340518
336.725315	2415.088258
337.117960	2428.268355
337.510540	2431.514858
337.903056	2443.406940
338.295508	2445.972887
338.687896	2457.323045
339.080220	2462.132306
339.472480	2472.360807
339.864676	2470.742597
340.256807	2476.935654
340.648875	2477.747280
341.040879	2479.988073
341.432818	2481.490337
341.824694	2480.376242
342.216506	2479.783906
342.608253	2479.887250
342.999937	2478.437918
343.391557	2478.193422
343.783113	2477.321302
344.174605	2474.717547
344.566033	2474.430201
344.957397	2472.002885
345.348697	2472.375931
345.739934	2468.940384
346.131106	2467.606999
346.522215	2465.726649
346.913260	2466.172791
347.304241	2466.760085
347.695159	2461.663479
348.086012	2462.157512
348.476802	2461.086267
348.867528	2457.358333
349.258191	2456.259362
349.648789	2456.362705
350.039324	2455.165431
350.429796	2456.919753
350.820203	2452.060081
351.210548	2454.653754
351.600828	2452.962447
351.991045	2452.745677
352.381198	2452.632252
352.771288	2455.026800
353.161314	2450.895574
353.551276	2451.568568
353.941175	2449.912549
354.331010	2454.830195
354.720782	2452.859103
355.110490	2457.875052
355.500135	2451.049329
355.889717	2453.731223
356.279235	2458.878241
356.668689	2453.663167
357.058080	2456.823971
357.447408	2455.253652
357.836672	2456.498817
358.225873	2455.500668
358.615010	2455.843467
359.004084	2458.439661
359.393095	2458.830350
359.782043	2461.260186
360.170927	2460.844291
360.559748	2459.891513
360.948505	2467.115487
361.337199	2465.681278
361.725830	2467.130610
362.114398	2468.481639
362.502903	2467.768316
362.891344	2469.492391
363.279722	2471.022381
363.668037	2469.416773
364.056289	2469.802422
364.444478	2471.748307
364.832603	2471.823924
365.220665	2473.363997
365.608665	2475.758545
365.996601	2474.369707
366.384474	2475.420787
366.772284	2478.208546
367.160031	2479.708289
367.547715	2478.952116
367.935336	2477.633854
368.322893	2483.315234
368.710388	2478.513535
369.097820	2486.420585
369.485189	2484.857827
369.872495	2489.798158
370.259738	2488.651296
370.646918	2495.103973
371.034035	2492.043992
371.421090	2498.600013
371.808081	2501.193687
372.195010	2508.140397
372.581875	2507.885818
372.968678	2519.482993
373.355418	2524.773684
373.742096	2536.262473
374.128710	2549.419885
374.515262	2562.625187
374.901751	2573.372927
375.288177	2593.114086
375.674540	2615.688373
376.060841	2635.855509
376.447079	2657.822337
376.833254	2684.270750
377.219367	2710.391489
377.605417	2747.882550
377.991404	2771.344080
378.377329	2814.135914
378.763191	2851.158148
379.148991	2899.321332
379.534727	2950.060546
379.920402	2999.090808
380.306013	3050.795402
380.691563	3115.080196
381.077049	3172.201510
381.462474	3229.378277
381.847835	3304.166315
382.233134	3378.914024
382.618371	3441.462140
383.003545	3530.176366
383.388657	3613.405816
383.773706	3707.130948
384.158693	3785.367135
384.543618	3879.246022
384.928480	3963.259372
385.313280	4072.145774
385.698017	4176.769881
386.082692	4298.506185
386.467305	4361.906256
386.851856	4496.827698
387.236344	4656.123118
387.620770	4721.305237
388.005133	4846.968600
388.389435	4996.080890
388.773674	5081.288993
389.157851	5217.879056
389.541965	5354.877453
389.926018	5381.774529
390.310008	5567.447787
390.693936	5689.738618
391.077802	5813.415766
391.461606	5949.670592
391.845348	6065.791051
392.229027	6184.386715
392.612645	6421.121821
392.996200	6535.901332
393.379694	6723.162553
393.763125	6947.710669
394.146494	7042.456635
394.529801	7187.712442
394.913047	7438.136800
395.296230	7437.960360
395.679351	7496.883887
396.062410	7766.759537
396.445408	7654.435068
396.828343	7823.706932
397.211217	7956.785832
397.594028	7842.631423
397.976778	8045.512660
398.359466	8222.043785
398.742092	8194.093108
399.124656	8348.959874
399.507158	8533.854274
399.889598	8563.808810
400.271977	8775.038198
400.654294	8812.488929
401.036549	9015.667594
401.418742	9038.650214
401.800874	9347.738480
402.182944	9435.971275
402.564952	9807.897524
402.946898	9624.200398
403.328783	9693.652375
403.710606	9882.733453
404.092367	10151.757148
404.474067	10527.996104
404.855705	10312.595162
405.237282	10261.606411
405.618797	10701.522702
406.000250	10958.808070
406.381642	11329.579895
406.762972	11282.906372
407.144240	11072.176059
407.525447	11344.471463
407.906593	11277.746751
408.287677	11530.598425
408.668700	11702.811802
409.049661	11670.714775
409.430560	11833.675115
409.811399	11805.162348
410.192176	11973.249541
410.572891	12046.192517
410.953545	12552.687326
411.334138	12010.927125
411.714669	12640.791572
412.095139	11919.031932
412.475547	12443.513578
412.855894	12282.526850
413.236180	12622.285496
413.616405	12289.090432
413.996568	12584.297881
414.376670	12554.870146
414.756711	12429.080754
415.136691	12724.570507
415.516609	12913.331472
415.896466	12977.034013
416.276262	13272.327161
416.655997	13713.743195
417.035670	13752.726437
417.415283	14416.903498
417.794834	14514.502757
418.174324	14251.452828
418.553753	14150.498682
418.933121	14663.902392
419.312428	14459.775991
419.691674	14374.517476
420.070859	14833.433875
420.449983	14487.189785
420.829045	15051.746084
421.208047	14786.127688
421.586988	15259.418937
421.965867	15523.671181
422.344686	15525.218815
422.723444	16095.890033
423.102141	14750.080917
423.480777	15967.832123
423.859352	15473.584797
424.237866	16607.637725
424.616319	16298.902340
424.994712	16977.101369
425.373044	16759.719254
425.751314	17466.536914
426.129524	16561.387659
426.507673	17693.587963
426.885762	17366.038992
427.263789	17591.549968
427.641756	17750.948732
428.019662	17819.707550
428.397508	17859.308334
428.775292	18173.309204
429.153016	18132.571640
429.530679	18217.676399
429.908282	18242.322600
430.285824	17949.534905
430.663305	18676.464249
431.040726	18256.657121
431.418086	18084.090863
431.795385	18755.779243
432.172624	19165.307458
432.549802	18723.891424
432.926920	18915.142719
433.303977	18794.059244
433.680974	19052.511640
434.057910	19347.386373
434.434786	19374.515342
434.811601	19277.826012
435.188355	20354.780311
435.565050	19985.480503
435.941683	19942.368556
436.318257	20849.441011
436.694770	20639.166922
437.071222	21253.239955
437.447614	20304.840120
437.823946	20329.861887
438.200218	20480.453755
438.576429	20252.696945
438.952580	20525.791372
439.328670	20506.645070
439.704700	20926.704256
440.080670	20484.600104
440.456580	21081.946588
440.832429	21276.872884
441.208218	20235.143648
441.583947	20692.744306
441.959616	20795.573762
442.335224	21049.857123
442.710773	21180.642298
443.086261	21730.090259
443.461689	21084.333575
443.837057	21201.699198
444.212365	21866.894571
444.587612	21862.019776
444.962800	21423.119278
445.337927	21864.149663
445.712995	20564.010880
446.088002	22466.607877
446.462949	22660.815808
446.837837	22839.338189
447.212664	22802.449546
447.587431	25716.400307
447.962139	28704.183807
448.336786	31117.248042
448.711374	29507.365643
449.085901	25761.143068
449.460369	25700.155188
449.834776	25643.275850
450.209124	28181.627881
450.583412	27692.527573
450.957640	28216.810094
451.331808	26840.522162
451.705917	25453.178979
452.079965	25503.494736
452.453954	25857.739137
452.827883	25740.633133
453.201752	25539.354984
453.575562	25716.193619
453.949311	26873.612296
454.323001	26933.075226
454.696632	26684.322010
455.070202	28274.317056
455.443713	28394.374656
455.817164	29006.688325
456.190556	29541.073318
456.563888	28973.835126
456.937160	29417.943136
457.310373	27725.252223
457.683526	28197.194964
458.056619	28180.816255
458.429653	28101.801210
458.802628	28691.558237
459.175542	28807.527460
459.548398	30114.973396
459.921194	31725.042317
460.293930	32405.842582
460.666607	34474.933767
461.039224	36254.040138
461.411782	36645.606722
461.784280	35440.783555
462.156719	34971.366433
462.529099	34394.010644
462.901419	33108.932309
463.273680	32019.468387
463.645882	32099.093412
464.018024	32088.615373
464.390106	32944.384006
464.762130	35674.642682
465.134094	39791.745467
465.505999	45137.243853
465.877845	49728.497403
466.249631	50909.365007
466.621358	49227.452082
466.993026	47138.818864
467.364634	45065.183079
467.736184	43068.092174
468.107674	41800.965388
468.479105	40992.076965
468.850477	40288.843565
469.221790	38837.981844
469.593043	37054.368681
469.964238	36153.814438
470.335373	36084.622081
470.706449	37859.776187
471.077467	40495.709834
471.448425	45076.545840
471.819324	47881.955517
472.190164	46000.944741
472.560945	42414.423399
472.931667	39285.812746
473.302330	38158.091507
473.672934	37328.123500
474.043479	37856.141515
474.413965	37042.191774
474.784393	36664.369896
475.154761	37573.350429
475.525070	37610.458362
475.895321	37136.710888
476.265513	37739.905111
476.635645	38710.339829
477.005719	38532.674444
477.375734	39022.447746
477.745691	39710.406449
478.115588	41074.860273
478.485427	43069.307092
478.855207	46467.458159
479.224928	49078.637220
479.594591	50706.972762
479.964194	49740.039125
480.333739	49907.264281
480.703226	49955.177927
481.072653	50580.263360
481.442022	51051.938920
481.811333	51302.877476
482.180584	50031.001922
482.549777	49498.877887
482.918912	48984.347478
483.287988	48699.030774
483.657005	47847.726083
484.025964	47198.296918
484.394864	47245.708970
484.763706	46806.102710
485.132489	45934.880420
485.501213	45753.046001
485.869879	45911.938129
486.238487	45491.652092
486.607036	45695.460901
486.975527	45143.068906
487.343959	45362.331372
487.712333	45438.480522
488.080648	45348.632037
488.448905	45803.049206
488.817104	45610.184742
489.185244	46587.051973
489.553326	48278.207853
489.921350	50978.746407
490.289315	53827.119318
490.657222	54397.677110
491.025070	54677.279667
491.392861	53798.329288
491.760593	52598.655661
492.128267	50949.474947
492.495883	49428.092525
492.863440	48046.617246
493.230939	46670.682194
493.598380	45580.043683
493.965763	45241.048772
494.333088	44427.371253
494.700354	43927.843319
495.067563	43613.716420
495.434713	43493.583203
495.801805	43569.182867
496.168839	43178.112837
496.535815	42850.120244
496.902733	42881.715676
497.269593	42469.437511
497.636395	42394.105029
498.003139	42803.519818
498.369825	42246.147163
498.736453	42581.812392
499.103023	42089.606733
499.469535	41953.152781
499.835989	42067.551685
500.202385	41706.340409
500.568723	41745.179979
500.935003	41940.330606
501.301226	41727.724984
501.667390	42350.219264
502.033497	42632.362562
502.399546	42041.531770
502.765537	41352.542150
503.131470	41758.198759
503.497345	42096.417332
503.863163	40755.992169
504.228923	41384.654300
504.594625	41807.453353
504.960269	41094.407347
505.325856	41788.811166
505.691385	41139.160190
506.056856	41280.287292
506.422270	41726.923441
506.787625	41302.233955
507.152924	41500.270643
507.518164	41605.779473
507.883347	40799.467079
508.248472	41080.037538
508.613540	41563.839593
508.978550	41873.187478
509.343503	41613.454629
509.708398	41821.220744
510.073236	42333.389372
510.438016	42358.169163
510.802738	41809.633652
511.167403	42431.918724
511.532010	42678.209336
511.896561	42967.937050
512.261053	43855.175086
512.625488	43372.232548
512.989866	43248.726799
513.354186	43097.406484
513.718449	43092.763581
514.082655	43782.126246
514.446803	43439.549596
514.810894	43957.225684
515.174927	43878.936565
515.538904	43781.871668
515.902822	44489.949617
516.266684	43903.285338
516.630488	44362.993198
516.994235	44197.146798
517.357925	44765.993119
517.721558	44943.691272
518.085133	45250.364825
518.448651	45394.602318
518.812112	45148.087375
519.175516	45251.977994
519.538863	45603.454802
519.902152	45555.236165
520.265385	46028.056067
520.628560	46071.289002
520.991678	45851.247678
521.354739	46097.523167
521.717743	46405.336021
522.080690	46305.458160
522.443580	46838.177052
522.806413	46910.326045
523.169189	46832.737647
523.531908	47019.630864
523.894569	46875.668113
524.257174	47043.104997
524.619722	47338.670367
524.982213	47345.783435
525.344647	47247.301974
525.707025	47275.081253
526.069345	47678.134105
526.431608	47604.303887
526.793815	47923.303061
527.155964	47452.950804
527.518057	47599.126622
527.880093	47386.256339
528.242072	47918.564376
528.603995	47605.430585
528.965860	47629.330695
529.327669	47709.651399
529.689421	47591.491794
530.051117	47554.703974
530.412755	47684.226340
530.774337	47757.882639
531.135862	47544.004125
531.497331	47752.740662
531.858743	47640.990884
532.220098	48016.960138
532.581396	47708.255000
532.942638	47371.654637
533.303824	47667.144390
533.664953	47624.506311
534.026025	47340.268413
534.387040	47822.832865
534.747999	47759.210983
535.108902	47914.791073
535.469748	47434.888350
535.830537	47549.017552
536.191270	47730.650326
536.551947	47381.656286
536.912567	47692.516517
537.273131	47820.760951
537.633638	47277.962272
537.994089	47642.011717
538.354483	47235.175479
538.714821	47807.280905
539.075103	48140.486051
539.435328	47899.082837
539.795497	47778.183365
540.155609	47771.637427
540.515665	48232.739166
540.875665	47693.582721
541.235609	48016.556845
541.595496	47979.307760
541.955328	48655.765071
542.315102	48036.668529
542.674821	47815.445054
543.034483	47874.529897
543.394090	47816.143254
543.753640	47786.551681
544.113134	48784.105286
544.472571	47777.497768
544.831953	49057.189631
545.191278	48242.798789
545.550548	47955.374882
545.909761	48438.428326
546.268918	48625.402201
546.628019	48940.300397
546.987064	48490.092591
547.346053	47763.105274
547.704986	48663.805711
548.063863	48186.506744
548.422684	48395.397036
548.781449	48242.960106
549.140158	48654.852622
549.498811	48498.483591
549.857408	47921.785674
550.215949	48759.373385
550.574434	48681.374132
550.932864	48458.945822
551.291237	49180.302170
551.649555	48766.204149
552.007817	49004.668370
552.366022	48657.408487
552.724173	48839.152165
553.082267	49230.721270
553.440305	49538.823990
553.798288	48847.495275
554.156215	49143.910080
554.514086	49368.075068
554.871902	49116.881934
555.229661	49147.915277
555.587365	48965.591866
555.945014	49043.724709
556.302606	48961.359817
556.660143	49222.032841
557.017625	49295.605961
557.375050	49068.534748
557.732421	49426.055899
558.089735	49406.980173
558.446994	49330.001754
558.804197	49824.082722
559.161345	49754.290467
559.518437	48979.253392
559.875474	49284.510381
560.232455	49461.437237
560.589381	49623.124685
560.946251	49329.416980
561.303065	50031.218692
561.659825	49835.521100
562.016528	49489.347586
562.373177	49219.547552
562.729770	49690.524912
563.086307	49212.240400
563.442789	49674.277273
563.799216	49720.653368
564.155587	49510.207880
564.511904	49537.324247
564.868164	49642.646553
565.224370	49865.601665
565.580520	49618.809458
565.936615	49818.295477
566.292654	49556.470549
566.648638	49811.174847
567.004567	49751.701835
567.360441	49794.481066
567.716260	49659.420993
568.072023	49936.235792
568.427732	49929.221026
568.783385	49457.016145
569.138982	49876.414940
569.494525	49834.071768
569.850013	49605.175657
570.205445	49570.154761
570.560823	49531.849554
570.916145	49416.828067
571.271412	49429.045303
571.626625	49202.037104
571.981782	49262.014232
572.336884	48953.087283
572.691931	49284.674219
573.046923	48859.173108
573.401860	48730.147296
573.756743	48707.164675
574.111570	48847.951499
574.466342	48687.816727
574.821059	48800.325198
575.175722	48316.250921
575.530330	48314.005087
575.884882	48048.691681
576.239380	48019.349645
576.593823	48004.410185
576.948211	47926.297506
577.302544	47436.166282
577.656823	47450.939384
578.011047	47674.146553
578.365216	47417.118283
578.719330	47211.303095
579.073389	47058.034374
579.427394	47129.056670
579.781344	47111.397508
580.135239	46757.349711
580.489080	46860.612707
580.842866	46332.879516
581.196597	46790.770041
581.550273	46720.299751
581.903895	46602.704755
582.257463	47010.438320
582.610975	46381.110756
582.964434	46669.610949
583.317837	46309.803635
583.671186	46145.731721
584.024481	46377.040024
584.377721	45917.569098
584.730906	46213.381485
585.084037	46244.427431
585.437113	45953.935982
585.790135	45986.406054
586.143103	45586.632471
586.496016	45721.652215
586.848874	45739.903713
587.201679	45766.861283
587.554428	45238.991982
587.907124	45410.673517
588.259765	45184.923086
588.612352	45427.069870
588.964884	44809.014326
589.317362	45114.674607
589.669786	45048.746397
590.022155	44819.411706
590.374470	45256.943530
590.726731	44766.419097
591.078937	44288.260613
591.431090	44376.931989
591.783188	44041.654929
592.135232	43695.559552
592.487222	43949.260661
592.839157	44037.543868
593.191038	43712.071852
593.542866	43472.886746
593.894639	42850.185779
594.246358	43127.960917
594.598022	43124.096873
594.949633	42722.011922
595.301190	42670.166175
595.652692	42489.196314
596.004141	42821.746109
596.355535	41820.063799
596.706876	41776.573765
597.058162	41611.317180
597.409395	42101.811367
597.760573	42171.926255
598.111698	41735.649678
598.462768	41752.794642
598.813785	41798.631333
599.164748	41240.028637
599.515657	41637.508495
599.866511	41095.100506
600.217312	41719.172667
600.568060	40650.485860
600.918753	41410.580954
601.269392	41362.445497
601.619978	41011.193020
601.970510	41229.653943
602.320988	41402.061404
602.671412	41702.065511
603.021783	41454.847326
603.372100	41097.484971
603.722363	41211.997302
604.072572	41298.632051
604.422728	41305.183030
604.772830	41114.393001
605.122878	41207.321631
605.472872	41131.394293
605.822813	41416.489187
606.172701	41220.534496
606.522534	41479.417910
606.872314	41757.581218
607.222041	41477.237611
607.571714	41856.818852
607.921333	41285.716615
608.270899	41602.827877
608.620411	41947.385701
608.969870	41734.699420
609.319276	41717.758623
609.668627	41774.211984
610.017926	42268.746656
610.367171	42431.409567
610.716362	42508.612318
611.065500	42429.688013
611.414585	42622.186993
611.763616	42908.758945
612.112594	42842.172865
612.461518	43055.665730
612.810389	43329.145806
613.159207	43188.487531
613.507971	43261.619550
613.856682	43739.475564
614.205340	43611.185761
614.553945	44318.384028
614.902496	43736.322323
615.250994	44204.481677
615.599439	44266.979382
615.947830	44468.179394
616.296169	44514.353843
616.644454	44627.472294
616.992686	44790.185616
617.340864	45295.946938
617.688990	45000.734448
618.037063	45589.952071
618.385082	45541.254525
618.733048	45839.864752
619.080961	45837.674371
619.428821	45833.591037
619.776628	45938.827644
620.124382	45758.482885
620.472083	45899.216777
620.819731	46028.711417
621.167326	45699.196396
621.514868	45657.311969
621.862357	45223.593777
622.209793	45236.403349
622.557176	44911.823617
622.904506	44655.123022
623.251783	44320.518957
623.599007	44093.881282
623.946179	43851.991598
624.293297	43796.808607
624.640363	43183.277499
624.987376	43158.283458
625.334336	42896.745876
625.681243	42527.932540
626.028097	42473.067142
626.374899	42307.561020
626.721647	42255.082608
627.068343	42133.752118
627.414987	41878.019424
627.761577	41627.952988
628.108115	41956.132103
628.454600	41372.805068
628.801032	41540.536859
629.147412	41498.657474
629.493739	41487.153561
629.840014	41094.866092
630.186236	41418.319126
630.532405	41010.976251
630.878521	41194.265043
631.224585	41053.205997
631.570597	40753.761458
631.916556	40903.009859
632.262462	40822.109422
632.608316	40820.929792
632.954117	40693.590246
633.299866	40666.584785
633.645562	40591.897570
633.991206	40086.635323
634.336797	39645.073096
634.682336	39647.681893
635.027823	39377.339935
