Dividing Wavelength (nm)	Counts (n)	Blue Motor Position (mm): 0.000000	Red Motor Position (mm): 13.000000	
326.493990	1979.547689
326.888308	1979.547689
327.282561	1979.547689
327.676750	1954.924173
328.070874	1957.429627
328.464933	1964.366255
328.858929	1972.595938
329.252859	1983.981384
329.646726	2000.166009
330.040528	2015.546569
330.434265	2033.019208
330.827938	2053.077959
331.221547	2071.692420
331.615091	2096.177304
332.008571	2113.781013
332.401986	2135.957049
332.795338	2157.054278
333.188625	2174.058090
333.581847	2195.092304
333.975006	2211.846579
334.368100	2229.185628
334.761129	2247.212794
335.154095	2262.290885
335.546996	2278.475510
335.939833	2291.408590
336.332606	2307.010961
336.725315	2316.647127
337.117960	2324.181131
337.510540	2330.487614
337.903056	2341.192505
338.295508	2344.915397
338.687896	2355.055678
339.080220	2362.297295
339.472480	2364.240660
339.864676	2369.980014
340.256807	2373.201311
340.648875	2376.654501
341.040879	2375.638709
341.432818	2378.668442
341.824694	2379.737167
342.216506	2377.486292
342.608253	2375.119470
342.999937	2377.758514
343.391557	2376.334388
343.783113	2377.032588
344.174605	2374.007896
344.566033	2369.836341
344.957397	2372.301465
345.348697	2369.286855
345.739934	2366.191587
346.131106	2363.958355
346.522215	2362.067923
346.913260	2359.108765
347.304241	2359.993488
347.695159	2357.356964
348.086012	2357.341841
348.476802	2357.351923
348.867528	2353.770183
349.258191	2354.357478
349.648789	2351.388238
350.039324	2349.477641
350.429796	2352.104082
350.820203	2348.988649
351.210548	2346.813391
351.600828	2349.235666
351.991045	2348.741633
352.381198	2347.451097
352.771288	2349.323886
353.161314	2348.608042
353.551276	2350.954699
353.941175	2347.330109
354.331010	2347.433453
354.720782	2347.680470
355.110490	2350.301870
355.500135	2350.700121
355.889717	2349.437312
356.279235	2348.449246
356.668689	2351.615090
357.058080	2350.422857
357.447408	2349.175172
357.836672	2348.350943
358.225873	2351.703310
358.615010	2349.331448
359.004084	2353.881089
359.393095	2354.561645
359.782043	2355.461491
360.170927	2357.031810
360.559748	2358.594568
360.948505	2357.049454
361.337199	2358.118179
361.725830	2360.658920
362.114398	2362.365351
362.502903	2360.608509
362.891344	2357.878724
363.279722	2363.975999
363.668037	2361.662110
364.056289	2364.699405
364.444478	2362.806452
364.832603	2365.856350
365.220665	2366.360465
365.608665	2366.879704
365.996601	2369.543954
366.384474	2366.748634
366.772284	2368.248377
367.160031	2368.500435
367.547715	2369.664942
367.935336	2369.004550
368.322893	2371.061341
368.710388	2370.819366
369.097820	2373.808770
369.485189	2371.908255
369.872495	2374.391023
370.259738	2374.849768
370.646918	2377.667773
371.034035	2378.759183
371.421090	2378.645757
371.808081	2382.981149
372.195010	2390.696635
372.581875	2392.748385
372.968678	2401.288100
373.355418	2406.309089
373.742096	2417.155131
374.128710	2426.468663
374.515262	2438.544747
374.901751	2451.916408
375.288177	2467.677575
375.674540	2487.350678
376.060841	2503.923471
376.447079	2529.640918
376.833254	2556.782490
377.219367	2579.140007
377.605417	2616.293311
377.991404	2642.719040
378.377329	2679.678259
378.763191	2713.544731
379.148991	2761.284457
379.534727	2806.286838
379.920402	2852.849455
380.306013	2903.366858
380.691563	2959.127061
381.077049	3013.226203
381.462474	3068.391550
381.847835	3142.635143
382.233134	3212.563509
382.618371	3270.609875
383.003545	3356.049871
383.388657	3434.898558
383.773706	3524.167310
384.158693	3596.195316
384.543618	3687.319213
384.928480	3762.684463
385.313280	3865.118189
385.698017	3965.127119
386.082692	4085.567847
386.467305	4146.671672
386.851856	4269.718676
387.236344	4426.891771
387.620770	4481.658866
388.005133	4602.286116
388.389435	4750.070061
388.773674	4828.147452
389.157851	4956.787616
389.541965	5083.875104
389.926018	5113.622953
390.310008	5287.323471
390.693936	5403.345627
391.077802	5516.461557
391.461606	5652.492052
391.845348	5757.436273
392.229027	5876.218460
392.612645	6099.912100
392.996200	6205.715837
393.379694	6372.169696
393.763125	6589.587100
394.146494	6677.446850
394.529801	6807.032230
394.913047	7038.504370
395.296230	7030.302413
395.679351	7079.027686
396.062410	7311.661812
396.445408	7198.886159
396.828343	7341.870927
397.211217	7457.716642
397.594028	7330.041859
397.976778	7502.219948
398.359466	7646.270919
398.742092	7598.921882
399.124656	7714.681898
399.507158	7860.761933
399.889598	7846.119902
400.271977	8013.624841
400.654294	8003.935743
401.036549	8146.381107
401.418742	8124.852860
401.800874	8342.255140
402.182944	8362.762554
402.564952	8628.731310
402.946898	8408.213597
403.328783	8393.780773
403.710606	8490.230649
404.092367	8629.366495
404.474067	8853.322276
404.855705	8597.246784
405.237282	8470.083678
405.618797	8731.472546
406.000250	8830.488369
406.381642	9006.606120
406.762972	8858.839818
407.144240	8606.368752
407.525447	8684.977984
407.906593	8529.808748
408.287677	8594.980785
408.668700	8582.284639
409.049661	8446.009648
409.430560	8423.425278
409.811399	8280.175851
410.192176	8255.048219
410.572891	8163.896596
410.953545	8330.224426
411.334138	7869.815845
411.714669	8074.602638
412.095139	7545.276443
412.475547	7684.626538
412.855894	7465.127138
413.236180	7478.786144
413.616405	7187.982144
413.996568	7175.522932
414.376670	7025.102463
414.756711	6832.701785
415.136691	6811.392828
415.516609	6746.777838
415.896466	6631.388347
416.276262	6601.390962
416.655997	6628.421628
417.035670	6493.525393
417.415283	6583.323466
417.794834	6458.701102
418.174324	6223.493466
418.553753	6044.638369
418.933121	6048.391508
419.312428	5837.671277
419.691674	5679.905847
420.070859	5658.241488
420.449983	5431.248413
420.829045	5430.867806
421.208047	5240.279423
421.586988	5207.519485
421.965867	5133.144822
422.344686	4999.372763
422.723444	4976.712777
423.102141	4618.120380
423.480777	4705.516344
423.859352	4515.101881
424.237866	4565.279005
424.616319	4407.760592
424.994712	4393.128643
425.373044	4254.277622
425.751314	4228.066142
426.129524	4022.286242
426.507673	4039.181669
426.885762	3912.986465
427.263789	3836.509641
427.641756	3760.229421
428.019662	3684.428112
428.397508	3605.680247
428.775292	3544.636915
429.153016	3466.972899
429.530679	3399.905388
429.908282	3330.738237
430.285824	3257.127309
430.663305	3228.274265
431.040726	3151.656288
431.418086	3087.822677
431.795385	3065.250911
432.172624	3033.264790
432.549802	2972.370172
432.926920	2935.952877
433.303977	2892.858573
433.680974	2864.703729
434.057910	2833.423369
434.434786	2805.220634
434.811601	2775.830707
435.188355	2767.379212
435.565050	2737.366703
435.941683	2712.770913
436.318257	2701.945036
436.694770	2674.982424
437.071222	2670.442865
437.447614	2634.950622
437.823946	2623.940742
438.200218	2612.031016
438.576429	2598.999633
438.952580	2588.002356
439.328670	2575.888463
439.704700	2573.385530
440.080670	2560.162584
440.456580	2556.837943
440.832429	2550.909546
441.208218	2536.751465
441.583947	2533.351207
441.959616	2527.904240
442.335224	2525.847449
442.710773	2523.110103
443.086261	2520.811337
443.461689	2512.531242
443.837057	2507.858092
444.212365	2508.790705
444.587612	2506.794408
444.962800	2501.566732
445.337927	2499.562873
445.712995	2491.335710
446.088002	2496.414673
446.462949	2497.876607
446.837837	2497.490959
447.212664	2493.566421
447.587431	2506.963287
447.962139	2515.006448
448.336786	2525.640762
448.711374	2516.801099
449.085901	2502.093533
449.460369	2497.624550
449.834776	2494.892244
450.209124	2502.940446
450.583412	2502.922802
450.957640	2502.738800
451.331808	2494.730927
451.705917	2485.881182
452.079965	2484.575523
452.453954	2485.074597
452.827883	2485.485451
453.201752	2484.084010
453.575562	2484.046202
453.949311	2487.252376
454.323001	2483.408496
454.696632	2486.264309
455.070202	2490.098107
455.443713	2490.728251
455.817164	2488.311018
456.190556	2487.000318
456.563888	2484.167189
456.937160	2487.544763
457.310373	2486.501244
457.683526	2484.691469
458.056619	2486.145842
458.429653	2482.319607
458.802628	2487.406131
459.175542	2485.382108
459.548398	2489.188179
459.921194	2493.871411
460.293930	2494.075577
460.666607	2502.043121
461.039224	2510.794564
461.411782	2506.408760
461.784280	2506.885149
462.156719	2502.547236
462.529099	2502.111177
462.901419	2492.472490
463.273680	2492.394353
463.645882	2493.289157
464.018024	2490.728251
464.390106	2493.478201
464.762130	2504.321722
465.134094	2516.866634
465.505999	2533.820034
465.877845	2550.022303
466.249631	2551.143959
466.621358	2545.392003
466.993026	2539.418236
467.364634	2533.499921
467.736184	2523.669671
468.107674	2519.374608
468.479105	2517.020389
468.850477	2513.912518
469.221790	2510.101405
469.593043	2502.925323
469.964238	2500.273676
470.335373	2500.608913
470.706449	2505.773575
471.077467	2513.821777
471.448425	2527.705115
471.819324	2537.510159
472.190164	2529.988757
472.560945	2516.448218
472.931667	2509.821621
473.302330	2504.067144
473.672934	2503.242916
474.043479	2504.780468
474.413965	2500.833244
474.784393	2498.655466
475.154761	2502.653101
475.525070	2498.617657
475.895321	2499.222595
476.265513	2497.417862
476.635645	2505.503873
477.005719	2500.873573
477.375734	2506.993534
477.745691	2510.101405
478.115588	2512.059894
478.485427	2516.831346
478.855207	2525.144208
479.224928	2538.505787
479.594591	2542.137938
479.964194	2538.969573
480.333739	2536.854809
480.703226	2538.881353
481.072653	2539.292207
481.442022	2540.721374
481.811333	2541.515356
482.180584	2541.235572
482.549777	2539.297248
482.918912	2533.346166
483.287988	2535.231557
483.657005	2530.066895
484.025964	2533.071423
484.394864	2530.545805
484.763706	2530.583613
485.132489	2526.931298
485.501213	2524.960206
485.869879	2525.905423
486.238487	2525.219826
486.607036	2525.590351
486.975527	2523.001718
487.343959	2522.653878
487.712333	2525.093797
488.080648	2524.839219
488.448905	2526.578417
488.817104	2524.030113
489.185244	2528.804086
489.553326	2531.990095
489.921350	2539.428318
490.289315	2551.925338
490.657222	2553.382232
491.025070	2552.505071
491.392861	2549.684545
491.760593	2547.970553
492.128267	2542.301776
492.495883	2535.667617
492.863440	2531.841381
493.230939	2529.913140
493.598380	2525.204702
493.965763	2520.047602
494.333088	2519.561131
494.700354	2517.340502
495.067563	2520.062725
495.434713	2512.969822
495.801805	2522.444671
496.168839	2519.505678
496.535815	2519.984587
496.902733	2517.138856
497.269593	2519.606501
497.636395	2519.631707
498.003139	2520.624814
498.369825	2521.204547
498.736453	2519.233456
499.103023	2522.290915
499.469535	2517.993332
499.835989	2518.946110
500.202385	2521.489372
500.568723	2520.826460
500.935003	2524.304856
501.301226	2525.101359
501.667390	2528.302491
502.033497	2530.238294
502.399546	2528.322656
502.765537	2525.653365
503.131470	2527.775691
503.497345	2533.721732
503.863163	2531.599406
504.228923	2533.716691
504.594625	2538.425128
504.960269	2536.020498
505.325856	2537.167360
505.691385	2538.110056
506.056856	2541.177598
506.422270	2545.878474
506.787625	2542.803370
507.152924	2548.270502
507.518164	2553.520863
507.883347	2549.240924
508.248472	2553.687222
508.613540	2555.567572
508.978550	2556.253169
509.343503	2561.236349
509.708398	2566.486711
510.073236	2570.403688
510.438016	2573.468709
510.802738	2574.892835
511.167403	2575.341498
511.532010	2579.613876
511.896561	2583.735019
512.261053	2590.868252
512.625488	2586.605956
512.989866	2587.175607
513.354186	2591.321956
513.718449	2588.161152
514.082655	2600.736310
514.446803	2599.481063
514.810894	2600.796804
515.174927	2605.560695
515.538904	2604.350818
515.902822	2611.206787
516.266684	2608.013216
516.630488	2611.363063
516.994235	2613.797940
517.357925	2615.388424
517.721558	2619.514608
518.085133	2619.161728
518.448651	2621.533591
518.812112	2621.352109
519.175516	2623.716410
519.538863	2621.596605
519.902152	2624.812861
520.265385	2625.286730
520.628560	2627.993829
520.991678	2627.169601
521.354739	2626.930146
521.717743	2627.976185
522.080690	2631.532719
522.443580	2627.996350
522.806413	2631.888121
523.169189	2630.736217
523.531908	2630.358130
523.894569	2630.443830
524.257174	2631.661269
524.619722	2632.389715
524.982213	2632.253604
525.344647	2628.734879
525.707025	2625.069960
526.069345	2625.216153
526.431608	2626.920063
526.793815	2626.408386
527.155964	2623.182048
527.518057	2622.360340
527.880093	2620.051491
528.242072	2619.315483
528.603995	2617.372118
528.965860	2613.881119
529.327669	2612.719133
529.689421	2609.510439
530.051117	2610.004472
530.412755	2607.297372
530.774337	2603.836620
531.135862	2599.223964
531.497331	2597.910744
531.858743	2591.513519
532.220098	2590.061667
532.581396	2587.210895
532.942638	2580.556572
533.303824	2585.852304
533.664953	2583.888774
534.026025	2578.388875
534.387040	2575.676735
534.747999	2573.345201
535.108902	2572.019377
535.469748	2566.484191
535.830537	2563.865311
536.191270	2560.689384
536.551947	2556.774928
536.912567	2554.680329
537.273131	2551.406099
537.633638	2546.652291
537.994089	2546.654812
538.354483	2538.994779
538.714821	2541.333874
539.075103	2537.003523
539.435328	2534.303985
539.795497	2533.731814
540.155609	2529.356093
540.515665	2526.961544
540.875665	2523.720083
541.235609	2524.519105
541.595496	2520.314783
541.955328	2520.304701
542.315102	2514.267919
542.674821	2513.118536
543.034483	2510.839934
543.394090	2506.091168
543.753640	2507.628719
544.113134	2502.779129
544.472571	2502.509428
544.831953	2502.917761
545.191278	2500.167812
545.550548	2496.656648
545.909761	2496.913747
546.268918	2493.122799
546.628019	2496.480208
546.987064	2493.306801
547.346053	2492.263283
547.704986	2491.136585
548.063863	2489.442757
548.422684	2487.549804
548.781449	2486.705410
549.140158	2483.526963
549.498811	2482.997642
549.857408	2481.717189
550.215949	2481.591160
550.574434	2477.386838
550.932864	2481.288691
551.291237	2474.868781
551.649555	2480.807260
552.007817	2477.107053
552.366022	2480.189719
552.724173	2476.988586
553.082267	2477.182671
553.440305	2478.437918
553.798288	2479.425984
554.156215	2478.697537
554.514086	2478.997486
554.871902	2476.948257
555.229661	2475.405664
555.587365	2475.992958
555.945014	2477.845582
556.302606	2475.221662
556.660143	2474.198308
557.017625	2476.429018
557.375050	2473.986579
557.732421	2472.965746
558.089735	2474.339460
558.446994	2472.141517
558.804197	2474.198308
559.161345	2472.723770
559.518437	2472.194449
559.875474	2470.697226
560.232455	2472.310396
560.589381	2473.666466
560.946251	2474.117649
561.303065	2474.019347
561.659825	2475.733339
562.016528	2471.413070
562.373177	2471.077833
562.729770	2472.925416
563.086307	2472.312916
563.442789	2469.767133
563.799216	2473.230406
564.155587	2468.771506
564.511904	2469.822586
564.868164	2468.970631
565.224370	2469.368882
565.580520	2470.051959
565.936615	2468.584983
566.292654	2468.179170
566.648638	2469.986424
567.004567	2469.285703
567.360441	2471.544140
567.716260	2468.307719
568.072023	2467.322174
568.427732	2466.560960
568.783385	2466.634056
569.138982	2465.290589
569.494525	2466.732359
569.850013	2461.542491
570.205445	2469.542802
570.560823	2467.060034
570.916145	2470.757720
571.271412	2467.438120
571.626625	2464.884776
571.981782	2467.465847
572.336884	2466.964252
572.691931	2468.209417
573.046923	2466.694550
573.401860	2467.173460
573.756743	2466.432410
574.111570	2465.930815
574.466342	2465.043572
574.821059	2463.692543
575.175722	2464.083233
575.530330	2462.835547
575.884882	2463.049796
576.239380	2464.773871
576.593823	2465.028449
576.948211	2462.170115
577.302544	2464.337811
577.656823	2462.104580
578.011047	2465.146916
578.365216	2460.209106
578.719330	2463.097687
579.073389	2462.696915
579.427394	2465.590538
579.781344	2459.861266
580.135239	2459.896554
580.489080	2459.692387
580.842866	2462.331432
581.196597	2463.362347
581.550273	2459.389918
581.903895	2461.517285
582.257463	2461.895372
582.610975	2459.697429
582.964434	2458.946297
583.317837	2458.691718
583.671186	2459.122737
584.024481	2459.407562
584.377721	2462.054168
584.730906	2457.449074
585.084037	2460.030145
585.437113	2458.560648
585.790135	2457.620473
586.143103	2456.135853
586.496016	2456.685339
586.848874	2452.964968
587.201679	2457.272634
587.554428	2450.706531
587.907124	2455.835905
588.259765	2451.669391
588.612352	2457.794393
588.964884	2455.185596
589.317362	2456.750874
589.669786	2455.891357
590.022155	2456.035030
590.374470	2457.043261
590.726731	2454.668878
591.078937	2455.573765
591.431090	2452.309618
591.783188	2457.917901
592.135232	2453.746347
592.487222	2453.741305
592.839157	2454.126954
593.191038	2453.343054
593.542866	2452.728033
593.894639	2451.364401
594.246358	2454.411779
594.598022	2452.392797
594.949633	2455.866152
595.301190	2451.976902
595.652692	2454.918415
596.004141	2453.466562
596.355535	2451.336675
596.706876	2451.296346
597.058162	2450.817436
597.409395	2449.705862
597.760573	2451.319031
598.111698	2450.877930
598.462768	2451.308949
598.813785	2448.712754
599.164748	2450.051181
599.515657	2449.594956
599.866511	2448.788372
600.217312	2447.056735
600.568060	2450.570420
600.918753	2452.980091
601.269392	2450.656119
601.619978	2451.709720
601.970510	2448.160748
602.320988	2449.095882
602.671412	2449.305090
603.021783	2449.365584
603.372100	2451.588733
603.722363	2447.888526
604.072572	2451.054370
604.422728	2452.513784
604.772830	2446.242589
605.122878	2445.244441
605.472872	2446.207301
605.822813	2441.612289
606.172701	2449.345419
606.522534	2446.396344
606.872314	2449.385748
607.222041	2448.145625
607.571714	2447.570933
607.921333	2449.269802
608.270899	2449.282405
608.620411	2448.879113
608.969870	2448.770728
609.319276	2449.839452
609.668627	2449.935234
610.017926	2449.937755
610.367171	2450.192333
610.716362	2447.974225
611.065500	2447.654112
611.414585	2444.672270
611.763616	2450.630913
612.112594	2448.017075
612.461518	2450.240224
612.810389	2447.603701
613.159207	2449.037909
613.507971	2447.538166
613.856682	2449.524380
614.205340	2448.102775
614.553945	2449.930193
614.902496	2447.268464
615.250994	2449.471448
615.599439	2447.444904
615.947830	2449.423557
616.296169	2449.453804
616.644454	2450.686366
616.992686	2451.747529
617.340864	2453.007817
617.688990	2448.586726
618.037063	2449.330296
618.385082	2448.886674
618.733048	2451.603856
619.080961	2446.638320
619.428821	2451.694597
619.776628	2449.542024
620.124382	2448.254009
620.472083	2448.687549
620.819731	2450.063784
621.167326	2447.303752
621.514868	2449.471448
621.862357	2445.219235
622.209793	2448.894236
622.557176	2445.869544
622.904506	2444.518514
623.251783	2441.299738
623.599007	2442.925510
623.946179	2441.700509
624.293297	2441.037598
624.640363	2445.075562
624.987376	2446.265274
625.334336	2445.990531
625.681243	2445.199070
626.028097	2442.597835
626.374899	2443.817794
626.721647	2441.450972
627.068343	2443.190170
627.414987	2441.713112
627.761577	2444.926848
628.108115	2441.816456
628.454600	2441.513987
628.801032	2444.337033
629.147412	2444.957095
629.493739	2443.134718
629.840014	2443.595983
630.186236	2441.645057
630.532405	2443.583380
630.878521	2439.613472
631.224585	2441.934923
631.570597	2440.281425
631.916556	2440.326795
632.262462	2440.137752
632.608316	2441.362752
632.954117	2439.709254
633.299866	2441.216559
633.645562	2441.009871
633.991206	2438.572473
634.336797	2437.733121
634.682336	2442.804522
635.027823	2438.166661
635.373257	2440.278904
635.718639	2437.113059
636.063968	2436.301434
636.409245	2439.459717
636.754470	2436.898810
637.099642	2438.650611
637.444762	2437.730601
637.789829	2438.441403
638.134845	2441.491302
638.479808	2435.089036
638.824719	2435.812442
639.169577	2437.644901
639.514383	2436.135076
639.859137	2433.004519
640.203839	2436.291351
640.548489	2434.758841
640.893086	2430.995619
641.237632	2430.279775
641.582125	2431.850095
641.926566	2429.730290
642.270955	2433.435538
642.615292	2434.516865
642.959576	2434.842020
643.303809	2436.193049
643.647990	2435.134407
643.992118	2437.203800
644.336195	2433.780857
