Dividing Wavelength (nm)	Counts (n)	Blue Motor Position (mm): 0.000000	Red Motor Position (mm): 4.400000	
326.493990	1973.694910
326.888308	1973.694910
327.282561	1973.694910
327.676750	1951.017279
328.070874	1951.768411
328.464933	1957.961469
328.858929	1967.423714
329.252859	1980.807978
329.646726	1994.537560
330.040528	2010.704541
330.434265	2029.916378
330.827938	2048.208205
331.221547	2069.330639
331.615091	2090.125399
332.008571	2107.925713
332.401986	2129.895062
332.795338	2149.905922
333.188625	2170.977945
333.581847	2188.884123
333.975006	2207.392720
334.368100	2223.753785
334.761129	2239.976218
335.154095	2255.571027
335.546996	2272.874788
335.939833	2282.306787
336.332606	2296.812707
336.725315	2306.940385
337.117960	2317.531849
337.510540	2323.883703
337.903056	2331.798314
338.295508	2338.351814
338.687896	2347.788854
339.080220	2352.845132
339.472480	2362.045238
339.864676	2363.275279
340.256807	2364.394415
340.648875	2366.267204
341.040879	2369.281814
341.432818	2370.015302
341.824694	2369.516227
342.216506	2371.663759
342.608253	2371.068903
342.999937	2366.514220
343.391557	2367.769468
343.783113	2364.896010
344.174605	2364.462471
344.566033	2362.814013
344.957397	2363.791997
345.348697	2360.966431
345.739934	2354.160873
346.131106	2353.860924
346.522215	2355.796727
346.913260	2352.676253
347.304241	2353.503002
347.695159	2349.954030
348.086012	2347.670387
348.476802	2348.965964
348.867528	2345.069152
349.258191	2344.638133
349.648789	2345.132166
350.039324	2340.975735
350.429796	2339.581856
350.820203	2341.245437
351.210548	2341.313492
351.600828	2339.062617
351.991045	2340.171671
352.381198	2336.874756
352.771288	2339.226455
353.161314	2338.601352
353.551276	2338.777792
353.941175	2340.322906
354.331010	2340.423729
354.720782	2336.937771
355.110490	2336.002637
355.500135	2338.069510
355.889717	2339.407936
356.279235	2340.043122
356.668689	2343.944975
357.058080	2342.503205
357.447408	2339.649912
357.836672	2337.777123
358.225873	2341.220231
358.615010	2336.030363
359.004084	2340.582525
359.393095	2344.953205
359.782043	2346.062259
360.170927	2343.007320
360.559748	2344.882629
360.948505	2345.308607
361.337199	2347.128463
361.725830	2348.146776
362.114398	2349.275995
362.502903	2349.447394
362.891344	2349.039061
363.279722	2347.796416
363.668037	2350.790862
364.056289	2348.386231
364.444478	2352.262878
364.832603	2350.117868
365.220665	2349.366736
365.608665	2350.352281
365.996601	2352.474607
366.384474	2352.048629
366.772284	2352.804803
367.160031	2353.271109
367.547715	2352.275481
367.935336	2351.363033
368.322893	2353.906295
368.710388	2353.881089
369.097820	2355.418641
369.485189	2357.251100
369.872495	2356.857890
370.259738	2356.187417
370.646918	2360.757223
371.034035	2359.144053
371.421090	2363.232429
371.808081	2367.313243
372.195010	2366.541947
372.581875	2373.110570
372.968678	2377.418236
373.355418	2379.986704
373.742096	2394.117058
374.128710	2400.168963
374.515262	2412.678587
374.901751	2424.215267
375.288177	2437.087854
375.674540	2453.953034
376.060841	2473.285859
376.447079	2484.704072
376.833254	2509.435973
377.219367	2524.824095
377.605417	2551.708569
377.991404	2572.019377
378.377329	2598.561053
378.763191	2620.898405
379.148991	2651.588950
379.534727	2682.057684
379.920402	2705.993082
380.306013	2733.996692
380.691563	2762.716145
381.077049	2789.691359
381.462474	2813.777992
381.847835	2846.200173
382.233134	2876.497508
382.618371	2898.013153
383.003545	2932.721497
383.388657	2960.520940
383.773706	2989.724344
384.158693	3011.250071
384.543618	3036.821324
384.928480	3056.605332
385.313280	3084.273705
385.698017	3106.054010
386.082692	3143.338384
386.467305	3143.293014
386.851856	3170.220337
387.236344	3205.926830
387.620770	3199.771581
388.005133	3215.076524
388.389435	3239.233733
388.773674	3240.811614
389.157851	3256.056063
389.541965	3262.775922
389.926018	3236.340111
390.310008	3257.369284
390.693936	3259.123606
391.077802	3255.947679
391.461606	3252.784355
391.845348	3246.934096
392.229027	3237.824731
392.612645	3253.170003
392.996200	3239.750451
393.379694	3235.699884
393.763125	3241.872777
394.146494	3217.458469
394.529801	3200.936087
394.913047	3202.985316
395.296230	3158.073677
395.679351	3122.442801
396.062410	3114.704630
396.445408	3059.264541
396.828343	3038.943650
397.211217	3007.809483
397.594028	2955.759570
397.976778	2936.935902
398.359466	2914.291038
398.742092	2870.929554
399.124656	2848.425843
399.507158	2831.936229
399.889598	2794.364509
400.271977	2775.598814
400.654294	2743.426170
401.036549	2724.408417
401.418742	2694.184179
401.800874	2679.602642
402.182944	2655.226142
402.564952	2642.003196
402.946898	2608.978597
403.328783	2586.258117
403.710606	2570.534758
404.092367	2556.200237
404.474067	2544.290511
404.855705	2521.189423
405.237282	2503.056393
405.618797	2496.245794
406.000250	2488.943683
406.381642	2478.412712
406.762972	2466.742441
407.144240	2456.103086
407.525447	2447.230655
407.906593	2437.400405
408.287677	2433.460743
408.668700	2427.081163
409.049661	2424.968920
409.430560	2419.406007
409.811399	2415.514236
410.192176	2410.475602
410.572891	2411.236817
410.953545	2407.801270
411.334138	2409.164902
411.714669	2403.969993
412.095139	2402.417318
412.475547	2402.737431
412.855894	2398.354148
413.236180	2398.901113
413.616405	2396.458674
413.996568	2398.331463
414.376670	2397.948335
414.756711	2391.228477
415.136691	2391.737634
415.516609	2391.863663
415.896466	2392.418189
416.276262	2394.485063
416.655997	2390.467263
417.035670	2386.371325
417.415283	2390.575648
417.794834	2385.443753
418.174324	2392.912222
418.553753	2388.720503
418.933121	2391.909033
419.312428	2390.172355
419.691674	2390.550442
420.070859	2390.114382
420.449983	2390.822664
420.829045	2387.792931
421.208047	2388.004659
421.586988	2388.057591
421.965867	2389.726213
422.344686	2392.030021
422.723444	2388.589433
423.102141	2389.912736
423.480777	2388.473487
423.859352	2389.895092
424.237866	2389.154042
424.616319	2393.015566
424.994712	2396.191493
425.373044	2390.285781
425.751314	2389.726213
426.129524	2387.805534
426.507673	2391.031872
426.885762	2391.382232
427.263789	2393.149157
427.641756	2390.522716
428.019662	2390.132026
428.397508	2388.387787
428.775292	2391.614125
429.153016	2390.651265
429.530679	2396.239384
429.908282	2389.821995
430.285824	2392.619836
430.663305	2392.181255
431.040726	2390.250493
431.418086	2389.431306
431.795385	2392.231667
432.172624	2393.222253
432.549802	2392.100597
432.926920	2393.973385
433.303977	2392.728220
433.680974	2391.283930
434.057910	2395.140413
434.434786	2391.793086
434.811601	2393.716287
435.188355	2395.140413
435.565050	2395.722666
435.941683	2398.011350
436.318257	2396.004970
436.694770	2388.667571
437.071222	2392.352654
437.447614	2388.549104
437.823946	2390.880637
438.200218	2393.612943
438.576429	2392.458519
438.952580	2393.877603
439.328670	2395.949518
439.704700	2394.570762
440.080670	2392.637480
440.456580	2394.480021
440.832429	2392.942469
441.208218	2395.286606
441.583947	2394.921122
441.959616	2392.697973
442.335224	2395.281565
442.710773	2398.255846
443.086261	2397.736607
443.461689	2394.205278
443.837057	2397.802142
444.212365	2393.716287
444.587612	2396.178890
444.962800	2397.161915
445.337927	2397.136709
445.712995	2397.643345
446.088002	2399.337173
446.462949	2399.170815
446.837837	2397.035886
447.212664	2396.834240
447.587431	2399.435476
447.962139	2403.496125
448.336786	2405.492422
448.711374	2401.819941
449.085901	2400.491597
449.460369	2398.175187
449.834776	2401.890518
450.209124	2402.878584
450.583412	2402.850857
450.957640	2400.448748
451.331808	2400.942781
451.705917	2399.329611
452.079965	2400.446227
452.453954	2399.516134
452.827883	2403.695251
453.201752	2402.513100
453.575562	2399.778274
453.949311	2402.601320
454.323001	2401.094015
454.696632	2400.554612
455.070202	2402.873543
455.443713	2402.581156
455.817164	2400.216854
456.190556	2398.346586
456.563888	2400.499159
456.937160	2398.283572
457.310373	2401.404046
457.683526	2401.628377
458.056619	2400.904972
458.429653	2401.134344
458.802628	2401.673748
459.175542	2406.475447
459.548398	2405.971332
459.921194	2406.896383
460.293930	2407.733215
460.666607	2404.968142
461.039224	2407.438307
461.411782	2408.678431
461.784280	2407.665159
462.156719	2408.930489
462.529099	2405.373955
462.901419	2406.253636
463.273680	2403.768347
463.645882	2404.862278
464.018024	2404.932854
464.390106	2406.253636
464.762130	2408.996024
465.134094	2408.837227
465.505999	2413.147414
465.877845	2414.571540
466.249631	2417.833167
466.621358	2416.121695
466.993026	2416.290573
467.364634	2416.366191
467.736184	2413.676735
468.107674	2411.244378
468.479105	2411.589698
468.850477	2408.118863
469.221790	2408.746487
469.593043	2407.763462
469.964238	2408.607855
470.335373	2405.936043
470.706449	2410.001734
471.077467	2409.938720
471.448425	2413.906108
471.819324	2413.117167
472.190164	2413.840573
472.560945	2412.963412
472.931667	2409.122053
473.302330	2408.277659
473.672934	2408.877557
474.043479	2408.350756
474.413965	2408.287742
474.784393	2404.620302
475.154761	2406.419994
475.525070	2403.435631
475.895321	2406.979562
476.265513	2405.376475
476.635645	2411.120870
477.005719	2405.908317
477.375734	2410.339491
477.745691	2408.325550
478.115588	2408.789337
478.485427	2410.989800
478.855207	2413.966602
479.224928	2417.218146
479.594591	2413.976684
479.964194	2412.706313
480.333739	2414.415264
480.703226	2412.721437
481.072653	2415.688156
481.442022	2413.596077
481.811333	2413.812846
482.180584	2413.427198
482.549777	2414.127918
482.918912	2411.907290
483.287988	2415.438618
483.657005	2412.189595
484.025964	2415.589853
484.394864	2411.123391
484.763706	2413.399472
485.132489	2411.695562
485.501213	2411.897208
485.869879	2410.147928
486.238487	2413.817888
486.607036	2411.884605
486.975527	2411.234296
487.343959	2410.715057
487.712333	2411.912331
488.080648	2411.193967
488.448905	2412.111457
488.817104	2412.262692
489.185244	2409.235479
489.553326	2414.458114
489.921350	2416.257806
490.289315	2414.458114
490.657222	2418.037333
491.025070	2416.356108
491.392861	2416.996335
491.760593	2415.178999
492.128267	2414.483320
492.495883	2414.455593
492.863440	2410.710016
493.230939	2412.381159
493.598380	2410.218504
493.965763	2406.435118
494.333088	2408.582649
494.700354	2408.166754
495.067563	2412.068607
495.434713	2406.377144
495.801805	2411.917373
496.168839	2412.544996
496.535815	2413.724626
496.902733	2411.872002
497.269593	2411.125911
497.636395	2412.209759
498.003139	2412.355953
498.369825	2412.413926
498.736453	2411.743453
499.103023	2413.424677
499.469535	2416.424164
499.835989	2414.500964
500.202385	2415.970460
500.568723	2414.758063
500.935003	2415.965419
501.301226	2414.773186
501.667390	2417.724782
502.033497	2420.147056
502.399546	2421.278795
502.765537	2419.012797
503.131470	2419.297622
503.497345	2420.472211
503.863163	2420.918353
504.228923	2423.365833
504.594625	2424.399269
504.960269	2422.607139
505.325856	2424.575710
505.691385	2425.210895
506.056856	2426.715680
506.422270	2429.132913
506.787625	2429.057296
507.152924	2426.766091
507.518164	2428.588468
507.883347	2429.518561
508.248472	2432.200455
508.613540	2432.626432
508.978550	2435.489808
509.343503	2434.128696
509.708398	2433.856474
510.073236	2434.753799
510.438016	2435.086516
510.802738	2435.273038
511.167403	2437.007195
511.532010	2435.729263
511.896561	2433.606937
512.261053	2436.677000
512.625488	2434.529468
512.989866	2431.303130
513.354186	2434.836978
513.718449	2429.347162
514.082655	2437.019798
514.446803	2433.254056
514.810894	2431.303130
515.174927	2432.326484
515.538904	2433.117945
515.902822	2431.673654
516.266684	2430.209199
516.630488	2429.755495
516.994235	2427.998653
517.357925	2426.138467
517.721558	2426.377922
518.085133	2425.309198
518.448651	2425.858683
518.812112	2424.800041
519.175516	2423.151584
519.538863	2422.811306
519.902152	2421.561100
520.265385	2421.203178
520.628560	2419.164031
520.991678	2417.787796
521.354739	2416.472055
521.717743	2417.082035
522.080690	2414.647157
522.443580	2416.169586
522.806413	2414.626993
523.169189	2415.695717
523.531908	2416.255285
523.894569	2412.784451
524.257174	2411.652712
524.619722	2412.277815
524.982213	2415.549524
525.344647	2411.887126
525.707025	2412.383679
526.069345	2409.119532
526.431608	2410.924265
526.793815	2407.584501
527.155964	2411.511560
527.518057	2410.500808
527.880093	2407.980231
528.242072	2409.346384
528.603995	2408.907804
528.965860	2407.062741
529.327669	2408.151631
529.689421	2408.481826
530.051117	2409.207752
530.412755	2408.587690
530.774337	2407.251785
531.135862	2407.287073
531.497331	2403.380178
531.858743	2406.074675
532.220098	2405.079047
532.581396	2400.647873
532.942638	2406.039387
533.303824	2407.047618
533.664953	2407.735735
534.026025	2408.983421
534.387040	2407.342525
534.747999	2409.192629
535.108902	2407.360169
535.469748	2406.495612
535.830537	2408.323030
536.191270	2407.511404
536.551947	2406.616599
536.912567	2407.392937
537.273131	2408.436456
537.633638	2407.198853
537.994089	2403.901938
538.354483	2403.372617
538.714821	2408.310427
539.075103	2409.192629
539.435328	2409.631209
539.795497	2403.680127
540.155609	2407.115673
540.515665	2407.700447
540.875665	2404.953018
541.235609	2409.749676
541.595496	2404.464027
541.955328	2403.783471
542.315102	2405.283214
542.674821	2404.736249
543.034483	2406.878739
543.394090	2405.189953
543.753640	2405.994017
544.113134	2408.723802
544.472571	2405.250447
544.831953	2408.343194
545.191278	2408.297824
545.550548	2403.150806
545.909761	2407.324881
546.268918	2405.671383
546.628019	2404.839592
546.987064	2403.120559
547.346053	2406.568708
547.704986	2404.385889
548.063863	2405.547875
548.422684	2405.436969
548.781449	2406.306568
549.140158	2402.757596
549.498811	2407.428225
549.857408	2403.652401
550.215949	2402.185425
550.574434	2397.653428
550.932864	2405.537792
551.291237	2400.131155
551.649555	2404.753893
552.007817	2405.447052
552.366022	2405.754562
552.724173	2404.771537
553.082267	2405.757083
553.440305	2405.938564
553.798288	2404.685837
554.156215	2404.484191
554.514086	2409.590880
554.871902	2407.755900
555.229661	2403.460837
555.587365	2403.818759
555.945014	2404.496794
556.302606	2402.702143
556.660143	2404.529562
557.017625	2406.972001
557.375050	2406.016702
557.732421	2406.089799
558.089735	2408.257495
558.446994	2406.737587
558.804197	2408.985942
559.161345	2405.131979
559.518437	2404.204407
559.875474	2403.964952
560.232455	2402.959242
560.589381	2404.370765
560.946251	2408.665828
561.303065	2406.911507
561.659825	2406.515776
562.016528	2406.321692
562.373177	2405.041239
562.729770	2404.741290
563.086307	2408.159192
563.442789	2403.894376
563.799216	2407.723133
564.155587	2404.804304
564.511904	2405.472257
564.868164	2407.639953
565.224370	2405.469737
565.580520	2407.370252
565.936615	2407.140879
566.292654	2405.608368
566.648638	2403.307082
567.004567	2403.707853
567.360441	2405.414284
567.716260	2403.269273
568.072023	2402.865981
568.427732	2402.044273
568.783385	2405.686506
569.138982	2401.504869
569.494525	2401.094015
569.850013	2401.005795
570.205445	2404.917730
570.560823	2404.605179
570.916145	2406.286404
571.271412	2403.176012
571.626625	2403.972514
571.981782	2403.720456
572.336884	2405.194994
572.691931	2404.330436
573.046923	2406.606517
573.401860	2404.829510
573.756743	2405.189953
574.111570	2407.153482
574.466342	2405.003430
574.821059	2404.297668
575.175722	2405.278173
575.530330	2404.960580
575.884882	2403.707853
576.239380	2405.207597
576.593823	2405.489901
576.948211	2404.045611
577.302544	2405.731877
577.656823	2406.170457
578.011047	2405.517628
578.365216	2402.087123
578.719330	2402.687020
579.073389	2403.307082
579.427394	2405.560478
579.781344	2402.729870
580.135239	2403.775909
580.489080	2404.479150
580.842866	2402.369427
581.196597	2404.970662
581.550273	2401.961094
581.903895	2403.685168
582.257463	2404.789181
582.610975	2403.647360
582.964434	2405.053842
583.317837	2403.337329
583.671186	2406.092319
584.024481	2405.149623
584.377721	2404.020405
584.730906	2401.978738
585.084037	2405.336146
585.437113	2404.070817
585.790135	2402.407236
586.143103	2403.460837
586.496016	2404.433780
586.848874	2400.867163
587.201679	2402.624005
587.554428	2402.218192
587.907124	2400.577297
588.259765	2395.538664
588.612352	2403.634757
588.964884	2404.590055
589.317362	2402.873542
589.669786	2403.324726
590.022155	2405.971332
590.374470	2403.095353
590.726731	2403.952349
591.078937	2402.805487
591.431090	2404.514438
591.783188	2401.857750
592.135232	2403.105436
592.487222	2403.012174
592.839157	2404.711043
593.191038	2400.814231
593.542866	2405.124418
593.894639	2400.511762
594.246358	2404.620302
594.598022	2402.293810
594.949633	2404.267422
595.301190	2402.440003
595.652692	2401.194838
596.004141	2404.083419
596.355535	2401.782133
596.706876	2400.657955
597.058162	2402.679458
597.409395	2402.051834
597.760573	2401.908162
598.111698	2400.224416
598.462768	2404.058214
598.813785	2403.521331
599.164748	2402.157699
599.515657	2403.170971
599.866511	2404.658111
600.217312	2403.430590
600.568060	2401.721639
600.918753	2403.155847
601.269392	2400.335322
601.619978	2400.506721
601.970510	2402.049314
602.320988	2403.896897
602.671412	2405.230282
603.021783	2402.737431
603.372100	2403.622154
603.722363	2402.127452
604.072572	2401.426731
604.422728	2403.720456
604.772830	2402.923954
605.122878	2401.265414
605.472872	2400.547050
605.822813	2400.027811
606.172701	2403.627195
606.522534	2402.336660
606.872314	2400.670558
607.222041	2403.309602
607.571714	2402.707184
607.921333	2401.063768
608.270899	2405.162226
608.620411	2400.879766
608.969870	2401.565363
609.319276	2402.069478
609.668627	2405.000909
610.017926	2401.008316
610.367171	2403.445713
610.716362	2399.672410
611.065500	2400.287431
611.414585	2400.630229
611.763616	2402.124931
612.112594	2402.313974
612.461518	2400.536968
612.810389	2403.239026
613.159207	2399.783315
613.507971	2402.863460
613.856682	2404.073337
614.205340	2401.792215
614.553945	2403.387740
614.902496	2402.361865
615.250994	2403.362534
615.599439	2402.402195
615.947830	2402.500497
616.296169	2401.315826
616.644454	2403.090312
616.992686	2401.562842
617.340864	2405.983934
617.688990	2403.735580
618.037063	2403.743142
618.385082	2402.820610
618.733048	2401.252812
619.080961	2401.910682
619.428821	2403.352452
619.776628	2403.390261
620.124382	2405.106774
620.472083	2403.576783
620.819731	2404.398492
621.167326	2401.366237
621.514868	2402.974366
621.862357	2402.475291
622.209793	2404.680796
622.557176	2400.090826
622.904506	2400.247101
623.251783	2398.044117
623.599007	2399.465723
623.946179	2399.221227
624.293297	2398.835578
624.640363	2400.481515
624.987376	2402.044273
625.334336	2403.541495
625.681243	2401.119221
626.028097	2399.576628
626.374899	2401.255332
626.721647	2402.520662
627.068343	2398.926319
627.414987	2402.135013
627.761577	2402.301372
628.108115	2401.638460
628.454600	2404.045611
628.801032	2402.845816
629.147412	2401.628377
629.493739	2399.813562
629.840014	2401.502349
630.186236	2399.211144
630.532405	2401.701474
630.878521	2399.374982
631.224585	2400.864643
631.570597	2399.627039
631.916556	2404.222051
632.262462	2401.693912
632.608316	2400.284910
632.954117	2400.317678
633.299866	2401.754406
633.645562	2399.319529
633.991206	2401.351114
634.336797	2401.010836
634.682336	2398.475136
635.027823	2401.492266
635.373257	2401.265414
635.718639	2400.773902
636.063968	2402.462688
636.409245	2399.347255
636.754470	2403.501166
637.099642	2399.183418
637.444762	2402.303892
637.789829	2397.514796
638.134845	2401.598131
638.479808	2399.826165
638.824719	2400.133675
639.169577	2399.022101
639.514383	2399.990002
639.859137	2399.057389
640.203839	2401.174674
640.548489	2399.803480
640.893086	2395.883983
641.237632	2397.383726
641.582125	2397.260218
641.926566	2397.908006
642.270955	2401.618295
642.615292	2399.493449
642.959576	2400.574776
643.303809	2396.211658
643.647990	2399.072513
643.992118	2398.845661
644.336195	2399.674930
