Dividing Wavelength (nm)	Counts (n)	Blue Motor Position (mm): 0.000000	Red Motor Position (mm): 29.600000	
326.493990	1987.807620
326.888308	1987.807620
327.282561	1987.807620
327.676750	1962.564042
328.070874	1967.890021
328.464933	1973.415126
328.858929	1979.736733
329.252859	1993.814155
329.646726	2008.446104
330.040528	2025.359175
330.434265	2042.700744
330.827938	2060.856460
331.221547	2083.904615
331.615091	2101.488160
332.008571	2123.565893
332.401986	2145.857875
332.795338	2162.430669
333.188625	2180.881292
333.581847	2203.689992
333.975006	2221.797817
334.368100	2238.988152
334.761129	2254.797210
335.154095	2273.388985
335.546996	2290.528908
335.939833	2322.804896
336.332606	2331.551298
336.725315	2344.204594
337.117960	2352.840091
337.510540	2361.430217
337.903056	2371.295755
338.295508	2377.680376
338.687896	2385.811757
339.080220	2389.333003
339.472480	2397.242574
339.864676	2401.416649
340.256807	2404.965621
340.648875	2406.427556
341.040879	2409.895870
341.432818	2409.051477
341.824694	2406.624161
342.216506	2409.147258
342.608253	2409.613565
342.999937	2407.687844
343.391557	2409.792526
343.783113	2405.936043
344.174605	2406.026784
344.566033	2402.273645
344.957397	2400.342883
345.348697	2400.554612
345.739934	2399.997564
346.131106	2397.043448
346.522215	2395.994888
346.913260	2394.908519
347.304241	2392.685371
347.695159	2391.155380
348.086012	2388.924670
348.476802	2387.140101
348.867528	2386.693959
349.258191	2384.904350
349.648789	2384.717827
350.039324	2385.093393
350.429796	2386.451984
350.820203	2381.060470
351.210548	2384.196067
351.600828	2379.036447
351.991045	2381.229348
352.381198	2380.395038
352.771288	2382.915614
353.161314	2377.768596
353.551276	2382.134236
353.941175	2378.328164
354.331010	2380.858824
354.720782	2378.292876
355.110490	2384.095244
355.500135	2380.571478
355.889717	2386.141953
356.279235	2384.722868
356.668689	2386.688918
357.058080	2384.985008
357.447408	2383.442415
357.836672	2383.192878
358.225873	2387.619011
358.615010	2380.148021
359.004084	2388.594474
359.393095	2387.498023
359.782043	2389.945503
360.170927	2387.656820
360.559748	2391.122613
360.948505	2390.358878
361.337199	2396.234343
361.725830	2395.130330
362.114398	2395.924312
362.502903	2392.839126
362.891344	2396.730897
363.279722	2396.055382
363.668037	2398.424724
364.056289	2399.745507
364.444478	2398.883469
364.832603	2398.578479
365.220665	2400.524365
365.608665	2400.584859
365.996601	2404.111146
366.384474	2406.447721
366.772284	2405.757083
367.160031	2404.522000
367.547715	2405.520148
367.935336	2405.840262
368.322893	2408.922927
368.710388	2407.720612
369.097820	2410.160530
369.485189	2410.674728
369.872495	2414.810995
370.259738	2412.716395
370.646918	2418.755698
371.034035	2417.321489
371.421090	2422.977664
371.808081	2427.602923
372.195010	2430.904878
372.581875	2434.065682
372.968678	2443.759821
373.355418	2450.099072
373.742096	2459.294136
374.128710	2472.315437
374.515262	2484.252889
374.901751	2495.633294
375.288177	2517.164062
375.674540	2533.767102
376.060841	2557.372305
376.447079	2579.868454
376.833254	2606.654625
377.219367	2633.612195
377.605417	2669.522855
377.991404	2693.062522
378.377329	2732.943091
378.763191	2770.653442
379.148991	2817.626913
379.534727	2868.955942
379.920402	2914.696851
380.306013	2963.664099
380.691563	3029.312525
381.077049	3083.504929
381.462474	3142.211686
381.847835	3214.766493
382.233134	3288.367339
382.618371	3348.674663
383.003545	3436.620112
383.388657	3518.294366
383.773706	3609.282152
384.158693	3685.955581
384.543618	3783.305303
384.928480	3859.666181
385.313280	3964.537304
385.698017	4071.394642
386.082692	4192.457952
386.467305	4258.003034
386.851856	4388.611769
387.236344	4545.043814
387.620770	4608.206951
388.005133	4732.950303
388.389435	4882.707860
388.773674	4961.206187
389.157851	5100.248772
389.541965	5237.244648
389.926018	5259.546713
390.310008	5439.546152
390.693936	5571.044650
391.077802	5683.308626
391.461606	5820.780891
391.845348	5933.140649
392.229027	6057.601696
392.612645	6282.527898
392.996200	6402.141876
393.379694	6579.688794
393.763125	6807.798485
394.146494	6901.649646
394.529801	7037.803650
394.913047	7288.112062
395.296230	7281.172914
395.679351	7344.691452
396.062410	7612.137267
396.445408	7495.185018
396.828343	7656.340624
397.211217	7793.570914
397.594028	7678.267123
397.976778	7883.752115
398.359466	8051.262096
398.742092	8019.323866
399.124656	8174.639295
399.507158	8362.908747
399.889598	8385.901450
400.271977	8593.549097
400.654294	8626.092266
401.036549	8831.862084
401.418742	8856.866207
401.800874	9160.794852
402.182944	9245.231658
402.564952	9618.627403
402.946898	9435.406666
403.328783	9493.281633
403.710606	9695.338641
404.092367	9951.396489
404.474067	10315.481222
404.855705	10101.811917
405.237282	10057.485051
405.618797	10492.312296
406.000250	10742.252704
406.381642	11106.135792
406.762972	11062.663401
407.144240	10865.337516
407.525447	11110.851791
407.906593	11057.218955
408.287677	11308.371760
408.668700	11467.450411
409.049661	11444.407297
409.430560	11603.833787
409.811399	11579.099366
410.192176	11739.821433
410.572891	11814.816158
410.953545	12302.595684
411.334138	11773.665219
411.714669	12383.125596
412.095139	11684.880418
412.475547	12197.835466
412.855894	12034.572657
413.236180	12365.199253
413.616405	12047.634287
413.996568	12326.813387
414.376670	12304.798668
414.756711	12175.324193
415.136691	12461.772637
415.516609	12645.149649
415.896466	12712.280174
416.276262	13008.536183
416.655997	13446.756125
417.035670	13483.339779
417.415283	14134.455209
417.794834	14235.830293
418.174324	13971.888080
418.553753	13871.221279
418.933121	14370.126631
419.312428	14179.213094
419.691674	14099.308285
420.070859	14552.147573
420.449983	14195.397718
420.829045	14754.985960
421.208047	14497.357793
421.586988	14963.026817
421.965867	15219.868565
422.344686	15211.777513
422.723444	15781.526200
423.102141	14460.562411
423.480777	15661.723179
423.859352	15153.484130
424.237866	16274.399811
424.616319	15972.568287
424.994712	16634.181920
425.373044	16432.709686
425.751314	17113.646063
426.129524	16230.002369
426.507673	17335.066142
426.885762	17021.929830
427.263789	17216.155405
427.641756	17390.138227
428.019662	17451.405891
428.397508	17495.248806
428.775292	17803.830436
429.153016	17760.887367
429.530679	17840.842587
429.908282	17870.247638
430.285824	17581.691991
430.663305	18289.248181
431.040726	17891.344866
431.418086	17712.605716
431.795385	18369.261374
432.172624	18799.052507
432.549802	18344.925204
432.926920	18529.030663
433.303977	18418.682326
433.680974	18687.499334
434.057910	18975.329054
434.434786	18993.777157
434.811601	18904.120236
435.188355	19957.623087
435.565050	19582.273895
435.941683	19541.158244
436.318257	20431.121024
436.694770	20245.641850
437.071222	20851.649037
437.447614	19900.998327
437.823946	19936.203224
438.200218	20083.069680
438.576429	19845.165027
438.952580	20137.262084
439.328670	20092.456308
439.704700	20510.529279
440.080670	20084.834084
440.456580	20674.086995
440.832429	20851.258347
441.208218	19841.114460
441.583947	20281.827253
441.959616	20394.867566
442.335224	20623.244438
442.710773	20761.125037
443.086261	21299.371554
443.461689	20657.549490
443.837057	20783.737133
444.212365	21432.422727
444.587612	21422.481572
444.962800	21002.639156
445.337927	21435.911206
445.712995	20154.724641
446.088002	22013.178774
446.462949	22205.450902
446.837837	22378.480946
447.212664	22337.239266
447.587431	25182.549676
447.962139	28122.658984
448.336786	30542.001976
448.711374	28976.141454
449.085901	25278.424861
449.460369	25214.520674
449.834776	25124.508351
450.209124	27619.110729
450.583412	27143.402247
450.957640	27678.067023
451.331808	26331.312691
451.705917	24955.652383
452.079965	24990.469112
452.453954	25349.038823
452.827883	25235.701082
453.201752	25024.363310
453.575562	25194.416552
453.949311	26321.001011
454.323001	26379.465793
454.696632	26132.345911
455.070202	27692.971195
455.443713	27826.463469
455.817164	28419.983717
456.190556	28954.371231
456.563888	28387.707730
456.937160	28833.759104
457.310373	27166.450402
457.683526	27619.917314
458.056619	27598.905785
458.429653	27522.862499
458.802628	28099.063863
459.175542	28207.773826
459.548398	29511.207002
459.921194	31089.809041
460.293930	31754.749836
460.666607	33776.638177
461.039224	35536.714193
461.411782	35935.408968
461.784280	34738.339096
462.156719	34260.205818
462.529099	33698.046588
462.901419	32397.733886
463.273680	31337.107884
463.645882	31406.333009
464.018024	31383.247045
464.390106	32211.478375
464.762130	34897.863889
465.134094	38957.555493
465.505999	44231.214916
465.877845	48835.988841
466.249631	50027.117713
466.621358	48302.886822
466.993026	46211.672534
467.364634	44113.259478
467.736184	42129.303299
468.107674	40867.726823
468.479105	40049.093850
468.850477	39369.944563
469.221790	37923.231711
469.593043	36164.022774
469.964238	35285.944515
470.335373	35170.106361
470.706449	36875.856383
471.077467	39398.298533
471.448425	43932.692909
471.819324	46748.550377
472.190164	44920.930462
472.560945	41352.325381
472.931667	38229.542301
473.302330	37090.107942
473.672934	36266.562364
474.043479	36739.173058
474.413965	35909.817550
474.784393	35510.459863
475.154761	36373.046657
475.525070	36385.803297
475.895321	35880.624228
476.265513	36440.958561
476.635645	37350.642334
477.005719	37138.001424
477.375734	37556.639004
477.745691	38202.236892
478.115588	39466.835540
478.485427	41337.587567
478.855207	44551.411364
479.224928	47044.997950
479.594591	48617.011201
479.964194	47585.051720
480.333739	47671.038681
480.703226	47608.987119
481.072653	48143.989653
481.442022	48516.553607
481.811333	48686.914360
482.180584	47333.790530
482.549777	46706.224850
482.918912	46076.352841
483.287988	45685.262646
483.657005	44766.540084
484.025964	44034.239391
484.394864	43937.091316
484.763706	43394.244746
485.132489	42447.258955
485.501213	42145.530774
485.869879	42164.661952
486.238487	41636.948927
486.607036	41680.670854
486.975527	41018.106963
487.343959	41065.730743
487.712333	40990.184012
488.080648	40745.509089
488.448905	40988.381799
488.817104	40655.075830
489.185244	41353.441996
489.553326	42662.133096
489.921350	44976.370551
490.289315	47552.201041
490.657222	47955.458061
491.025070	48026.175367
491.392861	46913.154133
491.760593	45496.902453
492.128267	43682.366853
492.495883	42055.135323
492.863440	40601.919384
493.230939	39159.995628
493.598380	37968.912127
493.965763	37445.907539
494.333088	36513.959510
494.700354	35865.909100
495.067563	35384.136110
495.434713	35034.456473
495.801805	34837.675033
496.168839	34276.319867
496.535815	33758.941206
496.902733	33526.443191
497.269593	32942.080199
497.636395	32627.660913
498.003139	32683.254757
498.369825	31983.363643
498.736453	31957.948666
499.103023	31328.424497
499.469535	30944.719592
499.835989	30750.241959
500.202385	30233.611910
500.568723	29965.878750
500.935003	29815.004577
501.301226	29370.561331
501.667390	29528.392296
502.033497	29427.304558
502.399546	28721.495129
502.765537	27949.109701
503.131470	27910.111335
503.497345	27848.362242
503.863163	26654.763204
504.228923	26759.858659
504.594625	26728.840439
504.960269	25956.686905
505.325856	26097.007422
505.691385	25392.790997
506.056856	25167.774054
506.422270	25130.207376
506.787625	24550.706577
507.152924	24355.795404
507.518164	24099.422484
507.883347	23322.462209
508.248472	23175.953676
508.613540	23116.432772
508.978550	22979.623419
509.343503	22504.280420
509.708398	22303.627373
510.073236	22272.720059
510.438016	21945.990275
510.802738	21348.540448
511.167403	21348.079182
511.532010	21143.526803
511.896561	20979.149900
512.261053	21074.208417
512.625488	20527.888492
512.989866	20144.418002
513.354186	19762.719477
513.718449	19446.319017
514.082655	19438.101936
514.446803	18988.768771
514.810894	18895.620850
515.174927	18555.065702
515.538904	18206.076704
515.902822	18176.946396
516.266684	17641.522926
516.630488	17505.532760
516.994235	17145.977503
517.357925	17070.188796
517.721558	16844.430803
518.085133	16670.962179
518.448651	16416.832572
518.812112	16063.490537
519.175516	15820.655636
519.538863	15649.528628
519.902152	15374.142996
520.265385	15244.756741
520.628560	14990.448174
520.991678	14660.111444
521.354739	14469.636488
521.717743	14305.035253
522.080690	14027.015618
522.443580	13925.171708
522.806413	13703.945712
523.169189	13446.650261
523.531908	13248.442174
523.894569	12970.266264
524.257174	12766.696910
524.619722	12612.432561
524.982213	12378.041592
525.344647	12128.325516
525.707025	11929.199939
526.069345	11792.325050
526.431608	11569.213663
526.793815	11438.025196
527.155964	11132.410285
527.518057	10963.894595
527.880093	10719.963242
528.242072	10637.658844
528.603995	10388.472089
528.965860	10210.300068
529.327669	10042.606085
529.689421	9854.213125
530.051117	9674.874077
530.412755	9530.634062
530.774337	9375.066575
531.135862	9179.827728
531.497331	9045.796050
531.858743	8874.951346
532.220098	8771.630377
532.581396	8586.488961
532.942638	8389.190803
533.303824	8289.491903
533.664953	8147.593505
534.026025	7974.066907
534.387040	7895.760144
534.747999	7758.567662
535.108902	7649.056157
535.469748	7468.507232
535.830537	7355.774429
536.191270	7255.715087
536.551947	7101.412929
536.912567	7027.859974
537.273131	6935.342198
537.633638	6764.938595
537.994089	6697.762700
538.354483	6555.922274
538.714821	6513.352251
539.075103	6443.370953
539.435328	6326.466595
539.795497	6222.127314
540.155609	6128.666842
540.515665	6075.767494
540.875665	5941.534170
541.235609	5880.931939
541.595496	5801.241379
541.955328	5761.615389
542.315102	5635.992356
542.674821	5541.639600
543.034483	5468.167303
543.394090	5389.578235
543.753640	5315.513603
544.113134	5305.965658
544.472571	5177.322973
544.831953	5184.360424
545.191278	5070.314401
545.550548	4984.871884
545.909761	4947.854691
546.268918	4898.038009
546.628019	4851.276266
546.987064	4769.017238
547.346053	4673.429399
547.704986	4658.442049
548.063863	4580.891459
548.422684	4538.482752
548.781449	4480.615347
549.140158	4447.646201
549.498811	4389.821646
549.857408	4312.913803
550.215949	4303.310405
550.574434	4251.464658
550.932864	4200.428016
551.291237	4180.959080
551.649555	4128.069815
552.007817	4094.931790
552.366022	4043.577556
552.724173	4012.327443
553.082267	3987.943382
553.440305	3960.920277
553.798288	3906.990013
554.156215	3878.774675
554.514086	3852.434646
554.871902	3811.190446
555.229661	3781.828245
555.587365	3749.116198
555.945014	3719.862382
556.302606	3689.761652
556.660143	3672.031914
557.017625	3649.132473
557.375050	3618.124336
557.732421	3601.145729
558.089735	3577.321236
558.446994	3553.264850
558.804197	3540.218344
559.161345	3517.538193
559.518437	3476.770382
559.875474	3466.287302
560.232455	3448.900363
560.589381	3435.987447
560.946251	3415.170002
561.303065	3408.094743
561.659825	3387.491547
562.016528	3364.009853
562.373177	3345.788602
562.729770	3337.569001
563.086307	3315.531597
563.442789	3311.291986
563.799216	3298.182466
564.155587	3284.321813
564.511904	3268.522837
564.868164	3260.792227
565.224370	3250.261257
565.580520	3236.756006
565.936615	3229.524471
566.292654	3216.543500
566.648638	3209.783312
567.004567	3199.832075
567.360441	3192.582895
567.716260	3179.987572
568.072023	3174.729649
568.427732	3161.816733
568.783385	3152.858603
569.138982	3149.256699
569.494525	3139.837303
569.850013	3130.291878
570.205445	3124.731485
570.560823	3118.820732
570.916145	3110.712036
571.271412	3104.105604
571.626625	3095.313832
571.981782	3090.605394
572.336884	3077.775658
572.691931	3077.664752
573.046923	3064.716549
573.401860	3059.453584
573.756743	3051.397820
574.111570	3047.309444
574.466342	3041.290307
574.821059	3037.885007
575.175722	3026.991074
575.530330	3021.478572
575.884882	3014.531862
576.239380	3008.177488
576.593823	3005.432579
576.948211	2996.512258
577.302544	2987.044971
577.656823	2985.666215
578.011047	2983.838797
578.365216	2974.260605
578.719330	2968.362455
579.073389	2961.191413
579.427394	2959.979016
579.781344	2953.760753
580.135239	2949.145576
580.489080	2944.674073
580.842866	2934.967331
581.196597	2938.410439
581.550273	2930.853749
581.903895	2928.703697
582.257463	2928.784356
582.610975	2914.505288
582.964434	2917.207346
583.317837	2909.441448
583.671186	2905.043042
584.024481	2904.213772
584.377721	2899.223030
584.730906	2899.906106
585.084037	2894.847308
585.437113	2889.332286
585.790135	2886.786503
586.143103	2879.471789
586.496016	2874.297044
586.848874	2866.074922
587.201679	2866.692464
587.554428	2857.394056
587.907124	2860.917822
588.259765	2851.639578
588.612352	2854.996987
588.964884	2848.637571
589.317362	2845.990966
589.669786	2842.114318
590.022155	2841.590038
590.374470	2838.346056
590.726731	2831.916064
591.078937	2825.415496
591.431090	2821.937100
591.783188	2816.253199
592.135232	2812.273208
592.487222	2811.985862
592.839157	2809.545944
593.191038	2805.649132
593.542866	2802.758030
593.894639	2794.548511
594.246358	2794.651855
594.598022	2789.494754
594.949633	2783.957047
595.301190	2785.267747
595.652692	2781.406223
596.004141	2778.557971
596.355535	2767.792587
596.706876	2766.549943
597.058162	2765.534150
597.409395	2764.278903
597.760573	2765.556835
598.111698	2756.369332
598.462768	2754.703231
598.813785	2753.253899
599.164748	2747.615369
599.515657	2747.973291
599.866511	2741.833165
600.217312	2740.472054
600.568060	2735.146075
600.918753	2741.061869
601.269392	2733.689181
601.619978	2732.779253
601.970510	2731.561814
602.320988	2731.886969
602.671412	2730.687174
603.021783	2724.549569
603.372100	2723.485886
603.722363	2719.727706
604.072572	2720.551934
604.422728	2720.781307
604.772830	2712.264277
605.122878	2710.073896
605.472872	2711.712271
605.822813	2708.737990
606.172701	2706.492156
606.522534	2707.616334
606.872314	2705.867053
607.222041	2703.555684
607.571714	2706.794626
607.921333	2701.030066
608.270899	2702.958307
608.620411	2703.827907
608.969870	2702.252546
609.319276	2698.169211
609.668627	2698.426310
610.017926	2701.571990
610.367171	2699.593337
610.716362	2696.220805
611.065500	2692.684436
611.414585	2695.474715
611.763616	2694.673171
612.112594	2694.393387
612.461518	2694.605116
612.810389	2693.753161
613.159207	2692.142512
613.507971	2688.444826
613.856682	2693.470856
614.205340	2689.100176
614.553945	2693.727955
614.902496	2687.789476
615.250994	2687.096317
615.599439	2688.177644
615.947830	2692.124868
616.296169	2685.868796
616.644454	2687.940710
616.992686	2686.768642
617.340864	2689.357274
617.688990	2685.896522
618.037063	2689.397604
618.385082	2687.512212
618.733048	2690.539425
619.080961	2687.615556
619.428821	2687.943231
619.776628	2685.684794
620.124382	2685.672191
620.472083	2682.571881
620.819731	2683.872499
621.167326	2680.391582
621.514868	2678.758248
621.862357	2674.798422
622.209793	2673.999399
622.557176	2673.646518
622.904506	2667.362720
623.251783	2661.840136
623.599007	2660.473983
623.946179	2658.964158
624.293297	2658.815444
624.640363	2657.164466
624.987376	2657.550114
625.334336	2653.746564
625.681243	2654.643889
626.028097	2651.536018
626.374899	2649.564927
626.721647	2653.328148
627.068343	2648.130718
627.414987	2647.039308
627.761577	2642.817342
628.108115	2644.617034
628.454600	2641.184008
628.801032	2641.486477
629.147412	2640.095119
629.493739	2641.831797
629.840014	2639.512866
630.186236	2642.340953
630.532405	2638.207207
630.878521	2637.385499
631.224585	2637.017495
631.570597	2633.614716
631.916556	2637.304840
632.262462	2635.331229
632.608316	2634.207051
632.954117	2632.992133
633.299866	2631.643625
633.645562	2633.150930
633.991206	2629.100362
634.336797	2623.698766
634.682336	2625.077522
635.027823	2622.700618
635.373257	2623.416462
635.718639	2618.511419
636.063968	2617.883795
636.409245	2615.824484
636.754470	2614.407920
637.099642	2614.818774
637.444762	2611.627723
637.789829	2612.222579
638.134845	2609.931375
638.479808	2610.405243
638.824719	2607.647732
639.169577	2605.550612
639.514383	2604.592793
