Dividing Wavelength (nm)	Counts (n)	Blue Motor Position (mm): 0.000000	Red Motor Position (mm): 42.600000	
326.493990	1996.117962
326.888308	1996.117962
327.282561	1996.117962
327.676750	1971.638119
328.070874	1976.863275
328.464933	1980.008955
328.858929	1989.264513
329.252859	2001.519558
329.646726	2015.060098
330.040528	2032.603313
330.434265	2051.794986
330.827938	2070.061607
331.221547	2091.090780
331.615091	2111.542741
332.008571	2133.113838
332.401986	2152.565131
332.795338	2173.642195
333.188625	2191.618949
333.581847	2210.931610
333.975006	2230.395505
334.368100	2247.200191
334.761129	2263.163005
335.154095	2279.171189
335.546996	2308.228400
335.939833	2370.259798
336.332606	2383.351674
336.725315	2395.218550
337.117960	2404.269942
337.510540	2410.757907
337.903056	2425.248704
338.295508	2431.383788
338.687896	2434.806732
339.080220	2442.691096
339.472480	2449.020265
339.864676	2452.047478
340.256807	2454.341203
340.648875	2457.907819
341.040879	2460.524178
341.432818	2460.468725
341.824694	2460.262038
342.216506	2464.302523
342.608253	2462.205403
342.999937	2460.468725
343.391557	2457.612912
343.783113	2459.672223
344.174605	2458.817747
344.566033	2452.740636
344.957397	2451.825667
345.348697	2452.148301
345.739934	2450.320882
346.131106	2447.215532
346.522215	2446.224945
346.913260	2442.975921
347.304241	2445.788885
347.695159	2438.930395
348.086012	2441.640016
348.476802	2439.736980
348.867528	2436.994592
349.258191	2438.567432
349.648789	2435.777154
350.039324	2435.923347
350.429796	2435.925868
350.820203	2434.531989
351.210548	2433.548964
351.600828	2432.860846
351.991045	2433.611978
352.381198	2432.419745
352.771288	2435.167174
353.161314	2430.625094
353.551276	2435.061310
353.941175	2429.715166
354.331010	2433.284303
354.720782	2435.383944
355.110490	2435.305806
355.500135	2434.771443
355.889717	2436.455189
356.279235	2435.426793
356.668689	2437.498708
357.058080	2434.673141
357.447408	2433.808583
357.836672	2436.205652
358.225873	2436.830755
358.615010	2435.404108
359.004084	2441.496343
359.393095	2442.378545
359.782043	2441.577001
360.170927	2438.970725
360.559748	2445.763679
360.948505	2444.188319
361.337199	2448.601849
361.725830	2444.871395
362.114398	2448.342230
362.502903	2448.334668
362.891344	2451.888681
363.279722	2446.875254
363.668037	2452.486058
364.056289	2450.948506
364.444478	2451.959257
364.832603	2452.627210
365.220665	2456.443364
365.608665	2456.904629
365.996601	2457.446553
366.384474	2459.263889
366.772284	2460.072995
367.160031	2461.108952
367.547715	2458.023766
367.935336	2459.480659
368.322893	2461.729014
368.710388	2462.522995
369.097820	2464.930146
369.485189	2468.738738
369.872495	2468.645477
370.259738	2469.595734
370.646918	2475.357773
371.034035	2473.477423
371.421090	2477.565798
371.808081	2484.875472
372.195010	2484.152066
372.581875	2492.374188
372.968678	2497.485918
373.355418	2503.870539
373.742096	2518.041223
374.128710	2527.226205
374.515262	2542.480737
374.901751	2555.040771
375.288177	2571.933678
375.674540	2594.326483
376.060841	2615.148969
376.447079	2639.545633
376.833254	2665.953718
377.219367	2689.518591
377.605417	2725.187275
377.991404	2752.895977
378.377329	2796.900209
378.763191	2829.521516
379.148991	2879.663353
379.534727	2929.154881
379.920402	2976.897128
380.306013	3031.200437
380.691563	3096.032196
381.077049	3149.922131
381.462474	3208.228116
381.847835	3285.352729
382.233134	3358.162114
382.618371	3423.132505
383.003545	3508.043180
383.388657	3589.687187
383.773706	3687.601518
384.158693	3760.783948
384.543618	3856.722147
384.928480	3943.387143
385.313280	4049.873957
385.698017	4156.675842
386.082692	4279.891724
386.467305	4343.914378
386.851856	4477.391529
387.236344	4634.723420
387.620770	4706.942990
388.005133	4824.454807
388.389435	4976.846367
388.773674	5066.092434
389.157851	5201.981777
389.541965	5338.670143
389.926018	5361.214183
390.310008	5548.278800
390.693936	5676.379560
391.077802	5791.196880
391.461606	5928.858189
391.845348	6050.947373
392.229027	6172.771897
392.612645	6404.365025
392.996200	6521.155957
393.379694	6702.312341
393.763125	6931.052176
394.146494	7030.196549
394.529801	7172.626789
394.913047	7425.307064
395.296230	7419.839933
395.679351	7477.568706
396.062410	7751.610870
396.445408	7641.244889
396.828343	7809.629510
397.211217	7950.572609
397.594028	7820.573855
397.976778	8039.657360
398.359466	8204.525776
398.742092	8179.872013
399.124656	8333.876742
399.507158	8523.051081
399.889598	8546.578146
400.271977	8759.937421
400.654294	8794.489490
401.036549	9001.151592
401.418742	9024.658492
401.800874	9338.498045
402.182944	9418.118029
402.564952	9797.043920
402.946898	9613.697154
403.328783	9669.482563
403.710606	9875.053255
404.092367	10143.918154
404.474067	10516.542602
404.855705	10297.643099
405.237282	10248.534699
405.618797	10688.403099
406.000250	10939.354258
406.381642	11308.558283
406.762972	11255.056517
407.144240	11066.945862
407.525447	11315.683954
407.906593	11254.043245
408.287677	11522.799760
408.668700	11682.004439
409.049661	11656.082826
409.430560	11824.175060
409.811399	11790.462344
410.192176	11959.746811
410.572891	12034.920497
410.953545	12550.083570
411.334138	12001.835404
411.714669	12624.806073
412.095139	11907.288564
412.475547	12430.318358
412.855894	12260.711257
413.236180	12615.079167
413.616405	12277.425202
413.996568	12573.134246
414.376670	12533.662011
414.756711	12413.513671
415.136691	12704.718444
415.516609	12899.697672
415.896466	12963.879122
416.276262	13258.758895
416.655997	13700.260629
417.035670	13731.462850
417.415283	14403.269697
417.794834	14503.318957
418.174324	14243.107198
418.553753	14139.146003
418.933121	14653.207584
419.312428	14443.177992
419.691674	14361.460888
420.070859	14833.161653
420.449983	14476.300893
420.829045	15038.286203
421.208047	14774.767447
421.586988	15247.098357
421.965867	15508.600651
422.344686	15514.546692
422.723444	16085.210349
423.102141	14737.336880
423.480777	15959.380628
423.859352	15451.633092
424.237866	16601.716889
424.616319	16283.413394
424.994712	16960.304245
425.373044	16752.376813
425.751314	17443.846681
426.129524	16552.948767
426.507673	17676.879058
426.885762	17360.390379
427.263789	17571.455928
427.641756	17743.160149
428.019662	17803.878327
428.397508	17847.665789
428.775292	18165.951640
429.153016	18123.618550
429.530679	18202.061425
429.908282	18225.984220
430.285824	17934.706351
430.663305	18666.213062
431.040726	18250.948014
431.418086	18073.476714
431.795385	18744.439167
432.172624	19166.038425
432.549802	18709.985401
432.926920	18906.108971
433.303977	18784.781001
433.680974	19048.584582
434.057910	19338.012347
434.434786	19364.201142
434.811601	19283.547721
435.188355	20348.834270
435.565050	19978.700151
435.941683	19938.005437
436.318257	20825.432516
436.694770	20628.099069
437.071222	21239.812842
437.447614	20291.677667
437.823946	20326.716207
438.200218	20486.621607
438.576429	20251.948334
438.952580	20524.536125
439.328670	20480.514249
439.704700	20923.931621
440.080670	20474.946295
440.456580	21071.337480
440.832429	21261.754464
441.208218	20228.980837
441.583947	20678.984476
441.959616	20788.221239
442.335224	21042.681041
442.710773	21179.959222
443.086261	21717.573074
443.461689	21072.270093
443.837057	21201.341276
444.212365	21855.262109
444.587612	21853.686748
444.962800	21422.219432
445.337927	21857.535669
445.712995	20559.113399
446.088002	22460.243420
446.462949	22649.896669
446.837837	22836.225277
447.212664	22781.448099
447.587431	25698.237029
447.962139	28676.827985
448.336786	31094.910689
448.711374	29535.691887
449.085901	25760.684323
449.460369	25712.226231
449.834776	25634.408460
450.209124	28167.429471
450.583412	27671.329521
450.957640	28225.415343
451.331808	26847.975508
451.705917	25454.507323
452.079965	25490.239022
452.453954	25856.002460
452.827883	25738.893935
453.201752	25529.436513
453.575562	25704.788009
453.949311	26857.679729
454.323001	26919.534687
454.696632	26674.940423
455.070202	28264.501930
455.443713	28387.717812
455.817164	28998.385545
456.190556	29539.364367
456.563888	28963.344485
456.937160	29409.186651
457.310373	27726.066370
457.683526	28192.221866
458.056619	28177.191666
458.429653	28091.323172
458.802628	28684.180508
459.175542	28803.665937
459.548398	30119.102101
459.921194	31708.429194
460.293930	32391.573596
460.666607	34452.430056
461.039224	36232.900059
461.411782	36641.357029
461.784280	35430.368532
462.156719	34957.717509
462.529099	34407.820885
462.901419	33108.123204
463.273680	32031.252084
463.645882	32100.073916
464.018024	32064.811045
464.390106	32927.551593
464.762130	35654.909086
465.134094	39759.582905
465.505999	45107.397702
465.877845	49728.636035
466.249631	50924.806061
466.621358	49252.340258
466.993026	47164.942123
467.364634	45085.251913
467.736184	43089.363323
468.107674	41817.046668
468.479105	41009.496672
468.850477	40296.349843
469.221790	38839.917647
469.593043	37054.386325
469.964238	36173.454773
470.335373	36086.522596
470.706449	37839.558640
471.077467	40451.440941
471.448425	45046.470316
471.819324	47899.085358
472.190164	46043.202213
472.560945	42447.425313
472.931667	39306.783946
473.302330	38182.072276
473.672934	37344.061108
474.043479	37851.886782
474.413965	37038.486526
474.784393	36659.774885
475.154761	37574.593073
475.525070	37597.981506
475.895321	37117.793958
476.265513	37744.346367
476.635645	38734.091225
477.005719	38550.840242
477.375734	39009.043318
477.745691	39723.735260
478.115588	41073.877248
478.485427	43071.903287
478.855207	46461.368446
479.224928	49082.869269
479.594591	50726.915567
479.964194	49740.868395
480.333739	49929.631880
480.703226	49958.381581
481.072653	50590.834660
481.442022	51054.124260
481.811333	51325.461845
482.180584	50054.110572
482.549777	49530.753103
482.918912	48978.272888
483.287988	48689.147592
483.657005	47867.527735
484.025964	47213.707725
484.394864	47241.537415
484.763706	46806.816033
485.132489	45940.612212
485.501213	45772.857736
485.869879	45912.933757
486.238487	45493.217370
486.607036	45694.251024
486.975527	45160.365105
487.343959	45368.075767
487.712333	45447.816738
488.080648	45352.980032
488.448905	45812.246791
488.817104	45632.161652
489.185244	46591.273939
489.553326	48266.242675
489.921350	50982.575163
490.289315	53831.137118
490.657222	54399.696092
491.025070	54691.793149
491.392861	53808.272964
491.760593	52597.309673
492.128267	50966.025055
492.495883	49467.171550
492.863440	48050.914829
493.230939	46682.594441
493.598380	45586.645074
493.965763	45245.903403
494.333088	44419.262558
494.700354	43927.041775
495.067563	43633.248370
495.434713	43498.014377
495.801805	43569.414760
496.168839	43171.249306
496.535815	42849.732075
496.902733	42868.102040
497.269593	42461.638846
497.636395	42378.462328
498.003139	42790.750575
498.369825	42236.208528
498.736453	42555.598392
499.103023	42073.845566
499.469535	41937.915894
499.835989	42037.524052
500.202385	41692.154602
500.568723	41725.763975
500.935003	41914.189703
501.301226	41701.329503
501.667390	42330.944412
502.033497	42622.378557
502.399546	42017.750127
502.765537	41337.401045
503.131470	41728.040056
503.497345	42074.334558
503.863163	40723.522097
504.228923	41348.342869
504.594625	41764.023812
504.960269	41038.493389
505.325856	41759.746393
505.691385	41115.315532
506.056856	41250.829310
506.422270	41686.213603
506.787625	41275.379729
507.152924	41450.426234
507.518164	41562.354973
507.883347	40762.487695
508.248472	41029.951154
508.613540	41488.938129
508.978550	41805.671305
509.343503	41538.603577
509.708398	41755.519386
510.073236	42293.599544
510.438016	42288.906230
510.802738	41732.962743
511.167403	42364.644526
511.532010	42610.415899
511.896561	42897.958273
512.261053	43768.424390
512.625488	43304.784430
512.989866	43184.570555
513.354186	43005.130683
513.718449	42990.710463
514.082655	43688.995970
514.446803	43368.353380
514.810894	43890.138009
515.174927	43795.656703
515.538904	43687.579406
515.902822	44385.660747
516.266684	43803.767920
516.630488	44253.827012
516.994235	44095.171818
517.357925	44673.097257
517.721558	44846.432290
518.085133	45143.386499
518.448651	45292.445856
518.812112	45054.861317
519.175516	45150.736501
519.538863	45488.856772
519.902152	45453.896370
520.265385	45916.639005
520.628560	45973.740155
520.991678	45742.580566
521.354739	45972.568086
521.717743	46282.571322
522.080690	46190.376179
522.443580	46737.109479
522.806413	46774.119110
523.169189	46722.573312
523.531908	46910.991478
523.894569	46769.151052
524.257174	46949.702498
524.619722	47239.639420
524.982213	47213.871562
525.344647	47135.400962
525.707025	47173.164245
526.069345	47559.992144
526.431608	47475.356213
526.793815	47815.624015
527.155964	47321.774940
527.518057	47490.172164
527.880093	47265.936599
528.242072	47791.998647
528.603995	47492.533944
528.965860	47503.374946
529.327669	47596.232999
529.689421	47472.424782
530.051117	47451.871997
530.412755	47580.708766
530.774337	47642.336872
531.135862	47439.286757
531.497331	47640.413672
531.858743	47551.462512
532.220098	47898.800533
532.581396	47603.852703
532.942638	47241.454236
533.303824	47555.182884
533.664953	47523.494191
534.026025	47214.262252
534.387040	47704.796768
534.747999	47655.685847
535.108902	47808.793251
535.469748	47329.886157
535.830537	47423.419725
536.191270	47633.908063
536.551947	47280.843291
536.912567	47598.317517
537.273131	47703.740646
537.633638	47171.674584
537.994089	47532.578350
538.354483	47125.565671
538.714821	47688.534006
539.075103	48043.448881
539.435328	47803.086665
539.795497	47687.185497
540.155609	47675.127057
540.515665	48129.682858
540.875665	47581.280937
541.235609	47910.473324
541.595496	47887.152947
541.955328	48555.733455
542.315102	47920.999254
542.674821	47700.927683
543.034483	47735.010924
543.394090	47703.909525
543.753640	47670.416099
544.113134	48675.967495
544.472571	47673.014814
544.831953	48936.345612
545.191278	48144.191299
545.550548	47855.227319
545.909761	48334.968725
546.268918	48531.984579
546.628019	48836.540848
546.987064	48387.137106
547.346053	47646.894075
547.704986	48556.431655
548.063863	48089.441848
548.422684	48275.616700
548.781449	48143.145260
549.140158	48531.162871
549.498811	48389.138444
549.857408	47800.520718
550.215949	48640.525663
550.574434	48575.091486
550.932864	48328.132921
551.291237	49070.412578
551.649555	48659.245987
552.007817	48900.311444
552.366022	48537.981032
552.724173	48709.065190
553.082267	49109.741139
553.440305	49414.816647
553.798288	48722.023476
554.156215	49033.652484
554.514086	49256.552142
554.871902	48982.197426
555.229661	49003.876908
555.587365	48825.432665
555.945014	48924.942522
556.302606	48842.877578
556.660143	49062.255991
557.017625	49153.669754
557.375050	48942.218556
557.732421	49291.462133
558.089735	49265.779974
558.446994	49187.430361
558.804197	49670.267035
559.161345	49613.964909
559.518437	48850.361171
559.875474	49151.832253
560.232455	49297.977824
560.589381	49501.159009
560.946251	49197.779850
561.303065	49897.928064
561.659825	49693.015242
562.016528	49347.045895
562.373177	49076.139328
562.729770	49552.062060
563.086307	49065.512576
563.442789	49524.950735
563.799216	49578.757490
564.155587	49369.098422
564.511904	49389.192462
564.868164	49469.598865
565.224370	49727.821889
565.580520	49456.123861
565.936615	49665.845943
566.292654	49389.817565
566.648638	49637.925513
567.004567	49582.079611
567.360441	49619.595878
567.716260	49495.260859
568.072023	49746.481720
568.427732	49750.063460
568.783385	49289.344848
569.138982	49686.118944
569.494525	49630.598196
569.850013	49411.103837
570.205445	49375.349453
570.560823	49340.961222
570.916145	49227.638604
571.271412	49255.775804
571.626625	48994.029014
571.981782	49055.132840
572.336884	48731.755424
572.691931	49059.967307
573.046923	48632.732039
573.401860	48489.301130
573.756743	48497.603910
574.111570	48596.294579
574.466342	48432.716698
574.821059	48561.498014
575.175722	48064.525945
575.530330	48086.573431
575.884882	47798.542065
576.239380	47774.256306
576.593823	47728.490191
576.948211	47645.553128
577.302544	47163.674273
577.656823	47173.449070
578.011047	47391.748676
578.365216	47111.279041
578.719330	46905.846980
579.073389	46755.020698
579.427394	46828.997110
579.781344	46797.648695
580.135239	46419.184070
580.489080	46517.297527
580.842866	45972.920967
581.196597	46424.948630
581.550273	46351.688061
581.903895	46203.888992
582.257463	46628.659136
582.610975	45985.009654
582.964434	46246.892555
583.317837	45887.816208
583.671186	45716.966463
584.024481	45937.857222
584.377721	45458.801413
584.730906	45746.182470
585.084037	45755.455672
585.437113	45459.315610
585.790135	45476.523589
586.143103	45092.145691
586.496016	45173.348597
586.848874	45215.918620
587.201679	45195.333069
587.554428	44672.179767
587.907124	44829.176421
588.259765	44566.184466
588.612352	44822.743908
588.964884	44183.870920
589.317362	44462.888703
589.669786	44379.054314
590.022155	44162.894679
590.374470	44554.564606
590.726731	44061.693515
591.078937	43560.554932
591.431090	43636.953618
591.783188	43297.384016
592.135232	42946.262609
592.487222	43165.341073
592.839157	43262.630301
593.191038	42899.856268
593.542866	42628.700164
593.894639	42024.495190
594.246358	42279.806947
594.598022	42238.585432
594.949633	41813.815289
595.301190	41757.326639
595.652692	41573.407703
596.004141	41864.536858
596.355535	40868.467873
596.706876	40823.528507
597.058162	40633.870217
597.409395	41091.420463
597.760573	41157.890597
598.111698	40705.862935
598.462768	40689.995903
598.813785	40718.642260
599.164748	40131.718362
599.515657	40508.867245
599.866511	39957.281836
600.217312	40533.616790
600.568060	39471.014656
600.918753	40189.079131
601.269392	40130.629472
601.619978	39750.050083
601.970510	39946.650042
602.320988	40106.452098
602.671412	40375.584179
603.021783	40083.988717
603.372100	39726.553265
603.722363	39812.454527
604.072572	39867.090552
604.422728	39830.058236
604.772830	39616.835072
605.122878	39685.805619
605.472872	39595.347154
605.822813	39843.762613
606.172701	39621.616607
606.522534	39836.213485
606.872314	40068.721582
607.222041	39781.958067
607.571714	40136.572993
607.921333	39536.133761
608.270899	39800.534718
608.620411	40103.487900
608.969870	39865.558041
609.319276	39822.375517
609.668627	39832.566210
610.017926	40265.989494
610.367171	40391.007589
610.716362	40424.480851
611.065500	40327.857055
611.414585	40461.795471
611.763616	40711.619932
612.112594	40591.637950
612.461518	40760.428384
612.810389	41004.694973
613.159207	40811.306229
613.507971	40846.559018
613.856682	41256.934147
614.205340	41089.235123
614.553945	41702.967878
614.902496	41136.654737
615.250994	41532.592001
615.599439	41535.044522
615.947830	41682.926770
616.296169	41668.604852
616.644454	41727.208266
616.992686	41840.167921
617.340864	42265.154834
617.688990	41920.186156
618.037063	42445.618059
618.385082	42334.770648
618.733048	42571.513315
619.080961	42514.495344
619.428821	42467.370638
619.776628	42538.871844
620.124382	42305.448777
620.472083	42379.047102
620.819731	42460.176912
621.167326	42117.859880
621.514868	42057.091291
621.862357	41605.363577
622.209793	41593.670621
622.557176	41252.903744
622.904506	40977.782773
623.251783	40627.926696
623.599007	40386.470551
623.946179	40121.673862
624.293297	40042.137058
624.640363	39420.701420
624.987376	39365.619253
625.334336	39087.440822
625.681243	38687.742857
626.028097	38593.155687
626.374899	38415.991897
626.721647	38312.129004
627.068343	38161.345572
627.414987	37872.434525
627.761577	37619.025803
628.108115	37852.070784
628.454600	37281.129864
628.801032	37391.838643
629.147412	37277.727085
629.493739	37232.984324
629.840014	36841.271547
630.186236	37072.244613
630.532405	36655.285737
630.878521	36771.748994
631.224585	36588.886179
631.570597	36276.470752
631.916556	36357.958483
632.262462	36238.919197
632.608316	36190.612340
632.954117	36029.789450
633.299866	35970.543290
633.645562	35844.920256
633.991206	35350.010019
634.336797	34930.893529
634.682336	34896.323817
635.027823	34621.757372
