Dividing Wavelength (nm)	Counts (n)	Blue Motor Position (mm): 0.000000	Red Motor Position (mm): 10.200000	
326.493990	1977.831177
326.888308	1977.831177
327.282561	1977.831177
327.676750	1955.466097
328.070874	1950.863524
328.464933	1960.048506
328.858929	1970.292131
329.252859	1981.574233
329.646726	1996.758189
330.040528	2011.390138
330.434265	2032.323529
330.827938	2051.028730
331.221547	2070.139745
331.615091	2090.453074
332.008571	2111.993924
332.401986	2133.582666
332.795338	2152.151756
333.188625	2173.485919
333.581847	2193.406038
333.975006	2212.627958
334.368100	2227.262428
334.761129	2245.811353
335.154095	2261.023035
335.546996	2273.615837
335.939833	2288.882972
336.332606	2301.692544
336.725315	2313.350212
337.117960	2321.514361
337.510540	2328.609785
337.903056	2337.704026
338.295508	2343.657629
338.687896	2352.396469
339.080220	2356.562983
339.472480	2361.636904
339.864676	2369.770806
340.256807	2370.405991
340.648875	2369.980014
341.040879	2374.862371
341.432818	2374.010416
341.824694	2377.569471
342.216506	2376.536034
342.608253	2376.664584
342.999937	2372.293903
343.391557	2372.556043
343.783113	2370.738707
344.174605	2370.436238
344.566033	2368.722246
344.957397	2367.782071
345.348697	2366.841895
345.739934	2362.935001
346.131106	2360.603468
346.522215	2357.006604
346.913260	2357.543487
347.304241	2359.025586
347.695159	2351.688187
348.086012	2355.587519
348.476802	2350.218691
348.867528	2349.475120
349.258191	2350.448063
349.648789	2349.948989
350.039324	2346.722650
350.429796	2349.875892
350.820203	2345.013699
351.210548	2344.970849
351.600828	2348.066118
351.991045	2344.466734
352.381198	2344.764162
352.771288	2344.038236
353.161314	2345.530418
353.551276	2346.876406
353.941175	2344.796930
354.331010	2344.983452
354.720782	2347.277177
355.110490	2346.208453
355.500135	2346.886488
355.889717	2344.423884
356.279235	2345.875737
356.668689	2347.801457
357.058080	2346.979749
357.447408	2345.361539
357.836672	2346.357167
358.225873	2346.447908
358.615010	2347.292301
359.004084	2349.170131
359.393095	2351.002590
359.782043	2350.919411
360.170927	2351.153825
360.559748	2353.475276
360.948505	2352.988805
361.337199	2355.408558
361.725830	2355.388394
362.114398	2356.048785
362.502903	2355.637931
362.891344	2357.160359
363.279722	2355.673219
363.668037	2358.639938
364.056289	2357.331759
364.444478	2358.952490
364.832603	2358.080370
365.220665	2360.326204
365.608665	2359.375947
365.996601	2361.710001
366.384474	2359.267562
366.772284	2365.805938
367.160031	2362.682943
367.547715	2364.719570
367.935336	2362.181349
368.322893	2360.331245
368.710388	2362.372913
369.097820	2369.077647
369.485189	2365.019518
369.872495	2368.303830
370.259738	2367.005733
370.646918	2371.842720
371.034035	2372.984541
371.421090	2375.636188
371.808081	2377.476209
372.195010	2380.248844
372.581875	2386.946017
372.968678	2392.418189
373.355418	2398.243243
373.742096	2410.190777
374.128710	2418.866603
374.515262	2432.064344
374.901751	2442.756631
375.288177	2459.949486
375.674540	2479.572178
376.060841	2499.976248
376.447079	2523.954496
376.833254	2547.433670
377.219367	2572.195818
377.605417	2606.321909
377.991404	2634.265025
378.377329	2671.541837
378.763191	2705.970397
379.148991	2754.398241
379.534727	2801.800211
379.920402	2842.913341
380.306013	2891.810013
380.691563	2956.062039
381.077049	3011.592869
381.462474	3063.529357
381.847835	3136.900831
382.233134	3204.338866
382.618371	3264.305912
383.003545	3348.818335
383.388657	3424.203750
383.773706	3516.681197
384.158693	3588.152155
384.543618	3675.986699
384.928480	3753.388576
385.313280	3854.226776
385.698017	3957.663691
386.082692	4070.767019
386.467305	4134.101555
386.851856	4253.040018
387.236344	4399.097369
387.620770	4456.508549
388.005133	4568.989295
388.389435	4708.306622
388.773674	4783.500473
389.157851	4902.539759
389.541965	5022.141134
389.926018	5034.113875
390.310008	5186.144993
390.693936	5285.929592
391.077802	5379.473243
391.461606	5484.495601
391.845348	5562.711623
392.229027	5653.326363
392.612645	5822.840203
392.996200	5897.124125
393.379694	6016.082753
393.763125	6171.700652
394.146494	6213.799327
394.529801	6284.894720
394.913047	6441.667043
395.296230	6386.199227
395.679351	6374.549121
396.062410	6521.649990
396.445408	6374.952413
396.828343	6435.688235
397.211217	6463.039015
397.594028	6308.774666
397.976778	6382.899792
398.359466	6427.619868
398.742092	6328.508263
399.124656	6351.868970
399.507158	6395.943778
399.889598	6319.958466
400.271977	6372.767073
400.654294	6297.744621
401.036549	6325.138251
401.418742	6244.520119
401.800874	6323.184804
402.182944	6262.446462
402.564952	6359.551688
402.946898	6155.629453
403.328783	6077.022741
403.710606	6064.762655
404.092367	6082.648669
404.474067	6141.698225
404.855705	5921.717394
405.237282	5779.955107
405.618797	5849.107135
406.000250	5839.987688
406.381642	5860.883270
406.762972	5717.233071
407.144240	5520.585221
407.525447	5485.342514
407.906593	5344.744734
408.287677	5311.838602
408.668700	5242.530298
409.049661	5111.601451
409.430560	5042.900606
409.811399	4917.348149
410.192176	4849.385833
410.572891	4754.866719
410.953545	4754.632306
411.334138	4520.742932
411.714669	4540.204306
412.095139	4293.729692
412.475547	4291.554434
412.855894	4163.809075
413.236180	4119.552785
413.616405	3972.512410
413.996568	3920.754883
414.376670	3830.417406
414.756711	3727.335893
415.136691	3679.661701
415.516609	3621.827063
415.896466	3551.800395
416.276262	3505.061337
416.655997	3469.127993
417.035670	3405.102818
417.415283	3390.100344
417.794834	3326.584326
418.174324	3247.755804
418.553753	3175.841223
418.933121	3148.218221
419.312428	3080.933941
419.691674	3024.052081
420.070859	2993.568224
420.449983	2933.029007
420.829045	2911.682241
421.208047	2859.652492
421.586988	2837.761282
421.965867	2811.358239
422.344686	2776.692744
422.723444	2761.029879
423.102141	2697.274407
423.480777	2700.283975
423.859352	2665.845333
424.237866	2660.542039
424.616319	2634.108749
424.994712	2623.902933
425.373044	2603.912237
425.751314	2594.442430
426.129524	2568.966959
426.507673	2566.166598
426.885762	2549.931562
427.263789	2540.681045
427.641756	2529.429189
428.019662	2524.342665
428.397508	2515.190450
428.775292	2510.779441
429.153016	2504.004130
429.530679	2497.410301
429.908282	2489.760350
430.285824	2486.206336
430.663305	2481.157621
431.040726	2480.393886
431.418086	2473.127063
431.795385	2471.874336
432.172624	2470.646815
432.549802	2466.356793
432.926920	2466.843264
433.303977	2463.374950
433.680974	2458.114506
434.057910	2459.369754
434.434786	2456.239197
434.811601	2456.702983
435.188355	2457.106276
435.565050	2454.880606
435.941683	2451.833229
436.318257	2453.368260
436.694770	2446.681169
437.071222	2451.616459
437.447614	2444.599173
437.823946	2444.843669
438.200218	2443.933741
438.576429	2446.469441
438.952580	2445.085644
439.328670	2443.699327
439.704700	2444.009358
440.080670	2442.784358
440.456580	2441.942485
440.832429	2442.403750
441.208218	2438.209510
441.583947	2442.159254
441.959616	2440.684717
442.335224	2440.369645
442.710773	2440.934254
443.086261	2439.913420
443.461689	2439.716815
443.837057	2441.892073
444.212365	2439.051383
444.587612	2440.233534
444.962800	2437.798656
445.337927	2438.945519
445.712995	2436.775302
446.088002	2441.110694
446.462949	2439.797474
446.837837	2440.392330
447.212664	2440.190684
447.587431	2448.692590
447.962139	2455.717438
448.336786	2460.468725
448.711374	2457.393621
449.085901	2450.356171
449.460369	2448.894236
449.834776	2446.945830
450.209124	2455.788014
450.583412	2452.518826
450.957640	2455.626697
451.331808	2451.931531
451.705917	2444.200922
452.079965	2445.408278
452.453954	2446.875254
452.827883	2449.408434
453.201752	2442.706220
453.575562	2447.651592
453.949311	2447.127312
454.323001	2450.580502
454.696632	2450.272992
455.070202	2452.029834
455.443713	2451.616459
455.817164	2450.557817
456.190556	2449.970522
456.563888	2450.683846
456.937160	2447.964143
457.310373	2450.204936
457.683526	2450.963630
458.056619	2450.245265
458.429653	2448.460697
458.802628	2453.635441
459.175542	2451.180399
459.548398	2456.035030
459.921194	2457.703652
460.293930	2462.830506
460.666607	2463.526185
461.039224	2467.498614
461.411782	2468.068265
461.784280	2467.659931
462.156719	2465.746813
462.529099	2463.243880
462.901419	2462.230608
463.273680	2459.571400
463.645882	2456.491255
464.018024	2457.146605
464.390106	2458.734568
464.762130	2466.651700
465.134094	2474.800726
465.505999	2487.282623
465.877845	2497.032214
466.249631	2500.112359
466.621358	2493.591627
466.993026	2492.417038
467.364634	2489.757829
467.736184	2480.290542
468.107674	2477.268370
468.479105	2475.196456
468.850477	2478.498412
469.221790	2472.030612
469.593043	2463.929477
469.964238	2463.964765
470.335373	2464.219344
470.706449	2468.481639
471.077467	2473.668987
471.448425	2483.322796
471.819324	2488.401759
472.190164	2487.454022
472.560945	2478.538741
472.931667	2471.947433
473.302330	2470.120014
473.672934	2467.911989
474.043479	2464.824282
474.413965	2466.666824
474.784393	2457.252469
475.154761	2466.165229
475.525070	2464.892338
475.895321	2462.661627
476.265513	2463.591720
476.635645	2470.369551
477.005719	2469.331074
477.375734	2468.466516
477.745691	2473.416929
478.115588	2474.193267
478.485427	2475.350211
478.855207	2483.872282
479.224928	2489.084835
479.594591	2494.360403
479.964194	2493.256390
480.333739	2495.348469
480.703226	2490.304794
481.072653	2494.373005
481.442022	2492.958962
481.811333	2495.315701
482.180584	2490.889568
482.549777	2490.929897
482.918912	2488.099289
483.287988	2489.473004
483.657005	2486.987715
484.025964	2487.355719
484.394864	2484.691469
484.763706	2482.826242
485.132489	2481.240800
485.501213	2481.548310
485.869879	2483.184164
486.238487	2483.345481
486.607036	2484.192395
486.975527	2480.222487
487.343959	2480.630820
487.712333	2481.654174
488.080648	2480.920686
488.448905	2482.801037
488.817104	2480.391365
489.185244	2483.481593
489.553326	2487.980822
489.921350	2493.082470
490.289315	2495.915598
490.657222	2500.087153
491.025070	2498.872235
491.392861	2496.686895
491.760593	2493.072388
492.128267	2490.140957
492.495883	2488.028713
492.863440	2485.140132
493.230939	2483.433702
493.598380	2480.214925
493.965763	2475.443473
494.333088	2474.967084
494.700354	2475.067907
495.067563	2475.178812
495.434713	2471.846609
495.801805	2478.747949
496.168839	2476.131590
496.535815	2477.018833
496.902733	2477.336426
497.269593	2477.152424
497.636395	2477.200315
498.003139	2479.413381
498.369825	2476.751652
498.736453	2480.184678
499.103023	2477.144862
499.469535	2479.299955
499.835989	2477.674183
500.202385	2480.570326
500.568723	2480.371201
500.935003	2482.211222
501.301226	2485.649289
501.667390	2486.609628
502.033497	2485.679536
502.399546	2487.368322
502.765537	2484.426809
503.131470	2487.544763
503.497345	2491.222284
503.863163	2487.017962
504.228923	2490.461070
504.594625	2491.156749
504.960269	2493.430310
505.325856	2497.138078
505.691385	2494.272182
506.056856	2502.267452
506.422270	2503.323574
506.787625	2502.948008
507.152924	2505.760972
507.518164	2509.383041
507.883347	2506.819614
508.248472	2509.287259
508.613540	2514.116684
508.978550	2516.014679
509.343503	2517.660616
509.708398	2521.759074
510.073236	2526.812830
510.438016	2526.873324
510.802738	2524.624970
511.167403	2532.448840
511.532010	2535.355066
511.896561	2533.961187
512.261053	2541.661549
512.625488	2537.948739
512.989866	2538.231044
513.354186	2540.612989
513.718449	2539.072917
514.082655	2547.642878
514.446803	2549.074566
514.810894	2552.169834
515.174927	2552.794937
515.538904	2552.381563
515.902822	2555.865000
516.266684	2555.040771
516.630488	2552.578168
516.994235	2553.445246
517.357925	2556.308622
517.721558	2558.995557
518.085133	2561.153170
518.448651	2560.212995
518.812112	2555.630586
519.175516	2556.969013
519.538863	2559.235011
519.902152	2559.454302
520.265385	2558.060422
520.628560	2558.524209
520.991678	2555.905329
521.354739	2558.859445
521.717743	2556.081770
522.080690	2558.546894
522.443580	2553.236038
522.806413	2551.917777
523.169189	2547.088351
523.531908	2547.592467
523.894569	2547.940306
524.257174	2542.256405
524.619722	2543.015099
524.982213	2543.045346
525.344647	2536.459078
525.707025	2534.409849
526.069345	2533.220137
526.431608	2532.945394
526.793815	2527.853829
527.155964	2525.749147
527.518057	2521.106244
527.880093	2519.979546
528.242072	2520.619773
528.603995	2514.623320
528.965860	2512.823628
529.327669	2510.421519
529.689421	2509.312465
530.051117	2506.033194
530.412755	2501.302071
530.774337	2500.019098
531.135862	2496.666730
531.497331	2493.468118
531.858743	2490.461070
532.220098	2489.430154
532.581396	2487.753970
532.942638	2480.676190
533.303824	2481.875985
533.664953	2482.143166
534.026025	2480.282980
534.387040	2479.007568
534.747999	2477.754842
535.108902	2476.355922
535.469748	2474.846096
535.830537	2471.954994
536.191270	2469.341156
536.551947	2470.039356
536.912567	2465.056175
537.273131	2466.364355
537.633638	2461.350927
537.994089	2463.541308
538.354483	2459.634414
538.714821	2460.438478
539.075103	2461.056020
539.435328	2459.916719
539.795497	2459.957048
540.155609	2456.511419
540.515665	2457.131481
540.875665	2455.243569
541.235609	2454.449588
541.595496	2455.576285
541.955328	2453.020420
542.315102	2453.106120
542.674821	2450.930862
543.034483	2452.118054
543.394090	2450.487241
543.753640	2448.697631
544.113134	2451.752570
544.472571	2451.208126
544.831953	2449.937755
545.191278	2449.181582
545.550548	2448.657302
545.909761	2450.124278
546.268918	2448.760645
546.628019	2451.432457
546.987064	2449.461366
547.346053	2444.137907
547.704986	2446.731581
548.063863	2448.112857
548.422684	2447.200408
548.781449	2447.097065
549.140158	2446.371138
549.498811	2447.139914
549.857408	2445.267126
550.215949	2445.642692
550.574434	2443.227979
550.932864	2444.979780
551.291237	2440.344439
551.649555	2443.492640
552.007817	2445.395675
552.366022	2447.560851
552.724173	2442.539862
553.082267	2443.885850
553.440305	2448.306942
553.798288	2448.276695
554.156215	2444.553802
554.514086	2444.417691
554.871902	2443.127156
555.229661	2445.065480
555.587365	2443.732094
555.945014	2445.612445
556.302606	2443.716971
556.660143	2445.657815
557.017625	2445.214194
557.375050	2443.069183
557.732421	2443.462393
558.089735	2444.452979
558.446994	2443.749738
558.804197	2443.669080
559.161345	2444.929368
559.518437	2441.277052
559.875474	2439.895776
560.232455	2441.640016
560.589381	2441.899635
560.946251	2446.625717
561.303065	2443.679162
561.659825	2442.232351
562.016528	2445.279729
562.373177	2444.130346
562.729770	2441.937444
563.086307	2444.664708
563.442789	2441.294697
563.799216	2439.041301
564.155587	2443.908535
564.511904	2442.050870
564.868164	2444.505912
565.224370	2443.747218
565.580520	2442.285283
565.936615	2441.108174
566.292654	2443.331323
566.648638	2441.682865
567.004567	2443.288473
567.360441	2443.590942
567.716260	2442.698658
568.072023	2442.068514
568.427732	2440.324274
568.783385	2439.822680
569.138982	2438.489294
569.494525	2435.693975
569.850013	2440.568770
570.205445	2442.441559
570.560823	2437.944850
570.916145	2441.123297
571.271412	2441.151024
571.626625	2442.819646
571.981782	2441.763524
572.336884	2440.558688
572.691931	2439.328647
573.046923	2441.123297
573.401860	2437.995261
573.756743	2440.387289
574.111570	2440.813266
574.466342	2440.833431
574.821059	2439.099274
575.175722	2440.142793
575.530330	2439.225303
575.884882	2438.854778
576.239380	2437.639860
576.593823	2439.547937
576.948211	2438.829572
577.302544	2438.383430
577.656823	2437.775971
578.011047	2440.851075
578.365216	2439.739501
578.719330	2438.360745
579.073389	2437.115580
579.427394	2439.268153
579.781344	2437.876794
580.135239	2439.628595
580.489080	2434.143820
580.842866	2436.868563
581.196597	2437.859150
581.550273	2437.781012
581.903895	2435.792277
582.257463	2436.813111
582.610975	2435.419232
582.964434	2436.520724
583.317837	2434.937802
583.671186	2436.452668
584.024481	2434.622729
584.377721	2438.612803
584.730906	2437.644901
585.084037	2435.923347
585.437113	2436.704726
585.790135	2436.092226
586.143103	2434.448810
586.496016	2439.147165
586.848874	2430.370516
587.201679	2435.247833
587.554428	2429.599220
587.907124	2435.121804
588.259765	2432.777667
588.612352	2437.443255
588.964884	2431.998809
589.317362	2435.026022
589.669786	2434.663059
590.022155	2434.335384
590.374470	2435.903183
590.726731	2432.339087
591.078937	2434.428645
591.431090	2433.415373
591.783188	2433.543923
592.135232	2433.117945
592.487222	2433.150712
592.839157	2431.550146
593.191038	2435.121804
593.542866	2432.840682
593.894639	2432.661721
594.246358	2431.708943
594.598022	2433.017122
594.949633	2430.126020
595.301190	2433.001998
595.652692	2430.161308
596.004141	2434.605085
596.355535	2433.148192
596.706876	2431.275403
597.058162	2430.980496
597.409395	2431.840012
597.760573	2431.411514
598.111698	2431.842533
598.462768	2428.147367
598.813785	2432.409663
599.164748	2428.830444
599.515657	2429.669796
599.866511	2429.972265
600.217312	2430.670465
600.568060	2430.065526
600.918753	2431.204827
601.269392	2431.734148
601.619978	2429.334559
601.970510	2428.182655
602.320988	2432.664241
602.671412	2429.997471
603.021783	2428.654003
603.372100	2432.908737
603.722363	2430.030238
604.072572	2430.557039
604.422728	2432.185332
604.772830	2426.388005
605.122878	2426.753488
605.472872	2428.086873
605.822813	2425.465473
606.172701	2432.238264
606.522534	2425.914136
606.872314	2432.218099
607.222041	2426.761050
607.571714	2430.458736
607.921333	2429.417738
608.270899	2430.988058
608.620411	2427.877666
608.969870	2428.742223
609.319276	2431.202307
609.668627	2432.268511
610.017926	2428.936308
610.367171	2431.038469
610.716362	2430.851946
611.065500	2430.252049
611.414585	2429.410176
611.763616	2429.188366
612.112594	2430.025197
612.461518	2428.306164
612.810389	2429.198448
613.159207	2429.548808
613.507971	2430.138623
613.856682	2429.024528
614.205340	2428.575865
614.553945	2431.280444
614.902496	2429.924374
615.250994	2429.248859
615.599439	2429.364806
615.947830	2428.885896
616.296169	2431.509817
616.644454	2432.543253
616.992686	2430.766247
617.340864	2430.491504
617.688990	2429.500917
618.037063	2432.626432
618.385082	2426.619898
618.733048	2430.209199
619.080961	2428.616195
619.428821	2429.861360
619.776628	2427.865063
620.124382	2428.742223
620.472083	2431.086360
620.819731	2429.601740
621.167326	2429.773139
621.514868	2431.744231
621.862357	2430.446133
622.209793	2431.174580
622.557176	2428.069229
622.904506	2427.444126
623.251783	2425.137798
623.599007	2428.031421
623.946179	2420.144536
624.293297	2427.857501
624.640363	2424.351378
624.987376	2427.784404
625.334336	2429.137954
625.681243	2429.256421
626.028097	2426.050247
626.374899	2425.029414
626.721647	2428.094435
627.068343	2427.829775
627.414987	2427.396235
627.761577	2426.574527
628.108115	2426.307346
628.454600	2424.842891
628.801032	2425.205854
629.147412	2426.803900
629.493739	2426.985381
629.840014	2424.830288
630.186236	2427.708787
630.532405	2427.570155
630.878521	2424.288364
631.224585	2423.401121
631.570597	2424.734506
631.916556	2425.931780
632.262462	2423.212078
632.608316	2423.693508
632.954117	2423.474218
633.299866	2427.708787
633.645562	2424.270720
633.991206	2421.150246
634.336797	2424.691656
634.682336	2423.509506
635.027823	2423.839701
635.373257	2422.160997
635.718639	2422.133271
636.063968	2424.318611
636.409245	2421.515729
636.754470	2423.244845
637.099642	2422.435740
637.444762	2423.043199
637.789829	2418.677560
638.134845	2424.749630
638.479808	2421.949269
638.824719	2421.314083
639.169577	2422.065215
639.514383	2422.581933
639.859137	2421.031779
640.203839	2421.677046
640.548489	2423.280133
640.893086	2417.394586
641.237632	2418.823753
641.582125	2418.382652
641.926566	2412.275294
642.270955	2420.197468
642.615292	2423.305339
642.959576	2421.830802
643.303809	2421.891295
643.647990	2419.668147
643.992118	2419.980698
644.336195	2419.257292
