Dividing Wavelength (nm)	Counts (n)	Blue Motor Position (mm): 0.000000	Red Motor Position (mm): 2.400000	
326.493990	1975.479478
326.888308	1975.479478
327.282561	1975.479478
327.676750	1949.396548
328.070874	1950.926538
328.464933	1956.910388
328.858929	1967.527058
329.252859	1979.545169
329.646726	1992.327014
330.040528	2008.478871
330.434265	2028.852695
330.827938	2044.830632
331.221547	2067.029353
331.615091	2087.725810
332.008571	2107.529983
332.401986	2126.194855
332.795338	2147.627320
333.188625	2166.977789
333.581847	2186.222394
333.975006	2203.780733
334.368100	2221.674309
334.761129	2240.369428
335.154095	2254.557755
335.546996	2271.246495
335.939833	2285.669236
336.332606	2297.757923
336.725315	2306.562298
337.117960	2316.057312
337.510540	2321.040492
337.903056	2330.863180
338.295508	2336.723522
338.687896	2345.474965
339.080220	2350.513598
339.472480	2354.702797
339.864676	2359.348220
340.256807	2361.268900
340.648875	2364.011288
341.040879	2363.350896
341.432818	2365.175794
341.824694	2366.405836
342.216506	2367.509848
342.608253	2365.964735
342.999937	2366.055475
343.391557	2365.500948
343.783113	2363.769312
344.174605	2362.070443
344.566033	2360.192613
344.957397	2358.753364
345.348697	2358.289578
345.739934	2359.073477
346.131106	2353.813033
346.522215	2351.630214
346.913260	2346.463031
347.304241	2348.184585
347.695159	2348.250120
348.086012	2348.282888
348.476802	2343.350118
348.867528	2343.382886
349.258191	2342.364573
349.648789	2340.416167
350.039324	2341.691579
350.429796	2340.300220
350.820203	2339.281907
351.210548	2337.525065
351.600828	2336.229489
351.991045	2337.136896
352.381198	2339.309634
352.771288	2336.935250
353.161314	2333.661021
353.551276	2334.860815
353.941175	2335.425425
354.331010	2337.653615
354.720782	2337.567915
355.110490	2336.005157
355.500135	2336.562205
355.889717	2338.054386
356.279235	2337.368789
356.668689	2337.018429
357.058080	2337.819973
357.447408	2339.097905
357.836672	2336.751248
358.225873	2337.653615
358.615010	2338.074551
359.004084	2339.899449
359.393095	2339.937257
359.782043	2342.188133
360.170927	2343.145952
360.559748	2343.342557
360.948505	2341.081599
361.337199	2343.203925
361.725830	2344.789368
362.114398	2345.812722
362.502903	2342.117556
362.891344	2344.726353
363.279722	2345.926148
363.668037	2345.079234
364.056289	2347.007476
364.444478	2345.182578
364.832603	2344.885150
365.220665	2346.578978
365.608665	2347.158710
365.996601	2346.994873
366.384474	2345.679132
366.772284	2348.114009
367.160031	2346.682321
367.547715	2350.057374
367.935336	2349.868330
368.322893	2347.680470
368.710388	2347.050325
369.097820	2350.601818
369.485189	2349.412106
369.872495	2351.877230
370.259738	2352.388907
370.646918	2355.259844
371.034035	2353.792869
371.421090	2354.796058
371.808081	2356.898219
372.195010	2359.312932
372.581875	2361.389888
372.968678	2363.028262
373.355418	2367.484643
373.742096	2371.439428
374.128710	2373.128214
374.515262	2377.849255
374.901751	2382.204812
375.288177	2385.486603
375.674540	2392.314846
376.060841	2397.892882
376.447079	2405.068965
376.833254	2406.858575
377.219367	2412.214801
377.605417	2422.523960
377.991404	2424.379105
378.377329	2434.088367
378.763191	2436.397216
379.148991	2446.103957
379.534727	2457.300360
379.920402	2460.151133
380.306013	2465.310753
380.691563	2473.880715
381.077049	2482.606952
381.462474	2488.802530
381.847835	2493.238746
382.233134	2501.720487
382.618371	2505.985303
383.003545	2511.472599
383.388657	2519.616583
383.773706	2526.588499
384.158693	2529.683767
384.543618	2534.939170
384.928480	2537.724408
385.313280	2540.993596
385.698017	2546.337219
386.082692	2554.420709
386.467305	2550.100441
386.851856	2555.244938
387.236344	2562.100907
387.620770	2557.480690
388.005133	2561.538819
388.389435	2564.006463
388.773674	2562.594940
389.157851	2563.976217
389.541965	2564.402194
389.926018	2556.217881
390.310008	2555.804506
390.693936	2557.546225
391.077802	2553.467931
391.461606	2551.842159
391.845348	2545.843186
392.229027	2544.396375
392.612645	2540.723894
392.996200	2534.805580
393.379694	2535.211393
393.763125	2534.422452
394.146494	2526.107069
394.529801	2518.691532
394.913047	2513.819256
395.296230	2505.277021
395.679351	2494.698160
396.062410	2490.899650
396.445408	2481.737353
396.828343	2468.350569
397.211217	2460.433437
397.594028	2452.569237
397.976778	2442.824687
398.359466	2441.340067
398.742092	2435.114242
399.124656	2431.736669
399.507158	2424.706780
399.889598	2420.696542
400.271977	2414.377456
400.654294	2410.778072
401.036549	2405.600807
401.418742	2399.596793
401.800874	2398.303737
402.182944	2397.426576
402.564952	2392.766029
402.946898	2388.549104
403.328783	2387.258568
403.710606	2385.398383
404.092367	2384.337220
404.474067	2381.882178
404.855705	2378.106354
405.237282	2378.091230
405.618797	2380.359749
406.000250	2379.853113
406.381642	2377.713144
406.762972	2377.965201
407.144240	2376.442773
407.525447	2378.338247
407.906593	2374.985879
408.287677	2375.391692
408.668700	2374.491846
409.049661	2375.986548
409.430560	2375.293390
409.811399	2374.922865
410.192176	2378.610469
410.572891	2375.847917
410.953545	2376.717516
411.334138	2373.113091
411.714669	2373.758358
412.095139	2374.461599
412.475547	2377.783720
412.855894	2376.856148
413.236180	2375.036291
413.616405	2376.278935
413.996568	2374.338091
414.376670	2377.516539
414.756711	2375.290869
415.136691	2376.001672
415.516609	2374.012937
415.896466	2373.753317
416.276262	2374.973277
416.655997	2373.493698
417.035670	2370.521938
417.415283	2375.096785
417.794834	2372.636702
418.174324	2379.442259
418.553753	2376.271374
418.933121	2376.233565
419.312428	2377.755993
419.691674	2377.738349
420.070859	2377.224152
420.449983	2378.721374
420.829045	2378.181971
421.208047	2376.644419
421.586988	2376.520911
421.965867	2378.272712
422.344686	2376.896477
422.723444	2378.860006
423.102141	2377.221631
423.480777	2381.688093
423.859352	2375.452186
424.237866	2377.635006
424.616319	2377.574512
424.994712	2378.275232
425.373044	2380.226159
425.751314	2373.947402
426.129524	2381.869575
426.507673	2378.368494
426.885762	2377.277084
427.263789	2381.342774
427.641756	2378.000489
428.019662	2377.377907
428.397508	2378.055942
428.775292	2381.115923
429.153016	2378.562578
429.530679	2382.434184
429.908282	2378.489481
430.285824	2379.943854
430.663305	2379.031405
431.040726	2379.006200
431.418086	2380.415202
431.795385	2380.435367
432.172624	2380.362270
432.549802	2383.573485
432.926920	2381.935110
433.303977	2381.068032
433.680974	2383.598691
434.057910	2379.361601
434.434786	2383.744884
434.811601	2382.925697
435.188355	2379.578371
435.565050	2383.031561
435.941683	2383.124822
436.318257	2379.601056
436.694770	2377.176261
437.071222	2379.883360
437.447614	2379.701879
437.823946	2377.894625
438.200218	2382.187168
438.576429	2380.342105
438.952580	2383.659185
439.328670	2379.679194
439.704700	2383.636499
440.080670	2380.989894
440.456580	2383.094575
440.832429	2384.004504
441.208218	2383.611294
441.583947	2384.712786
441.959616	2384.077600
442.335224	2382.734133
442.710773	2383.961654
443.086261	2382.839997
443.461689	2384.274205
443.837057	2384.513660
444.212365	2386.852756
444.587612	2386.071377
444.962800	2386.625904
445.337927	2382.655995
445.712995	2385.257230
446.088002	2386.353681
446.462949	2386.714124
446.837837	2385.252189
447.212664	2383.500388
447.587431	2387.487941
447.962139	2386.762015
448.336786	2390.139588
448.711374	2386.686398
449.085901	2384.889226
449.460369	2385.070708
449.834776	2387.959289
450.209124	2387.487941
450.583412	2384.415358
450.957640	2384.007024
451.331808	2388.738147
451.705917	2386.338558
452.079965	2386.041130
452.453954	2387.964330
452.827883	2387.336706
453.201752	2386.860317
453.575562	2386.958620
453.949311	2386.368805
454.323001	2386.517519
454.696632	2385.776469
455.070202	2388.760832
455.443713	2388.201264
455.817164	2385.617673
456.190556	2384.493496
456.563888	2382.489637
456.937160	2382.661036
457.310373	2386.363764
457.683526	2386.121788
458.056619	2385.577344
458.429653	2386.514998
458.802628	2389.748898
459.175542	2390.041285
459.548398	2388.075235
459.921194	2388.324773
460.293930	2388.072715
460.666607	2392.942469
461.039224	2390.565565
461.411782	2390.941131
461.784280	2392.423231
462.156719	2389.053219
462.529099	2391.629249
462.901419	2388.294526
463.273680	2390.769732
463.645882	2388.100441
464.018024	2389.403579
464.390106	2389.075904
464.762130	2390.893240
465.134094	2388.420554
465.505999	2390.021121
465.877845	2392.115720
466.249631	2392.781153
466.621358	2390.731923
466.993026	2393.940618
467.364634	2394.520351
467.736184	2391.732593
468.107674	2389.257386
468.479105	2392.372819
468.850477	2392.982799
469.221790	2390.694115
469.593043	2390.318549
469.964238	2392.899620
470.335373	2387.298898
470.706449	2389.111193
471.077467	2393.146636
471.448425	2393.134033
471.819324	2391.407438
472.190164	2393.625546
472.560945	2388.927190
472.931667	2390.197561
473.302330	2392.778632
473.672934	2390.426934
474.043479	2390.719321
474.413965	2391.548590
474.784393	2385.146325
475.154761	2388.261758
475.525070	2385.418547
475.895321	2388.123126
476.265513	2388.034906
476.635645	2391.160422
477.005719	2389.275030
477.375734	2390.868035
477.745691	2394.056564
478.115588	2392.317366
478.485427	2390.578168
478.855207	2391.823333
479.224928	2393.680998
479.594591	2392.145967
479.964194	2394.061606
480.333739	2394.371637
480.703226	2391.868704
481.072653	2395.954559
481.442022	2395.077398
481.811333	2396.647717
482.180584	2392.876934
482.549777	2393.514640
482.918912	2394.601009
483.287988	2392.392984
483.657005	2391.921636
484.025964	2391.319218
484.394864	2395.636966
484.763706	2394.583365
485.132489	2393.396173
485.501213	2394.724517
485.869879	2394.817779
486.238487	2395.745351
486.607036	2393.980947
486.975527	2396.529250
487.343959	2394.222923
487.712333	2394.608571
488.080648	2395.233674
488.448905	2392.047665
488.817104	2393.257542
489.185244	2393.965824
489.553326	2395.147974
489.921350	2397.855074
490.289315	2393.426420
490.657222	2397.204765
491.025070	2393.645710
491.392861	2398.102090
491.760593	2394.129661
492.128267	2394.290978
492.495883	2394.752244
492.863440	2396.004970
493.230939	2393.197048
493.598380	2392.718138
493.965763	2392.413148
494.333088	2392.425751
494.700354	2391.036913
495.067563	2391.646893
495.434713	2390.444578
495.801805	2391.344424
496.168839	2396.730897
496.535815	2396.904816
496.902733	2396.010012
497.269593	2396.113355
497.636395	2396.887172
498.003139	2393.126472
498.369825	2395.702501
498.736453	2397.950856
499.103023	2395.586555
499.469535	2395.730228
499.835989	2395.878942
500.202385	2394.674106
500.568723	2395.679816
500.935003	2398.757440
501.301226	2398.570918
501.667390	2396.123438
502.033497	2395.780639
502.399546	2399.327091
502.765537	2394.308622
503.131470	2398.011350
503.497345	2397.713922
503.863163	2400.693243
504.228923	2396.410783
504.594625	2399.531258
504.960269	2398.412121
505.325856	2398.477656
505.691385	2401.149468
506.056856	2403.455796
506.422270	2400.080743
506.787625	2400.163922
507.152924	2400.738614
507.518164	2400.000085
507.883347	2399.075033
508.248472	2399.866494
508.613540	2402.185425
508.978550	2402.518141
509.343503	2401.656104
509.708398	2401.368758
510.073236	2402.717267
510.438016	2401.041083
510.802738	2401.071330
511.167403	2401.351114
511.532010	2401.812380
511.896561	2401.431772
512.261053	2399.309447
512.625488	2395.609240
512.989866	2395.024466
513.354186	2397.058572
513.718449	2395.546225
514.082655	2401.275497
514.446803	2401.081412
514.810894	2399.087636
515.174927	2399.165774
515.538904	2396.972872
515.902822	2401.827503
516.266684	2398.928840
516.630488	2398.528068
516.994235	2395.662172
517.357925	2398.399518
517.721558	2398.782646
518.085133	2397.232491
518.448651	2397.139230
518.812112	2395.949518
519.175516	2395.798283
519.538863	2396.922460
519.902152	2395.236194
520.265385	2395.919271
520.628560	2399.178377
520.991678	2393.665875
521.354739	2397.902965
521.717743	2394.797614
522.080690	2396.035217
522.443580	2398.293654
522.806413	2394.636297
523.169189	2396.612429
523.531908	2397.300547
523.894569	2394.197717
524.257174	2395.137892
524.619722	2395.931874
524.982213	2398.777605
525.344647	2392.919784
525.707025	2396.093191
526.069345	2393.512120
526.431608	2392.304763
526.793815	2394.583365
527.155964	2392.327449
527.518057	2396.458674
527.880093	2395.483211
528.242072	2395.188303
528.603995	2396.733417
528.965860	2395.483211
529.327669	2394.137223
529.689421	2396.015053
530.051117	2395.737789
530.412755	2395.049672
530.774337	2396.821637
531.135862	2396.854405
531.497331	2395.667213
531.858743	2393.363406
532.220098	2394.837943
532.581396	2391.485576
532.942638	2393.290309
533.303824	2394.699312
533.664953	2395.515978
534.026025	2393.224774
534.387040	2394.361554
534.747999	2395.447923
535.108902	2393.302912
535.469748	2395.878942
535.830537	2397.499672
536.191270	2392.947511
536.551947	2398.084446
536.912567	2395.137892
537.273131	2393.643190
537.633638	2395.210989
537.994089	2395.568911
538.354483	2396.534292
538.714821	2396.478839
539.075103	2397.116545
539.435328	2395.780639
539.795497	2395.873900
540.155609	2394.986657
540.515665	2396.677964
540.875665	2395.442882
541.235609	2394.348951
541.595496	2395.584034
541.955328	2393.030690
542.315102	2395.374826
542.674821	2396.234343
543.034483	2396.632594
543.394090	2396.090670
543.753640	2397.981103
544.113134	2398.084446
544.472571	2395.115207
544.831953	2395.367264
545.191278	2395.062275
545.550548	2396.015053
545.909761	2396.022614
546.268918	2396.264590
546.628019	2393.703684
546.987064	2392.955072
547.346053	2395.856256
547.704986	2394.689229
548.063863	2395.644528
548.422684	2394.981616
548.781449	2395.347100
549.140158	2394.681667
549.498811	2398.031514
549.857408	2394.127141
550.215949	2395.896586
550.574434	2389.527088
550.932864	2394.056564
551.291237	2392.783673
551.649555	2394.207799
552.007817	2394.885834
552.366022	2392.196379
552.724173	2396.511606
553.082267	2395.301729
553.440305	2395.316853
553.798288	2396.257028
554.156215	2395.962121
554.514086	2395.447923
554.871902	2396.315001
555.229661	2394.432130
555.587365	2396.425907
555.945014	2398.059241
556.302606	2392.256873
556.660143	2399.178377
557.017625	2397.577810
557.375050	2395.092522
557.732421	2396.861967
558.089735	2397.381205
558.446994	2395.127810
558.804197	2396.922460
559.161345	2399.511093
559.518437	2396.012532
559.875474	2395.019425
560.232455	2397.681154
560.589381	2396.796432
560.946251	2397.287944
561.303065	2394.583365
561.659825	2396.688047
562.016528	2398.641494
562.373177	2397.910527
562.729770	2392.907181
563.086307	2395.271483
563.442789	2393.116389
563.799216	2395.581513
564.155587	2393.663354
564.511904	2398.273490
564.868164	2396.496483
565.224370	2393.255021
565.580520	2395.720145
565.936615	2399.024622
566.292654	2396.846843
566.648638	2396.251987
567.004567	2397.686195
567.360441	2396.546894
567.716260	2396.667882
568.072023	2395.233674
568.427732	2388.838970
568.783385	2394.976575
569.138982	2391.687222
569.494525	2393.693601
569.850013	2392.332490
570.205445	2398.006308
570.560823	2393.928015
570.916145	2395.473129
571.271412	2394.643859
571.626625	2394.626215
571.981782	2397.381205
572.336884	2397.174518
572.691931	2396.536812
573.046923	2396.932543
573.401860	2396.128479
573.756743	2397.202244
574.111570	2393.996071
574.466342	2398.034035
574.821059	2393.426420
575.175722	2395.205948
575.530330	2396.315001
575.884882	2396.264590
576.239380	2395.667213
576.593823	2396.965310
576.948211	2393.975906
577.302544	2397.986144
577.656823	2398.457492
578.011047	2397.671072
578.365216	2393.875083
578.719330	2396.216699
579.073389	2396.967831
579.427394	2398.543191
579.781344	2397.051010
580.135239	2395.309291
580.489080	2396.998078
580.842866	2394.301060
581.196597	2393.280227
581.550273	2394.764847
581.903895	2394.021276
582.257463	2397.058572
582.610975	2396.589744
582.964434	2395.727707
583.317837	2397.587893
583.671186	2397.179559
584.024481	2395.619322
584.377721	2394.911040
584.730906	2397.592934
585.084037	2395.515978
585.437113	2393.978427
585.790135	2396.120917
586.143103	2397.398849
586.496016	2394.303581
586.848874	2391.072201
587.201679	2395.465567
587.554428	2392.498848
587.907124	2393.731410
588.259765	2388.042468
588.612352	2394.096894
588.964884	2395.468088
589.317362	2397.456823
589.669786	2395.044631
590.022155	2395.745351
590.374470	2392.874414
590.726731	2394.348951
591.078937	2394.921122
591.431090	2397.108983
591.783188	2394.696791
592.135232	2390.026162
592.487222	2396.559497
592.839157	2396.113355
593.191038	2395.062275
593.542866	2395.011863
593.894639	2393.381050
594.246358	2396.708211
594.598022	2395.826009
594.949633	2394.792573
595.301190	2393.590258
595.652692	2396.214178
596.004141	2394.444733
596.355535	2394.810217
596.706876	2394.903478
597.058162	2395.190824
597.409395	2396.967831
597.760573	2396.297357
598.111698	2394.880793
598.462768	2395.203427
598.813785	2395.841133
599.164748	2397.043448
599.515657	2394.618653
599.866511	2396.347769
600.217312	2395.949518
600.568060	2395.435320
600.918753	2398.807852
601.269392	2394.956410
601.619978	2392.738303
601.970510	2392.110679
602.320988	2394.142264
602.671412	2394.114538
603.021783	2394.696791
603.372100	2395.762995
603.722363	2394.946328
604.072572	2393.983468
604.422728	2396.821637
604.772830	2394.941287
605.122878	2393.771739
605.472872	2392.110679
605.822813	2392.302243
606.172701	2395.848695
606.522534	2393.940618
606.872314	2394.830382
607.222041	2394.694270
607.571714	2395.463046
607.921333	2395.319373
608.270899	2396.262069
608.620411	2393.766698
608.969870	2395.717625
609.319276	2395.979765
609.668627	2396.315001
610.017926	2395.256359
610.367171	2394.411966
610.716362	2395.727707
611.065500	2395.236194
611.414585	2394.149826
611.763616	2396.849364
612.112594	2398.964128
612.461518	2393.272665
612.810389	2393.922974
613.159207	2399.047307
613.507971	2393.431461
613.856682	2395.994888
614.205340	2394.956410
614.553945	2394.767367
614.902496	2396.821637
615.250994	2394.805176
615.599439	2392.844167
615.947830	2394.401883
616.296169	2394.096894
616.644454	2395.107645
616.992686	2395.420197
617.340864	2395.730228
617.688990	2395.160577
618.037063	2393.433982
618.385082	2396.546894
618.733048	2393.998591
619.080961	2394.921122
619.428821	2394.686709
619.776628	2396.289796
620.124382	2396.504045
620.472083	2393.431461
620.819731	2393.617984
621.167326	2394.394322
621.514868	2396.010012
621.862357	2395.296688
622.209793	2393.554970
622.557176	2395.672254
622.904506	2392.773591
623.251783	2389.141439
623.599007	2391.805689
623.946179	2388.798641
624.293297	2393.312994
624.640363	2395.102604
624.987376	2394.356513
625.334336	2395.140413
625.681243	2394.961452
626.028097	2392.869373
626.374899	2394.590927
626.721647	2394.517830
627.068343	2392.985319
627.414987	2395.886503
627.761577	2396.751061
628.108115	2396.398180
628.454600	2394.164949
628.801032	2395.543705
629.147412	2394.842984
629.493739	2395.969682
629.840014	2395.513458
630.186236	2395.057233
630.532405	2397.555125
630.878521	2394.091853
631.224585	2394.467418
631.570597	2394.908519
631.916556	2394.051523
632.262462	2396.267110
632.608316	2392.070350
632.954117	2394.399363
633.299866	2393.832233
633.645562	2391.291492
633.991206	2395.536143
634.336797	2393.307953
634.682336	2396.287275
635.027823	2394.653941
635.373257	2394.729558
635.718639	2392.466080
636.063968	2396.037738
636.409245	2392.468601
636.754470	2394.590927
637.099642	2393.665875
637.444762	2395.011863
637.789829	2395.952038
638.134845	2394.646379
638.479808	2395.188303
638.824719	2396.347769
639.169577	2396.614950
639.514383	2393.827192
639.859137	2394.986657
640.203839	2394.285937
640.548489	2397.280382
640.893086	2394.502707
641.237632	2389.247304
641.582125	2391.954403
641.926566	2389.456512
642.270955	2393.060937
642.615292	2393.423900
642.959576	2394.729558
643.303809	2391.296533
643.647990	2394.056564
643.992118	2392.997922
644.336195	2393.693601
