Dividing Wavelength (nm)	Counts (n)	Blue Motor Position (mm): 0.000000	Red Motor Position (mm): 15.200000	
326.493990	1982.670684
326.888308	1982.670684
327.282561	1982.670684
327.676750	1955.340069
328.070874	1959.564556
328.464933	1964.310802
328.858929	1975.396299
329.252859	1987.643782
329.646726	2000.191214
330.040528	2016.615294
330.434265	2033.878725
330.827938	2057.098280
331.221547	2074.704509
331.615091	2095.406008
332.008571	2114.854779
332.401986	2135.316823
332.795338	2155.418424
333.188625	2176.066990
333.581847	2193.096008
333.975006	2214.173072
334.368100	2230.849209
334.761129	2249.846797
335.154095	2264.433376
335.546996	2278.374687
335.939833	2295.053344
336.332606	2306.436269
336.725315	2317.216777
337.117960	2328.317398
337.510540	2332.851916
337.903056	2343.435818
338.295508	2350.541324
338.687896	2357.593899
339.080220	2364.026411
339.472480	2367.454396
339.864676	2371.842720
340.256807	2374.690972
340.648875	2376.778010
341.040879	2378.010572
341.432818	2377.990407
341.824694	2381.660367
342.216506	2378.328164
342.608253	2380.412682
342.999937	2379.434698
343.391557	2377.687938
343.783113	2376.283977
344.174605	2374.496888
344.566033	2376.266333
344.957397	2373.889428
345.348697	2371.560415
345.739934	2368.457585
346.131106	2365.632018
346.522215	2364.568335
346.913260	2364.369209
347.304241	2363.897862
347.695159	2361.793180
348.086012	2359.224712
348.476802	2358.148426
348.867528	2357.881244
349.258191	2353.016531
349.648789	2353.661799
350.039324	2355.496779
350.429796	2354.745647
350.820203	2350.553927
351.210548	2352.330934
351.600828	2351.826819
351.991045	2350.800944
352.381198	2352.036027
352.771288	2352.008300
353.161314	2350.337158
353.551276	2349.429750
353.941175	2350.294308
354.331010	2352.555265
354.720782	2354.324710
355.110490	2348.708865
355.500135	2352.751870
355.889717	2352.197343
356.279235	2354.402848
356.668689	2353.697087
357.058080	2353.520646
357.447408	2350.402693
357.836672	2350.349761
358.225873	2355.050637
358.615010	2353.860924
359.004084	2357.908971
359.393095	2358.702953
359.782043	2359.688498
360.170927	2356.608353
360.559748	2358.478621
360.948505	2362.322501
361.337199	2360.540453
361.725830	2359.456605
362.114398	2365.536237
362.502903	2361.523478
362.891344	2364.396936
363.279722	2362.950125
363.668037	2366.446165
364.056289	2366.161340
364.444478	2366.821731
364.832603	2366.516741
365.220665	2368.800384
365.608665	2370.897504
365.996601	2368.064375
366.384474	2370.143851
366.772284	2370.479088
367.160031	2372.185518
367.547715	2370.221989
367.935336	2372.939171
368.322893	2372.659387
368.710388	2376.102495
369.097820	2379.099461
369.485189	2375.802546
369.872495	2376.586446
370.259738	2380.211035
370.646918	2382.537528
371.034035	2383.195398
371.421090	2386.905688
371.808081	2387.979453
372.195010	2394.308622
372.581875	2399.044786
372.968678	2405.825138
373.355418	2411.864440
373.742096	2422.332396
374.128710	2431.109045
374.515262	2443.623710
374.901751	2456.370267
375.288177	2472.368369
375.674540	2490.897130
376.060841	2512.397651
376.447079	2534.929088
376.833254	2560.205433
377.219367	2584.728126
377.605417	2620.890843
377.991404	2644.768269
378.377329	2686.269568
378.763191	2720.647716
379.148991	2766.665889
379.534727	2812.162303
379.920402	2858.843387
380.306013	2904.543968
380.691563	2964.231229
381.077049	3022.675846
381.462474	3075.698702
381.847835	3150.007831
382.233134	3220.347050
382.618371	3276.999537
383.003545	3364.355172
383.388657	3440.118673
383.773706	3530.378012
384.158693	3602.728652
384.543618	3696.284905
384.928480	3773.782563
385.313280	3875.918861
385.698017	3979.829645
386.082692	4094.031944
386.467305	4156.433867
386.851856	4280.466416
387.236344	4433.949386
387.620770	4500.290971
388.005133	4614.924288
388.389435	4760.792596
388.773674	4842.424000
389.157851	4970.459225
389.541965	5098.799440
389.926018	5122.056804
390.310008	5300.168331
390.693936	5416.944139
391.077802	5534.513929
391.461606	5663.138969
391.845348	5778.510816
392.229027	5898.018930
392.612645	6118.713084
392.996200	6230.200722
393.379694	6404.168420
393.763125	6617.855370
394.146494	6706.912394
394.529801	6840.805440
394.913047	7079.025165
395.296230	7073.497540
395.679351	7129.227496
396.062410	7379.931638
396.445408	7275.355422
396.828343	7420.170128
397.211217	7561.297230
397.594028	7438.643436
397.976778	7638.646174
398.359466	7803.151627
398.742092	7773.033253
399.124656	7910.344202
399.507158	8097.973427
399.889598	8110.825849
400.271977	8314.753125
400.654294	8342.033329
401.036549	8530.348152
401.418742	8548.912201
401.800874	8841.969597
402.182944	8910.937623
402.564952	9259.747660
402.946898	9078.223272
403.328783	9121.660374
403.710606	9299.736613
404.092367	9535.592037
404.474067	9865.648982
404.855705	9643.112287
405.237282	9569.513961
405.618797	9956.369587
406.000250	10162.270475
406.381642	10479.830399
406.762972	10394.738243
407.144240	10165.748871
407.525447	10357.968067
407.906593	10254.266491
408.287677	10442.724987
408.668700	10522.922183
409.049661	10443.765985
409.430560	10524.626092
409.811399	10425.769066
410.192176	10499.417803
410.572891	10483.777623
410.953545	10820.637605
411.334138	10282.864957
411.714669	10696.806702
412.095139	10028.596719
412.475547	10347.638743
412.855894	10124.436615
413.236180	10280.992168
413.616405	9923.733157
413.996568	10023.447180
414.376670	9890.925328
414.756711	9684.767341
415.136691	9770.724055
415.516609	9769.584755
415.896466	9699.096821
416.276262	9760.697200
416.655997	9923.607128
417.035670	9809.170415
417.415283	10093.209187
417.794834	9993.616152
418.174324	9680.321043
418.553753	9454.762176
418.933121	9596.738713
419.312428	9324.965068
419.691674	9104.883414
420.070859	9199.445378
420.449983	8845.027057
420.829045	8973.117735
421.208047	8677.612858
421.586988	8732.831137
421.965867	8689.799848
422.344686	8517.362139
422.723444	8594.353161
423.102141	7835.818304
423.480777	8192.933642
423.859352	7805.057183
424.237866	8088.987571
424.616319	7793.089484
424.994712	7872.633850
425.373044	7609.455373
425.751314	7673.208325
426.129524	7194.560849
426.507673	7377.494240
426.885762	7111.732171
427.263789	6993.474264
427.641756	6869.040943
428.019662	6720.228602
428.397508	6564.797226
428.775292	6480.917467
429.153016	6303.947761
429.530679	6164.839641
429.908282	6013.229460
430.285824	5807.177338
430.663305	5793.987159
431.040726	5570.981636
431.418086	5396.298093
431.795385	5374.253128
432.172624	5308.135874
432.549802	5104.760605
432.926920	4994.775231
433.303977	4856.269529
433.680974	4768.056898
434.057910	4688.562943
434.434786	4573.438113
434.811601	4450.025626
435.188355	4455.560813
435.565050	4312.923885
435.941683	4201.199313
436.318257	4180.253319
436.694770	4067.402049
437.071222	4022.240872
437.447614	3849.467927
437.823946	3765.199999
438.200218	3694.500337
438.576429	3597.947117
438.952580	3544.994837
439.328670	3474.395998
439.704700	3426.285747
440.080670	3343.794826
440.456580	3307.984989
440.832429	3261.704676
441.208218	3162.376302
441.583947	3130.806076
441.959616	3084.994590
442.335224	3048.226934
442.710773	3009.757889
443.086261	2984.539517
443.461689	2930.765529
443.837057	2897.168759
444.212365	2884.281050
444.587612	2849.224866
444.962800	2813.929227
445.337927	2794.425003
445.712995	2746.158475
446.088002	2757.969899
446.462949	2737.775037
446.837837	2724.589899
447.212664	2701.375385
447.587431	2723.354816
447.962139	2744.867940
448.336786	2756.041657
448.711374	2726.838253
449.085901	2672.766837
449.460369	2653.549959
449.834776	2641.920017
450.209124	2653.691111
450.583412	2641.511683
450.957640	2639.936323
451.331808	2619.801954
451.705917	2598.676999
452.079965	2592.604929
452.453954	2586.500092
452.827883	2583.077148
453.201752	2574.124059
453.575562	2570.834706
453.949311	2574.078689
454.323001	2571.177505
454.696632	2565.365054
455.070202	2571.384192
455.443713	2565.289437
455.817164	2564.548387
456.190556	2565.370096
456.563888	2559.126627
456.937160	2555.688560
457.310373	2547.166489
457.683526	2544.345963
458.056619	2542.521066
458.429653	2541.563247
458.802628	2542.495860
459.175542	2537.699202
459.548398	2543.758669
459.921194	2549.946685
460.293930	2550.390307
460.666607	2560.734755
461.039224	2568.334294
461.411782	2563.194838
461.784280	2559.487069
462.156719	2553.863662
462.529099	2551.698486
462.901419	2540.151723
463.273680	2532.158974
463.645882	2531.047400
464.018024	2530.886083
464.390106	2535.584438
464.762130	2545.139945
465.134094	2562.894889
465.505999	2585.234762
465.877845	2603.070365
466.249631	2609.946498
466.621358	2597.809921
466.993026	2589.786924
467.364634	2581.032961
467.736184	2570.063410
468.107674	2563.638459
468.479105	2559.114024
468.850477	2554.138405
469.221790	2546.657332
469.593043	2537.822710
469.964238	2532.521937
470.335373	2532.486649
470.706449	2543.234389
471.077467	2548.643547
471.448425	2569.503842
471.819324	2578.502301
472.190164	2572.440314
472.560945	2558.604867
472.931667	2543.834286
473.302330	2538.853626
473.672934	2535.559232
474.043479	2538.228523
474.413965	2534.487987
474.784393	2528.972965
475.154761	2533.371372
475.525070	2529.653521
475.895321	2530.013963
476.265513	2529.484642
476.635645	2537.726928
477.005719	2538.457896
477.375734	2537.905889
477.745691	2539.413194
478.115588	2548.177240
478.485427	2552.532797
478.855207	2566.101063
479.224928	2574.880232
479.594591	2583.520770
479.964194	2578.459452
480.333739	2577.882239
480.703226	2578.731674
481.072653	2580.294432
481.442022	2580.801067
481.811333	2584.380287
482.180584	2578.267888
482.549777	2575.883422
482.918912	2574.877712
483.287988	2573.677917
483.657005	2569.103070
484.025964	2568.641804
484.394864	2563.522513
484.763706	2567.447051
485.132489	2562.705846
485.501213	2560.631411
485.869879	2561.841288
486.238487	2562.680640
486.607036	2558.090669
486.975527	2559.212326
487.343959	2560.044117
487.712333	2559.328273
488.080648	2559.809703
488.448905	2560.167625
488.817104	2562.998233
489.185244	2563.532595
489.553326	2570.660787
489.921350	2583.976994
490.289315	2594.984354
490.657222	2595.586772
491.025070	2596.310177
491.392861	2594.356730
491.760593	2589.242480
492.128267	2582.482292
492.495883	2577.902404
492.863440	2569.085426
493.230939	2563.646021
493.598380	2560.520506
493.965763	2556.858107
494.333088	2555.542366
494.700354	2555.310473
495.067563	2553.573796
495.434713	2550.304607
495.801805	2555.302911
496.168839	2554.793755
496.535815	2550.105482
496.902733	2555.144115
497.269593	2552.449618
497.636395	2552.600853
498.003139	2553.961964
498.369825	2553.445246
498.736453	2556.714434
499.103023	2555.721327
499.469535	2554.042623
499.835989	2553.397355
500.202385	2551.801830
500.568723	2555.466749
500.935003	2558.297357
501.301226	2557.440361
501.667390	2562.337842
502.033497	2564.785322
502.399546	2562.007646
502.765537	2560.444888
503.131470	2564.054354
503.497345	2566.390929
503.863163	2563.570404
504.228923	2567.510065
504.594625	2571.273287
504.960269	2570.572566
505.325856	2575.061714
505.691385	2573.710685
506.056856	2573.637588
506.422270	2581.552199
506.787625	2581.751325
507.152924	2582.547827
507.518164	2584.642427
507.883347	2584.327355
508.248472	2586.628641
508.613540	2591.604260
508.978550	2592.640217
509.343503	2598.051896
509.708398	2605.364090
510.073236	2604.063472
510.438016	2606.972218
510.802738	2608.643360
511.167403	2610.233844
511.532010	2614.828856
511.896561	2618.783641
512.261053	2625.042234
512.625488	2621.311780
512.989866	2624.470063
513.354186	2625.347223
513.718449	2626.736061
514.082655	2636.024387
514.446803	2632.175466
514.810894	2641.584780
515.174927	2638.950777
515.538904	2641.020171
515.902822	2645.814308
516.266684	2645.272384
516.630488	2649.605256
516.994235	2649.398568
517.357925	2651.304125
517.721558	2656.120947
518.085133	2659.788387
518.448651	2658.979281
518.812112	2657.865186
519.175516	2661.971206
519.538863	2665.860456
519.902152	2665.936074
520.265385	2665.391629
520.628560	2666.669562
520.991678	2669.492608
521.354739	2667.892041
521.717743	2672.401353
522.080690	2672.194666
522.443580	2677.939061
522.806413	2676.900583
523.169189	2678.312106
523.531908	2679.138856
523.894569	2676.882939
524.257174	2677.825635
524.619722	2681.309072
524.982213	2683.214628
525.344647	2682.077848
525.707025	2683.433919
526.069345	2683.259999
526.431608	2682.738239
526.793815	2684.565658
527.155964	2682.473579
527.518057	2682.120698
527.880093	2682.529032
528.242072	2681.568692
528.603995	2683.050791
528.965860	2680.419309
529.327669	2679.287570
529.689421	2678.743125
530.051117	2675.678103
530.412755	2676.489729
530.774337	2677.379493
531.135862	2671.965294
531.497331	2672.870181
531.858743	2667.483708
532.220098	2670.800787
532.581396	2665.744510
532.942638	2662.737462
533.303824	2666.046979
533.664953	2662.760147
534.026025	2659.627070
534.387040	2661.149498
534.747999	2657.950886
535.108902	2659.586740
535.469748	2651.755308
535.830537	2651.591470
536.191270	2650.006027
536.551947	2645.857158
536.912567	2646.300779
537.273131	2644.183495
537.633638	2637.020015
537.994089	2636.531023
538.354483	2631.109262
538.714821	2632.639252
539.075103	2628.278654
539.435328	2628.432410
539.795497	2621.510905
540.155609	2618.395472
540.515665	2617.319186
540.875665	2614.002107
541.235609	2610.586725
541.595496	2607.289810
541.955328	2605.485077
542.315102	2599.680189
542.674821	2596.169025
543.034483	2593.431678
543.394090	2591.604260
543.753640	2588.972778
544.113134	2589.618046
544.472571	2582.734350
544.831953	2581.022878
545.191278	2576.594225
545.550548	2571.038873
545.909761	2571.653894
546.268918	2568.369582
546.628019	2568.735066
546.987064	2561.037224
547.346053	2556.762325
547.704986	2555.902809
548.063863	2550.952396
548.422684	2551.481717
548.781449	2545.659184
549.140158	2546.054915
549.498811	2543.496529
549.857408	2540.834800
550.215949	2538.364634
550.574434	2535.322298
550.932864	2533.290713
551.291237	2527.337110
551.649555	2530.515558
552.007817	2529.658562
552.366022	2527.047244
552.724173	2525.371060
553.082267	2525.318128
553.440305	2523.974661
553.798288	2520.730678
554.156215	2519.051974
554.514086	2520.597088
554.871902	2517.184227
555.229661	2515.997035
555.587365	2512.498474
555.945014	2512.437980
556.302606	2509.897239
556.660143	2512.581653
557.017625	2510.083761
557.375050	2508.337002
557.732421	2504.813235
558.089735	2508.470592
558.446994	2507.578308
558.804197	2505.995386
559.161345	2503.842813
559.518437	2505.803822
559.875474	2501.922133
560.232455	2506.771723
560.589381	2503.777278
560.946251	2504.823317
561.303065	2500.233347
561.659825	2504.614109
562.016528	2504.006650
562.373177	2499.903151
562.729770	2500.697133
563.086307	2499.358707
563.442789	2500.792915
563.799216	2499.396515
564.155587	2498.516834
564.511904	2497.138078
564.868164	2497.881648
565.224370	2497.939622
565.580520	2497.906854
565.936615	2498.148830
566.292654	2495.792090
566.648638	2497.052379
567.004567	2493.566421
567.360441	2498.204282
567.716260	2495.648417
568.072023	2494.211688
568.427732	2490.839157
568.783385	2493.231184
569.138982	2490.798827
569.494525	2493.490803
569.850013	2490.501399
570.205445	2494.390649
570.560823	2492.709425
570.916145	2492.301091
571.271412	2492.112048
571.626625	2493.536174
571.981782	2492.043992
572.336884	2492.643890
572.691931	2492.006184
573.046923	2491.018118
573.401860	2488.472335
573.756743	2494.045330
574.111570	2488.242962
574.466342	2491.265134
574.821059	2490.758498
575.175722	2488.689104
575.530330	2492.167501
575.884882	2491.403766
576.239380	2487.673312
576.593823	2488.618528
576.948211	2488.721872
577.302544	2486.619711
577.656823	2486.662561
578.011047	2488.905874
578.365216	2486.720534
578.719330	2485.233393
579.073389	2484.512508
579.427394	2487.587612
579.781344	2486.730616
580.135239	2483.950420
580.489080	2486.622231
580.842866	2484.958651
581.196597	2484.439412
581.550273	2484.802375
581.903895	2486.783548
582.257463	2483.867241
582.610975	2481.271047
582.964434	2484.257930
583.317837	2480.096458
583.671186	2482.238948
584.024481	2481.414719
584.377721	2481.119812
584.730906	2482.586788
585.084037	2479.027733
585.437113	2481.659215
585.790135	2478.541262
586.143103	2479.264667
586.496016	2479.509163
586.848874	2477.235603
587.201679	2478.246354
587.554428	2475.937506
587.907124	2477.754842
588.259765	2475.113277
588.612352	2478.984883
588.964884	2476.300469
589.317362	2477.081848
589.669786	2476.245016
590.022155	2477.260809
590.374470	2477.170068
590.726731	2477.631333
591.078937	2475.599748
591.431090	2474.208390
591.783188	2476.048411
592.135232	2471.229068
592.487222	2473.845427
592.839157	2474.387351
593.191038	2473.457258
593.542866	2473.852989
593.894639	2473.048925
594.246358	2473.530355
594.598022	2475.554378
594.949633	2472.776702
595.301190	2472.355766
595.652692	2473.406847
596.004141	2471.836527
596.355535	2472.648153
596.706876	2469.900724
597.058162	2470.011629
597.409395	2468.786629
597.760573	2468.559777
598.111698	2472.824593
598.462768	2467.034828
598.813785	2469.704119
599.164748	2467.879221
599.515657	2466.066927
599.866511	2469.968780
600.217312	2465.461988
600.568060	2467.410394
600.918753	2471.365179
601.269392	2468.877370
601.619978	2465.701443
601.970510	2467.929633
602.320988	2465.731690
602.671412	2469.615899
603.021783	2465.482153
603.372100	2469.913327
603.722363	2467.733028
604.072572	2467.155816
604.422728	2468.907617
604.772830	2461.494600
605.122878	2463.269086
605.472872	2466.041721
605.822813	2462.003757
606.172701	2465.777060
606.522534	2466.258490
606.872314	2464.771350
607.222041	2466.389560
607.571714	2466.170270
607.921333	2465.046093
608.270899	2468.136320
608.620411	2464.741103
608.969870	2468.322843
609.319276	2465.532564
609.668627	2463.831175
610.017926	2467.307050
610.367171	2467.929633
610.716362	2464.214303
611.065500	2464.541978
611.414585	2466.321505
611.763616	2465.880404
612.112594	2467.566670
612.461518	2467.037349
612.810389	2467.906948
613.159207	2465.615743
613.507971	2466.460137
613.856682	2464.778912
614.205340	2466.747482
614.553945	2468.234623
614.902496	2465.439303
615.250994	2467.546505
615.599439	2464.567183
615.947830	2467.057513
616.296169	2466.684468
616.644454	2468.698409
616.992686	2468.433748
617.340864	2466.573563
617.688990	2467.833851
618.037063	2468.070785
618.385082	2466.107256
618.733048	2468.670683
619.080961	2471.319809
619.428821	2464.536936
619.776628	2468.653038
620.124382	2466.913840
620.472083	2469.807463
620.819731	2466.152626
621.167326	2466.200517
621.514868	2465.736731
621.862357	2466.210599
622.209793	2463.561473
622.557176	2464.317646
622.904506	2462.449899
623.251783	2460.877059
623.599007	2462.780094
623.946179	2458.192644
624.293297	2458.048971
624.640363	2459.004270
624.987376	2464.070630
625.334336	2458.477469
625.681243	2462.205403
626.028097	2458.578293
626.374899	2459.221040
626.721647	2459.596606
627.068343	2459.238684
627.414987	2458.784980
627.761577	2459.654579
628.108115	2458.054013
628.454600	2457.754064
628.801032	2458.099383
629.147412	2458.366564
629.493739	2457.428909
629.840014	2454.716769
630.186236	2457.781790
630.532405	2456.932356
630.878521	2457.151646
631.224585	2456.508899
631.570597	2456.466049
631.916556	2456.831533
632.262462	2455.183075
632.608316	2455.898919
632.954117	2454.754577
633.299866	2455.137705
633.645562	2454.651234
633.991206	2454.983950
634.336797	2454.192489
634.682336	2452.823815
635.027823	2451.843311
635.373257	2450.320882
635.718639	2452.178548
636.063968	2454.878086
636.409245	2450.487241
636.754470	2454.023610
637.099642	2450.250306
637.444762	2450.454473
637.789829	2448.755604
638.134845	2449.085800
638.479808	2448.886674
638.824719	2447.891046
639.169577	2444.372321
639.514383	2449.211829
639.859137	2446.592949
640.203839	2448.768207
640.548489	2448.352312
640.893086	2448.755604
641.237632	2443.490119
641.582125	2444.745366
641.926566	2443.086827
642.270955	2446.565223
642.615292	2444.430294
642.959576	2446.290480
643.303809	2447.031530
643.647990	2445.539348
643.992118	2444.964657
