Dividing Wavelength (nm)	Counts (n)	Blue Motor Position (mm): 0.000000	Red Motor Position (mm): 41.600000	
326.493990	1993.801552
326.888308	1993.801552
327.282561	1993.801552
327.676750	1972.258181
328.070874	1973.599128
328.464933	1978.615076
328.858929	1986.948103
329.252859	1998.860350
329.646726	2013.630931
330.040528	2027.287416
330.434265	2051.275747
330.827938	2069.560012
331.221547	2089.212950
331.615091	2105.347163
332.008571	2127.329114
332.401986	2146.956847
332.795338	2169.354693
333.188625	2188.372446
333.581847	2209.124356
333.975006	2225.644217
334.368100	2243.245406
334.761129	2261.315422
335.154095	2276.925355
335.546996	2306.418625
335.939833	2361.268900
336.332606	2377.294728
336.725315	2384.478372
337.117960	2394.601009
337.510540	2401.474622
337.903056	2413.830490
338.295508	2416.023392
338.687896	2425.606626
339.080220	2435.515014
339.472480	2437.435693
339.864676	2440.170519
340.256807	2445.025150
340.648875	2445.955243
341.040879	2447.754935
341.432818	2450.449432
341.824694	2449.920111
342.216506	2451.825667
342.608253	2450.903136
342.999937	2448.145625
343.391557	2447.223093
343.783113	2447.336519
344.174605	2446.605552
344.566033	2442.234872
344.957397	2440.906528
345.348697	2442.839810
345.739934	2439.006013
346.131106	2436.835796
346.522215	2436.402257
346.913260	2432.525609
347.304241	2434.257246
347.695159	2432.142482
348.086012	2430.640218
348.476802	2426.992943
348.867528	2427.383632
349.258191	2426.488828
349.648789	2425.019331
350.039324	2426.292223
350.429796	2425.624270
350.820203	2421.157807
351.210548	2423.312901
351.600828	2423.403642
351.991045	2422.934814
352.381198	2422.544125
352.771288	2427.096287
353.161314	2421.097314
353.551276	2425.669640
353.941175	2423.393559
354.331010	2422.942376
354.720782	2421.399783
355.110490	2425.248704
355.500135	2424.797521
355.889717	2425.291554
356.279235	2423.418765
356.668689	2424.764753
357.058080	2424.416913
357.447408	2426.075453
357.836672	2421.908939
358.225873	2426.909764
358.615010	2423.552356
359.004084	2428.845567
359.393095	2428.883376
359.782043	2433.223809
360.170927	2432.767585
360.559748	2431.991247
360.948505	2435.590631
361.337199	2437.581887
361.725830	2435.409149
362.114398	2437.453337
362.502903	2438.267484
362.891344	2440.699840
363.279722	2441.602207
363.668037	2440.725046
364.056289	2443.210335
364.444478	2439.575663
364.832603	2442.151693
365.220665	2444.936930
365.608665	2445.541869
365.996601	2446.255192
366.384474	2447.018927
366.772284	2448.385079
367.160031	2446.625717
367.547715	2445.872064
367.935336	2448.420367
368.322893	2449.902467
368.710388	2451.447580
369.097820	2456.395473
369.485189	2453.829526
369.872495	2457.784311
370.259738	2458.021245
370.646918	2463.322018
371.034035	2463.984930
371.421090	2467.198666
371.808081	2470.563636
372.195010	2474.619244
372.581875	2479.718371
372.968678	2485.858497
373.355418	2495.119096
373.742096	2505.309789
374.128710	2521.043230
374.515262	2529.298119
374.901751	2542.536189
375.288177	2561.304405
375.674540	2584.899526
376.060841	2604.418873
376.447079	2629.062554
376.833254	2656.562048
377.219367	2680.159689
377.605417	2716.188816
377.991404	2741.928947
378.377329	2785.998714
378.763191	2820.749908
379.148991	2872.172198
379.534727	2922.235897
379.920402	2972.675162
380.306013	3020.510671
380.691563	3085.254209
381.077049	3142.214207
381.462474	3199.549770
381.847835	3277.241513
382.233134	3352.289170
382.618371	3413.549271
383.003545	3503.208713
383.388657	3589.127619
383.773706	3679.283614
384.158693	3755.289091
384.543618	3851.353318
384.928480	3931.963889
385.313280	4043.799366
385.698017	4150.384482
386.082692	4272.332514
386.467305	4335.326773
386.851856	4470.666630
387.236344	4633.750478
387.620770	4687.496739
388.005133	4816.802335
388.389435	4969.206498
388.773674	5055.211104
389.157851	5190.127504
389.541965	5327.914842
389.926018	5349.604406
390.310008	5538.312438
390.693936	5661.674514
391.077802	5781.540550
391.461606	5922.057672
391.845348	6037.674015
392.229027	6158.026522
392.612645	6390.280041
392.996200	6514.622622
393.379694	6688.212234
393.763125	6926.883142
394.146494	7014.538725
394.529801	7158.544326
394.913047	7411.320382
395.296230	7407.524394
395.679351	7467.297355
396.062410	7740.500167
396.445408	7629.614947
396.828343	7795.002602
397.211217	7927.685771
397.594028	7814.647978
397.976778	8020.616922
398.359466	8191.885082
398.742092	8163.011874
399.124656	8319.985843
399.507158	8510.233948
399.889598	8532.775467
400.271977	8747.087520
400.654294	8786.431205
401.036549	8984.354467
401.418742	9008.526800
401.800874	9319.739912
402.182944	9403.967510
402.564952	9782.606055
402.946898	9597.930946
403.328783	9660.083331
403.710606	9861.427016
404.092367	10126.732861
404.474067	10498.008800
404.855705	10276.031673
405.237282	10234.142205
405.618797	10668.359471
406.000250	10926.642988
406.381642	11299.673249
406.762972	11252.301527
407.144240	11048.142358
407.525447	11302.382870
407.906593	11244.822975
408.287677	11507.114210
408.668700	11670.079590
409.049661	11635.358643
409.430560	11804.257461
409.811399	11776.972216
410.192176	11942.105293
410.572891	12021.364834
410.953545	12526.576670
411.334138	11982.565593
411.714669	12610.779062
412.095139	11890.405739
412.475547	12412.162642
412.855894	12245.895306
413.236180	12591.068151
413.616405	12261.283428
413.996568	12551.545505
414.376670	12517.976461
414.756711	12389.974003
415.136691	12693.322915
415.516609	12873.455945
415.896466	12947.898664
416.276262	13245.735074
416.655997	13687.272096
417.035670	13709.992576
417.415283	14385.534918
417.794834	14478.463548
418.174324	14217.470410
418.553753	14115.510553
418.933121	14624.326814
419.312428	14422.857100
419.691674	14340.635881
420.070859	14804.696778
420.449983	14457.628459
420.829045	15015.762328
421.208047	14756.944448
421.586988	15225.749071
421.965867	15485.817156
422.344686	15488.158772
422.723444	16061.428705
423.102141	14722.755343
423.480777	15945.184739
423.859352	15436.428972
424.237866	16576.503558
424.616319	16270.991991
424.994712	16940.729444
425.373044	16736.199751
425.751314	17424.193742
426.129524	16525.792071
426.507673	17656.706881
426.885762	17335.600505
427.263789	17547.482721
427.641756	17722.267087
428.019662	17790.935164
428.397508	17827.523859
428.775292	18149.094021
429.153016	18099.743646
429.530679	18184.397222
429.908282	18207.967137
430.285824	17925.745700
430.663305	18641.803795
431.040726	18235.509481
431.418086	18056.593889
431.795385	18711.033961
432.172624	19131.796388
432.549802	18681.341565
432.926920	18875.020175
433.303977	18760.618750
433.680974	19020.502834
434.057910	19316.141301
434.434786	19340.563171
434.811601	19250.087063
435.188355	20315.164403
435.565050	19957.938159
435.941683	19901.078985
436.318257	20810.087244
436.694770	20610.339084
437.071222	21226.118547
437.447614	20268.042218
437.823946	20309.644340
438.200218	20466.154523
438.576429	20219.742922
438.952580	20512.659167
439.328670	20465.267279
439.704700	20894.337527
440.080670	20452.848397
440.456580	21059.768032
440.832429	21246.918348
441.208218	20199.734583
441.583947	20660.385139
441.959616	20775.968714
442.335224	21020.568020
442.710773	21140.693675
443.086261	21698.628418
443.461689	21035.472191
443.837057	21170.426400
444.212365	21830.885609
444.587612	21819.583343
444.962800	21394.697252
445.337927	21842.349193
445.712995	20535.195645
446.088002	22429.419285
446.462949	22624.053194
446.837837	22811.493376
447.212664	22759.531683
447.587431	25664.564642
447.962139	28663.443722
448.336786	31084.735120
448.711374	29488.690689
449.085901	25730.182821
449.460369	25679.025192
449.834776	25592.493786
450.209124	28141.490214
450.583412	27645.302044
450.957640	28193.325879
451.331808	26819.490468
451.705917	25429.785505
452.079965	25463.225999
452.453954	25830.229561
452.827883	25712.253958
453.201752	25514.544945
453.575562	25677.656519
453.949311	26821.627917
454.323001	26880.586732
454.696632	26645.313561
455.070202	28229.871723
455.443713	28356.271094
455.817164	28962.139649
456.190556	29506.228863
456.563888	28941.738099
456.937160	29393.241482
457.310373	27679.634822
457.683526	28155.686103
458.056619	28145.835689
458.429653	28072.368433
458.802628	28647.264138
459.175542	28781.610888
459.548398	30086.369889
459.921194	31689.358509
460.293930	32369.442931
460.666607	34423.403092
461.039224	36206.174382
461.411782	36610.986598
461.784280	35419.386378
462.156719	34944.585303
462.529099	34373.006677
462.901419	33059.889444
463.273680	31979.171923
463.645882	32057.672771
464.018024	32044.545606
464.390106	32886.715727
464.762130	35638.237990
465.134094	39740.345862
465.505999	45081.518938
465.877845	49695.301405
466.249631	50892.068808
466.621358	49208.958609
466.993026	47111.039586
467.364634	45034.300971
467.736184	43045.540573
468.107674	41760.610951
468.479105	40956.771244
468.850477	40245.363613
469.221790	38794.559866
469.593043	37020.824844
469.964238	36135.144524
470.335373	36039.163476
470.706449	37810.685431
471.077467	40416.145303
471.448425	45016.425039
471.819324	47866.121253
472.190164	45986.509397
472.560945	42401.477716
472.931667	39273.335890
473.302330	38125.903740
473.672934	37303.565519
474.043479	37809.165523
474.413965	36993.151430
474.784393	36610.628676
475.154761	37525.169601
475.525070	37550.312356
475.895321	37089.777746
476.265513	37691.573048
476.635645	38683.533493
477.005719	38491.919236
477.375734	38963.786359
477.745691	39666.923977
478.115588	41030.999714
478.485427	43013.526725
478.855207	46419.990655
479.224928	49028.949087
479.594591	50689.568178
479.964194	49695.308967
480.333739	49862.032528
480.703226	49889.431199
481.072653	50540.367669
481.442022	51007.609533
481.811333	51273.727004
482.180584	49990.770994
482.549777	49473.566253
482.918912	48933.845199
483.287988	48653.262138
483.657005	47797.637178
484.025964	47164.271650
484.394864	47191.718212
484.763706	46750.365193
485.132489	45873.476646
485.501213	45723.343522
485.869879	45847.834817
486.238487	45433.628411
486.607036	45643.226985
486.975527	45101.824706
487.343959	45294.326207
487.712333	45374.954421
488.080648	45294.893337
488.448905	45750.071720
488.817104	45573.780050
489.185244	46533.898047
489.553326	48219.821210
489.921350	50931.997267
490.289315	53783.747751
490.657222	54364.176122
491.025070	54629.865095
491.392861	53766.738898
491.760593	52554.908528
492.128267	50912.747621
492.495883	49400.098998
492.863440	47991.993823
493.230939	46632.162738
493.598380	45526.002514
493.965763	45196.946238
494.333088	44369.682809
494.700354	43881.583171
495.067563	43588.099797
495.434713	43462.418790
495.801805	43520.344168
496.168839	43122.708035
496.535815	42796.547902
496.902733	42823.858353
497.269593	42400.323292
497.636395	42323.559122
498.003139	42755.321346
498.369825	42204.272819
498.736453	42516.562217
499.103023	42030.085830
499.469535	41903.764597
499.835989	41996.473937
500.202385	41659.840806
500.568723	41672.005111
500.935003	41873.749567
501.301226	41657.116063
501.667390	42302.222438
502.033497	42564.609455
502.399546	41986.116886
502.765537	41291.985290
503.131470	41677.288240
503.497345	42042.550083
503.863163	40684.042300
504.228923	41312.555718
504.594625	41722.116700
504.960269	41018.326253
505.325856	41712.435164
505.691385	41064.107492
506.056856	41216.163815
506.422270	41638.120995
506.787625	41227.002296
507.152924	41416.380802
507.518164	41510.841943
507.883347	40705.308408
508.248472	40981.341828
508.613540	41455.956380
508.978550	41770.292487
509.343503	41507.592919
509.708398	41716.614281
510.073236	42244.269333
510.438016	42240.922007
510.802738	41697.127701
511.167403	42327.566839
511.532010	42561.839341
511.896561	42855.887324
512.261053	43729.700767
512.625488	43244.406530
512.989866	43112.764359
513.354186	42969.217503
513.718449	42938.887401
514.082655	43641.241120
514.446803	43289.292964
514.810894	43823.708204
515.174927	43747.054939
515.538904	43636.978824
515.902822	44324.254452
516.266684	43768.999082
516.630488	44188.271847
516.994235	44036.752407
517.357925	44623.497344
517.721558	44778.991734
518.085133	45089.292398
518.448651	45231.805817
518.812112	44995.199261
519.175516	45092.397748
519.538863	45433.290654
519.902152	45389.425053
520.265385	45837.344176
520.628560	45904.147026
520.991678	45679.644280
521.354739	45899.514205
521.717743	46226.932107
522.080690	46123.046529
522.443580	46671.942483
522.806413	46710.794656
523.169189	46667.413006
523.531908	46822.698189
523.894569	46698.698407
524.257174	46875.320273
524.619722	47149.279258
524.982213	47156.581370
525.344647	47056.264929
525.707025	47089.597038
526.069345	47481.476173
526.431608	47405.621931
526.793815	47734.622755
527.155964	47249.903210
527.518057	47437.474462
527.880093	47187.440793
528.242072	47714.753047
528.603995	47401.558761
528.965860	47414.597706
529.327669	47519.022687
529.689421	47399.963236
530.051117	47356.475723
530.412755	47489.577307
530.774337	47554.441834
531.135862	47349.786111
531.497331	47543.000935
531.858743	47454.884087
532.220098	47800.613979
532.581396	47500.367897
532.942638	47159.611103
533.303824	47453.911144
533.664953	47414.214578
534.026025	47115.503528
534.387040	47608.460318
534.747999	47549.045279
535.108902	47702.379535
535.469748	47230.870333
535.830537	47331.554778
536.191270	47524.575518
536.551947	47167.195519
536.912567	47495.636774
537.273131	47606.038044
537.633638	47077.064729
537.994089	47432.455993
538.354483	47018.529372
538.714821	47576.330524
539.075103	47921.122762
539.435328	47680.672326
539.795497	47578.778004
540.155609	47552.359837
540.515665	48023.201086
540.875665	47477.619691
541.235609	47801.050039
541.595496	47758.550592
541.955328	48446.373184
542.315102	47800.732446
542.674821	47594.526569
543.034483	47637.457035
543.394090	47593.314171
543.753640	47570.989422
544.113134	48569.231144
544.472571	47556.919561
544.831953	48820.174742
545.191278	48023.017084
545.550548	47748.942152
545.909761	48200.911842
546.268918	48403.775434
546.628019	48697.147903
546.987064	48269.781565
547.346053	47534.342754
547.704986	48433.135114
548.063863	47988.868308
548.422684	48163.498918
548.781449	48014.941156
549.140158	48405.496988
549.498811	48266.164537
549.857408	47673.516408
550.215949	48532.886946
550.574434	48465.143920
550.932864	48223.549143
551.291237	48934.455179
551.649555	48537.751659
552.007817	48771.779665
552.366022	48416.610212
552.724173	48598.605948
553.082267	48994.061782
553.440305	49292.014139
553.798288	48601.877657
554.156215	48908.493237
554.514086	49105.546899
554.871902	48863.856340
555.229661	48887.068333
555.587365	48706.587463
555.945014	48795.833530
556.302606	48704.064366
556.660143	48931.637174
557.017625	49033.909582
557.375050	48823.421245
557.732421	49159.756947
558.089735	49139.181478
558.446994	49060.237008
558.804197	49543.650895
559.161345	49472.305965
559.518437	48714.323114
559.875474	49018.697901
560.232455	49166.653246
560.589381	49357.889417
560.946251	49051.266275
561.303065	49737.069886
561.659825	49539.464217
562.016528	49201.429645
562.373177	48909.259492
562.729770	49399.315098
563.086307	48891.812058
563.442789	49337.366879
563.799216	49411.169372
564.155587	49191.669972
564.511904	49223.204909
564.868164	49295.323656
565.224370	49540.918589
565.580520	49255.115413
565.936615	49470.942333
566.292654	49180.274443
566.648638	49427.147309
567.004567	49362.373523
567.360441	49395.156147
567.716260	49250.805227
568.072023	49526.092556
568.427732	49498.184728
568.783385	49044.904339
569.138982	49418.204302
569.494525	49376.551768
569.850013	49137.273401
570.205445	49097.554150
570.560823	49048.884330
570.916145	48927.387481
571.271412	48915.064381
571.626625	48679.143422
571.981782	48708.172906
572.336884	48396.826203
572.691931	48700.081854
573.046923	48296.459351
573.401860	48122.461405
573.756743	48103.950288
574.111570	48207.666988
574.466342	48028.214514
574.821059	48119.464439
575.175722	47615.308726
575.530330	47636.295049
575.884882	47336.245572
576.239380	47280.838250
576.593823	47245.688805
576.948211	47150.005184
577.302544	46643.220509
577.656823	46648.619585
578.011047	46839.092021
578.365216	46539.894499
578.719330	46325.232086
579.073389	46156.310582
579.427394	46206.699436
579.781344	46161.437436
580.135239	45781.392409
580.489080	45843.549836
580.842866	45296.962730
581.196597	45711.020422
581.550273	45638.634494
581.903895	45464.480272
582.257463	45854.801691
582.610975	45187.947778
582.964434	45425.239931
583.317837	45041.323298
583.671186	44856.781779
584.024481	45056.063632
584.377721	44558.106017
584.730906	44818.882385
585.084037	44799.854549
585.437113	44484.910983
585.790135	44483.479296
586.143103	44062.666458
586.496016	44154.501158
586.848874	44127.712466
587.201679	44099.872694
587.554428	43539.006520
587.907124	43686.762739
588.259765	43388.923808
588.612352	43609.174340
588.964884	42944.220942
589.317362	43200.382134
589.669786	43104.965694
590.022155	42825.007736
590.374470	43213.252199
590.726731	42692.861450
591.078937	42171.623786
591.431090	42230.343146
591.783188	41863.029553
592.135232	41510.935204
592.487222	41693.724922
592.839157	41737.535069
593.191038	41369.354398
593.542866	41072.720303
593.894639	40454.594183
594.246358	40683.686899
594.598022	40603.875351
594.949633	40167.911326
595.301190	40079.698695
595.652692	39875.088343
596.004141	40123.844079
596.355535	39136.609716
596.706876	39045.808453
597.058162	38837.868418
597.409395	39241.392619
597.760573	39252.546172
598.111698	38796.236049
598.462768	38778.249212
598.813785	38751.006817
599.164748	38161.232146
599.515657	38473.695464
599.866511	37925.265817
600.217312	38447.168913
600.568060	37395.934581
600.918753	38043.909373
601.269392	37953.460990
601.619978	37558.564724
601.970510	37703.666776
602.320988	37815.900505
602.671412	38032.241622
603.021783	37736.744307
603.372100	37361.122893
603.722363	37393.033397
604.072572	37416.084073
604.422728	37362.582307
604.772830	37127.041955
605.122878	37144.040726
605.472872	37027.275000
605.822813	37211.975315
606.172701	36989.912488
606.522534	37131.112687
606.872314	37312.367373
607.222041	37002.989241
607.571714	37282.226315
607.921333	36700.444393
608.270899	36891.781388
608.620411	37159.570000
608.969870	36899.121307
609.319276	36823.156160
609.668627	36789.650131
610.017926	37157.253590
610.367171	37220.078970
610.716362	37208.128915
611.065500	37075.307114
611.414585	37152.708990
611.763616	37354.453446
612.112594	37197.497121
612.461518	37317.584968
612.810389	37475.698237
613.159207	37260.750999
613.507971	37243.454800
613.856682	37581.272602
614.205340	37391.261431
614.553945	37925.454860
614.902496	37355.509568
615.250994	37656.108531
615.599439	37629.866804
615.947830	37718.326452
616.296169	37655.236411
616.644454	37649.489496
616.992686	37717.045998
617.340864	38044.171513
617.688990	37700.279121
618.037063	38115.672718
618.385082	37956.170611
618.733048	38123.657906
619.080961	38038.177581
619.428821	37941.533620
619.776628	37949.879251
620.124382	37714.006183
620.472083	37744.404340
620.819731	37756.913964
621.167326	37409.137363
621.514868	37316.286871
621.862357	36874.190281
622.209793	36814.051836
622.557176	36460.608978
622.904506	36190.629984
623.251783	35825.685734
623.599007	35567.634110
623.946179	35299.338861
624.293297	35181.559863
624.640363	34590.537507
624.987376	34493.591077
625.334336	34204.112900
625.681243	33828.413347
626.028097	33706.543453
626.374899	33494.825074
626.721647	33366.205075
627.068343	33188.585060
627.414987	32889.138001
627.761577	32606.767851
628.108115	32789.862558
628.454600	32251.905908
628.801032	32296.797383
629.147412	32158.616836
629.493739	32069.368248
629.840014	31670.991065
630.186236	31840.182271
630.532405	31441.737032
630.878521	31497.504797
631.224585	31294.258077
631.570597	30985.467239
631.916556	31017.672650
632.262462	30863.501563
632.608316	30778.043923
632.954117	30609.903798
633.299866	30499.603352
633.645562	30368.230882
633.991206	29922.492059
634.336797	29513.964513
634.682336	29425.643498
635.027823	29170.432564
