Dividing Wavelength (nm)	Counts (n)	Blue Motor Position (mm): 0.000000	Red Motor Position (mm): 3.200000	
326.493990	1970.960084
326.888308	1970.960084
327.282561	1970.960084
327.676750	1947.657350
328.070874	1951.344954
328.464933	1957.792590
328.858929	1965.986986
329.252859	1981.027268
329.646726	1994.101501
330.040528	2007.276556
330.434265	2029.873528
330.827938	2047.658719
331.221547	2064.264280
331.615091	2086.901581
332.008571	2106.620054
332.401986	2128.808693
332.795338	2148.154121
333.188625	2169.115239
333.581847	2189.960410
333.975006	2206.876002
334.368100	2221.747405
334.761129	2242.080899
335.154095	2258.792324
335.546996	2270.334046
335.939833	2284.320728
336.332606	2295.265073
336.725315	2307.252936
337.117960	2315.255768
337.510540	2322.207519
337.903056	2332.148675
338.295508	2336.330312
338.687896	2345.590911
339.080220	2352.462004
339.472480	2356.452077
339.864676	2358.889475
340.256807	2362.796369
340.648875	2366.418438
341.040879	2366.279807
341.432818	2368.351721
341.824694	2370.355580
342.216506	2370.191742
342.608253	2368.170239
342.999937	2368.432379
343.391557	2365.148068
343.783113	2364.706967
344.174605	2362.415762
344.566033	2363.514734
344.957397	2359.290247
345.348697	2357.946779
345.739934	2358.501306
346.131106	2356.711697
346.522215	2353.646675
346.913260	2352.073835
347.304241	2350.425378
347.695159	2348.545028
348.086012	2348.343381
348.476802	2346.263905
348.867528	2343.818946
349.258191	2343.501353
349.648789	2345.704337
350.039324	2341.419357
350.429796	2340.154027
350.820203	2339.322237
351.210548	2336.993223
351.600828	2339.012206
351.991045	2335.669921
352.381198	2339.710405
352.771288	2340.070848
353.161314	2336.176557
353.551276	2337.761999
353.941175	2338.311485
354.331010	2339.712926
354.720782	2337.308296
355.110490	2335.415342
355.500135	2338.545899
355.889717	2337.966166
356.279235	2339.846517
356.668689	2340.738801
357.058080	2340.731239
357.447408	2337.832576
357.836672	2336.209324
358.225873	2337.693944
358.615010	2337.114211
359.004084	2340.330467
359.393095	2340.945488
359.782043	2342.725015
360.170927	2343.161075
360.559748	2343.428256
360.948505	2341.479850
361.337199	2347.191478
361.725830	2342.823318
362.114398	2349.155007
362.502903	2346.682321
362.891344	2345.681652
363.279722	2347.751046
363.668037	2344.985973
364.056289	2347.320027
364.444478	2348.983608
364.832603	2348.260202
365.220665	2350.357322
365.608665	2347.531756
365.996601	2350.143073
366.384474	2350.621983
366.772284	2351.161386
367.160031	2351.252127
367.547715	2349.517970
367.935336	2352.353619
368.322893	2351.844463
368.710388	2350.773218
369.097820	2356.701614
369.485189	2352.252796
369.872495	2353.661799
370.259738	2352.202385
370.646918	2357.845956
371.034035	2357.006604
371.421090	2360.505165
371.808081	2362.120855
372.195010	2362.720752
372.581875	2367.587986
372.968678	2373.528986
373.355418	2379.835469
373.742096	2383.606253
374.128710	2388.493651
374.515262	2396.718294
374.901751	2405.464696
375.288177	2415.423495
375.674540	2426.110741
376.060841	2436.369489
376.447079	2447.674277
376.833254	2459.904116
377.219367	2470.402319
377.605417	2486.405462
377.991404	2495.335866
378.377329	2512.415295
378.763191	2522.011131
379.148991	2543.057949
379.534727	2558.806513
379.920402	2570.156671
380.306013	2585.612849
380.691563	2605.069182
381.077049	2616.928497
381.462474	2628.230763
381.847835	2646.308341
382.233134	2658.994405
382.618371	2667.403049
383.003545	2684.343847
383.388657	2696.820703
383.773706	2714.767210
384.158693	2722.906153
384.543618	2733.885786
384.928480	2738.982393
385.313280	2754.045361
385.698017	2765.077926
386.082692	2776.254164
386.467305	2776.705347
386.851856	2786.603653
387.236344	2800.532361
387.620770	2797.197637
388.005133	2800.570169
388.389435	2812.699186
388.773674	2808.010912
389.157851	2816.588436
389.541965	2815.015596
389.926018	2797.361475
390.310008	2807.012764
390.693936	2805.061837
391.077802	2798.629325
391.461606	2794.019190
391.845348	2787.367387
392.229027	2780.758435
392.612645	2780.647529
392.996200	2776.044956
393.379694	2770.534975
393.763125	2773.214348
394.146494	2752.890936
394.529801	2745.223341
394.913047	2741.117322
395.296230	2716.355174
395.679351	2700.722556
396.062410	2692.268541
396.445408	2661.111689
396.828343	2650.984011
397.211217	2632.016670
397.594028	2604.479367
397.976778	2591.815989
398.359466	2579.964236
398.742092	2559.643345
399.124656	2552.041285
399.507158	2536.726259
399.889598	2521.159176
400.271977	2509.652743
400.654294	2497.725373
401.036549	2485.992087
401.418742	2475.992958
401.800874	2469.303347
402.182944	2457.348251
402.564952	2452.455811
402.946898	2441.319902
403.328783	2431.172060
403.710606	2425.861204
404.092367	2420.472211
404.474067	2414.027095
404.855705	2410.601631
405.237282	2405.313461
405.618797	2404.287586
406.000250	2403.440672
406.381642	2396.569580
406.762972	2395.735269
407.144240	2392.087994
407.525447	2392.859290
407.906593	2389.602705
408.287677	2390.061450
408.668700	2386.066336
409.049661	2386.676315
409.430560	2385.524412
409.811399	2387.813095
410.192176	2386.477190
410.572891	2383.134905
410.953545	2386.315873
411.334138	2384.990049
411.714669	2383.308824
412.095139	2383.802858
412.475547	2383.616335
412.855894	2383.568444
413.236180	2383.482744
413.616405	2381.864534
413.996568	2382.227497
414.376670	2382.794627
414.756711	2380.808412
415.136691	2377.904708
415.516609	2381.763711
415.896466	2379.984183
416.276262	2382.330841
416.655997	2378.174409
417.035670	2377.335057
417.415283	2380.586601
417.794834	2375.991590
418.174324	2382.376211
418.553753	2381.715820
418.933121	2382.756818
419.312428	2380.513505
419.691674	2380.145500
420.070859	2381.277239
420.449983	2383.041643
420.829045	2382.088865
421.208047	2383.616335
421.586988	2382.164483
421.965867	2383.505429
422.344686	2380.821015
422.723444	2386.015924
423.102141	2380.057280
423.480777	2380.314379
423.859352	2379.371683
424.237866	2382.925697
424.616319	2383.326468
424.994712	2384.702703
425.373044	2383.339071
425.751314	2383.563403
426.129524	2382.187168
426.507673	2387.354350
426.885762	2383.376880
427.263789	2383.281098
427.641756	2383.006355
428.019662	2385.305121
428.397508	2384.957282
428.775292	2385.098434
429.153016	2384.332179
429.530679	2386.709083
429.908282	2384.097765
430.285824	2383.896119
430.663305	2384.685059
431.040726	2384.964843
431.418086	2385.645399
431.795385	2382.900491
432.172624	2387.314021
432.549802	2384.369987
432.926920	2385.027858
433.303977	2387.639176
433.680974	2384.964843
434.057910	2388.367622
434.434786	2386.013403
434.811601	2388.077756
435.188355	2387.833260
435.565050	2387.772766
435.941683	2388.314690
436.318257	2387.200595
436.694770	2381.851931
437.071222	2387.077087
437.447614	2383.800337
437.823946	2385.743702
438.200218	2387.785369
438.576429	2390.114382
438.952580	2391.006666
439.328670	2387.273692
439.704700	2385.196737
440.080670	2386.552807
440.456580	2389.794269
440.832429	2389.809392
441.208218	2387.440050
441.583947	2388.526419
441.959616	2386.134391
442.335224	2388.501213
442.710773	2386.625904
443.086261	2390.376522
443.461689	2389.239742
443.837057	2385.060625
444.212365	2391.795607
444.587612	2390.603374
444.962800	2388.470966
445.337927	2386.888044
445.712995	2389.751419
446.088002	2389.910215
446.462949	2389.413662
446.837837	2388.445760
447.212664	2389.446429
447.587431	2389.388456
447.962139	2391.475494
448.336786	2394.086811
448.711374	2393.610422
449.085901	2391.316697
449.460369	2393.393653
449.834776	2392.140926
450.209124	2393.539846
450.583412	2390.779814
450.957640	2392.763508
451.331808	2394.177552
451.705917	2393.300391
452.079965	2391.107489
452.453954	2394.081770
452.827883	2393.234856
453.201752	2393.320556
453.575562	2394.575803
453.949311	2391.881307
454.323001	2393.678478
454.696632	2393.202089
455.070202	2393.691081
455.443713	2390.933570
455.817164	2391.563714
456.190556	2391.478014
456.563888	2392.125802
456.937160	2389.010369
457.310373	2396.809034
457.683526	2393.002963
458.056619	2395.442882
458.429653	2394.139743
458.802628	2395.241236
459.175542	2394.278375
459.548398	2396.430948
459.921194	2397.194683
460.293930	2396.163767
460.666607	2398.414642
461.039224	2396.352810
461.411782	2399.296844
461.784280	2398.233160
462.156719	2398.916237
462.529099	2396.771226
462.901419	2398.749879
463.273680	2394.139743
463.645882	2395.694939
464.018024	2395.430279
464.390106	2395.672254
464.762130	2400.242060
465.134094	2397.182080
465.505999	2398.462533
465.877845	2403.596948
466.249631	2404.302710
466.621358	2399.168294
466.993026	2404.000240
467.364634	2402.548388
467.736184	2399.843809
468.107674	2396.960269
468.479105	2399.135527
468.850477	2399.460681
469.221790	2398.575959
469.593043	2395.165618
469.964238	2396.292316
470.335373	2395.503376
470.706449	2398.591082
471.077467	2398.165105
471.448425	2399.042266
471.819324	2400.292472
472.190164	2403.927144
472.560945	2397.587893
472.931667	2401.237688
473.302330	2397.020763
473.672934	2400.000085
474.043479	2399.143089
474.413965	2398.472615
474.784393	2394.290978
475.154761	2395.410114
475.525070	2392.808879
475.895321	2399.069992
476.265513	2393.754095
476.635645	2400.516803
477.005719	2398.752399
477.375734	2400.136196
477.745691	2398.744838
478.115588	2399.490928
478.485427	2398.291134
478.855207	2399.072513
479.224928	2401.693913
479.594591	2404.867319
479.964194	2401.668707
480.333739	2401.288100
480.703226	2403.690209
481.072653	2399.768192
481.442022	2402.941598
481.811333	2403.246588
482.180584	2402.238357
482.549777	2399.765671
482.918912	2403.196176
483.287988	2400.342883
483.657005	2402.324057
484.025964	2402.079561
484.394864	2402.187946
484.763706	2400.975548
485.132489	2400.849519
485.501213	2401.908162
485.869879	2400.025291
486.238487	2401.300702
486.607036	2400.763820
486.975527	2401.298182
487.343959	2402.140055
487.712333	2401.467061
488.080648	2400.587379
488.448905	2400.594941
488.817104	2399.914385
489.185244	2402.356824
489.553326	2402.447565
489.921350	2404.428738
490.289315	2402.634088
490.657222	2404.711043
491.025070	2404.186763
491.392861	2403.748183
491.760593	2400.363048
492.128267	2403.947308
492.495883	2400.703326
492.863440	2403.120559
493.230939	2402.734911
493.598380	2401.300702
493.965763	2395.105124
494.333088	2398.583521
494.700354	2395.894065
495.067563	2401.396484
495.434713	2397.655948
495.801805	2402.006464
496.168839	2401.393964
496.535815	2401.063768
496.902733	2401.509910
497.269593	2402.482853
497.636395	2400.544529
498.003139	2402.389592
498.369825	2402.472771
498.736453	2404.826990
499.103023	2403.284397
499.469535	2403.904458
499.835989	2404.411094
500.202385	2403.947308
500.568723	2403.289438
500.935003	2406.006620
501.301226	2403.221382
501.667390	2405.056362
502.033497	2407.392937
502.399546	2404.048131
502.765537	2406.109963
503.131470	2406.858575
503.497345	2409.550551
503.863163	2409.537948
504.228923	2407.047618
504.594625	2407.549213
504.960269	2410.037022
505.325856	2411.894687
505.691385	2408.290262
506.056856	2409.800088
506.422270	2411.854358
506.787625	2413.943916
507.152924	2411.322516
507.518164	2413.094482
507.883347	2412.860068
508.248472	2414.090110
508.613540	2410.992321
508.978550	2413.354101
509.343503	2414.652198
509.708398	2416.731674
510.073236	2412.529873
510.438016	2415.831828
510.802738	2413.976684
511.167403	2413.361663
511.532010	2412.234965
511.896561	2412.363515
512.261053	2415.234452
512.625488	2411.551889
512.989866	2410.185736
513.354186	2410.939389
513.718449	2408.708678
514.082655	2411.597259
514.446803	2411.425860
514.810894	2411.745973
515.174927	2417.515574
515.538904	2408.552402
515.902822	2413.094482
516.266684	2411.884605
516.630488	2408.028122
516.994235	2410.543658
517.357925	2408.096178
517.721558	2405.736918
518.085133	2404.431259
518.448651	2407.130797
518.812112	2405.908317
519.175516	2404.695920
519.538863	2405.494942
519.902152	2405.099212
520.265385	2404.073337
520.628560	2403.352452
520.991678	2405.573080
521.354739	2403.188615
521.717743	2403.334808
522.080690	2404.025446
522.443580	2405.580642
522.806413	2403.327246
523.169189	2400.955383
523.531908	2399.886659
523.894569	2402.505538
524.257174	2400.426062
524.619722	2400.642832
524.982213	2401.943450
525.344647	2400.736093
525.707025	2400.791546
526.069345	2401.673748
526.431608	2401.346073
526.793815	2399.942112
527.155964	2402.147616
527.518057	2398.885990
527.880093	2402.283728
528.242072	2401.703995
528.603995	2398.762482
528.965860	2400.844478
529.327669	2398.633932
529.689421	2401.572925
530.051117	2401.010836
530.412755	2400.484036
530.774337	2399.067471
531.135862	2400.980589
531.497331	2399.773233
531.858743	2396.559497
532.220098	2396.740979
532.581396	2396.045300
532.942638	2396.854405
533.303824	2399.203583
533.664953	2398.885990
534.026025	2400.700805
534.387040	2400.415980
534.747999	2397.938253
535.108902	2398.016391
535.469748	2399.342214
535.830537	2397.802142
536.191270	2398.833058
536.551947	2402.177863
536.912567	2399.485887
537.273131	2401.666186
537.633638	2398.956566
537.994089	2398.535630
538.354483	2399.407749
538.714821	2401.671227
539.075103	2395.768036
539.435328	2399.251473
539.795497	2400.272307
540.155609	2401.857750
540.515665	2398.649056
540.875665	2398.870866
541.235609	2398.442368
541.595496	2400.952863
541.955328	2400.395815
542.315102	2403.201218
542.674821	2399.246432
543.034483	2399.153171
543.394090	2398.510424
543.753640	2397.673592
544.113134	2398.959087
544.472571	2398.618809
544.831953	2398.444889
545.191278	2399.942112
545.550548	2399.140568
545.909761	2398.951525
546.268918	2398.883469
546.628019	2398.528068
546.987064	2398.686864
547.346053	2399.654766
547.704986	2402.888666
548.063863	2399.533778
548.422684	2399.380023
548.781449	2400.330280
549.140158	2398.316339
549.498811	2401.671227
549.857408	2401.804818
550.215949	2396.589744
550.574434	2397.287944
550.932864	2399.168294
551.291237	2393.315515
551.649555	2399.317008
552.007817	2398.049158
552.366022	2399.929509
552.724173	2399.564025
553.082267	2395.596637
553.440305	2398.089488
553.798288	2397.731566
554.156215	2400.582338
554.514086	2398.245763
554.871902	2398.765002
555.229661	2398.066802
555.587365	2402.850857
555.945014	2397.376164
556.302606	2397.892883
556.660143	2399.037224
557.017625	2399.813562
557.375050	2397.489590
557.732421	2399.702657
558.089735	2399.707698
558.446994	2398.114693
558.804197	2401.676268
559.161345	2398.018911
559.518437	2398.568397
559.875474	2398.157543
560.232455	2399.690054
560.589381	2399.644683
560.946251	2398.875908
561.303065	2397.290465
561.659825	2398.805331
562.016528	2398.308778
562.373177	2400.582338
562.729770	2401.610733
563.086307	2400.042935
563.442789	2399.642163
563.799216	2397.706360
564.155587	2398.220557
564.511904	2401.305744
564.868164	2398.210475
565.224370	2401.227606
565.580520	2400.426062
565.936615	2401.862791
566.292654	2396.191493
566.648638	2398.477656
567.004567	2399.352297
567.360441	2399.327091
567.716260	2397.487070
568.072023	2395.447923
568.427732	2396.940104
568.783385	2395.886503
569.138982	2395.052192
569.494525	2396.753582
569.850013	2395.558828
570.205445	2400.789025
570.560823	2403.135683
570.916145	2398.318860
571.271412	2396.204096
571.626625	2399.435476
571.981782	2399.334652
572.336884	2397.502193
572.691931	2400.224416
573.046923	2397.363561
573.401860	2397.514796
573.756743	2397.908006
574.111570	2400.844478
574.466342	2397.923129
574.821059	2398.389436
575.175722	2398.485218
575.530330	2399.969838
575.884882	2402.077040
576.239380	2396.133520
576.593823	2401.043604
576.948211	2400.237019
577.302544	2400.012688
577.656823	2397.950856
578.011047	2399.049827
578.365216	2397.381205
578.719330	2400.378171
579.073389	2399.274159
579.427394	2400.390774
579.781344	2399.047307
580.135239	2397.595454
580.489080	2399.430434
580.842866	2397.925650
581.196597	2402.243398
581.550273	2399.672410
581.903895	2396.748541
582.257463	2398.908675
582.610975	2397.958417
582.964434	2399.685013
583.317837	2398.480177
583.671186	2399.198541
584.024481	2403.342370
584.377721	2399.745507
584.730906	2400.889848
585.084037	2399.611916
585.437113	2395.871380
585.790135	2398.553274
586.143103	2399.790877
586.496016	2397.045969
586.848874	2394.011194
587.201679	2398.848181
587.554428	2395.218550
587.907124	2398.258366
588.259765	2394.792573
588.612352	2401.305744
588.964884	2400.496638
589.317362	2398.308778
589.669786	2398.790208
590.022155	2398.689385
590.374470	2398.772564
590.726731	2399.753068
591.078937	2399.518655
591.431090	2397.557646
591.783188	2400.433624
592.135232	2397.744168
592.487222	2399.823644
592.839157	2398.081926
593.191038	2398.971689
593.542866	2399.707698
593.894639	2399.163253
594.246358	2397.124107
594.598022	2397.658469
594.949633	2400.577297
595.301190	2400.005126
595.652692	2398.548233
596.004141	2395.291647
596.355535	2398.185269
596.706876	2400.269787
597.058162	2395.190824
597.409395	2399.448078
597.760573	2398.956566
598.111698	2398.303737
598.462768	2398.646535
598.813785	2397.222409
599.164748	2400.325239
599.515657	2399.412790
599.866511	2396.801473
600.217312	2397.746689
600.568060	2398.538150
600.918753	2401.164591
601.269392	2400.461350
601.619978	2399.682492
601.970510	2398.220558
602.320988	2394.298540
602.671412	2396.627553
603.021783	2398.417163
603.372100	2396.955228
603.722363	2398.039076
604.072572	2397.668551
604.422728	2397.625701
604.772830	2396.453633
605.122878	2390.951214
605.472872	2395.624363
605.822813	2391.762839
606.172701	2398.979251
606.522534	2396.665362
606.872314	2398.596123
607.222041	2398.722152
607.571714	2396.410783
607.921333	2396.778787
608.270899	2396.093191
608.620411	2395.699981
608.969870	2397.096380
609.319276	2398.752399
609.668627	2400.657955
610.017926	2398.447409
610.367171	2399.679972
610.716362	2396.740979
611.065500	2398.379354
611.414585	2398.379354
611.763616	2399.611916
612.112594	2398.021432
612.461518	2398.386916
612.810389	2398.452451
613.159207	2398.843140
613.507971	2397.202244
613.856682	2398.457492
614.205340	2398.255846
614.553945	2397.514796
614.902496	2396.534292
615.250994	2398.049158
615.599439	2397.590413
615.947830	2401.255332
616.296169	2399.831206
616.644454	2398.742317
616.992686	2396.748541
617.340864	2398.074364
617.688990	2395.823489
618.037063	2398.354148
618.385082	2397.330794
618.733048	2396.592265
619.080961	2398.838099
619.428821	2398.921278
619.776628	2397.572769
620.124382	2398.331463
620.472083	2397.986144
620.819731	2400.637791
621.167326	2397.229971
621.514868	2398.853222
621.862357	2398.906154
622.209793	2399.231309
622.557176	2398.880949
622.904506	2396.352810
623.251783	2395.818448
623.599007	2394.651421
623.946179	2391.762839
624.293297	2393.491955
624.640363	2397.648387
624.987376	2399.127965
625.334336	2393.106307
625.681243	2399.334653
626.028097	2397.298026
626.374899	2397.822306
626.721647	2397.608057
627.068343	2398.225599
627.414987	2398.578479
627.761577	2393.744013
628.108115	2398.321381
628.454600	2396.483880
628.801032	2397.857594
629.147412	2400.103428
629.493739	2397.882800
629.840014	2400.466392
630.186236	2398.361710
630.532405	2398.467574
630.878521	2395.566390
631.224585	2399.165774
631.570597	2395.800804
631.916556	2398.119734
632.262462	2393.754095
632.608316	2398.374313
632.954117	2397.232491
633.299866	2396.783829
633.645562	2396.609909
633.991206	2399.309447
634.336797	2396.763664
634.682336	2397.199724
635.027823	2397.461864
635.373257	2397.877759
635.718639	2397.653428
636.063968	2398.870866
636.409245	2399.760630
636.754470	2399.042266
637.099642	2394.036400
637.444762	2398.160064
637.789829	2399.914385
638.134845	2399.332132
638.479808	2396.942625
638.824719	2396.491442
639.169577	2397.754251
639.514383	2396.627553
639.859137	2395.452964
640.203839	2396.950187
640.548489	2395.515978
640.893086	2393.580175
641.237632	2393.751575
641.582125	2394.754764
641.926566	2392.203940
642.270955	2395.894065
642.615292	2397.171998
642.959576	2395.132851
643.303809	2395.984806
643.647990	2397.262738
643.992118	2397.282903
644.336195	2397.494631
