Dividing Wavelength (nm)	Counts (n)	Blue Motor Position (mm): 0.000000	Red Motor Position (mm): 31.200000	
326.493990	1988.049595
326.888308	1988.049595
327.282561	1988.049595
327.676750	1963.995730
328.070874	1966.329784
328.464933	1975.812194
328.858929	1982.602629
329.252859	1993.272231
329.646726	2009.333347
330.040528	2025.049144
330.434265	2044.775179
330.827938	2064.155895
331.221547	2085.212795
331.615091	2104.091916
332.008571	2124.291819
332.401986	2147.103040
332.795338	2162.796152
333.188625	2185.181396
333.581847	2205.078830
333.975006	2220.905533
334.368100	2240.034191
334.761129	2257.126223
335.154095	2271.201125
335.546996	2291.675771
335.939833	2324.178610
336.332606	2337.409119
336.725315	2350.949658
337.117960	2358.229084
337.510540	2362.188910
337.903056	2376.402444
338.295508	2382.799668
338.687896	2386.381408
339.080220	2396.415824
339.472480	2401.358676
339.864676	2403.886814
340.256807	2408.454100
340.648875	2411.577095
341.040879	2412.726478
341.432818	2413.533062
341.824694	2412.991138
342.216506	2413.223031
342.608253	2414.480799
342.999937	2412.746642
343.391557	2411.972825
343.783113	2409.737073
344.174605	2409.111970
344.566033	2406.762793
344.957397	2404.491753
345.348697	2402.936557
345.739934	2403.518810
346.131106	2401.603172
346.522215	2398.681823
346.913260	2396.599827
347.304241	2397.754251
347.695159	2394.169990
348.086012	2395.205948
348.476802	2392.251831
348.867528	2392.934908
349.258191	2390.333672
349.648789	2388.677653
350.039324	2387.336706
350.429796	2389.196892
350.820203	2388.037427
351.210548	2388.584392
351.600828	2385.980636
351.991045	2385.105996
352.381198	2383.880995
352.771288	2387.167828
353.161314	2386.787221
353.551276	2386.817468
353.941175	2386.870400
354.331010	2385.017776
354.720782	2385.867210
355.110490	2386.154556
355.500135	2383.137425
355.889717	2386.842673
356.279235	2386.961140
356.668689	2388.178579
357.058080	2388.198744
357.447408	2389.728734
357.836672	2386.898126
358.225873	2389.143960
358.615010	2387.155225
359.004084	2391.672099
359.393095	2393.212171
359.782043	2393.643190
360.170927	2395.541184
360.559748	2394.984137
360.948505	2395.475649
361.337199	2397.222409
361.725830	2397.076216
362.114398	2400.786505
362.502903	2400.829355
362.891344	2400.879766
363.279722	2400.428583
363.668037	2399.337173
364.056289	2399.972358
364.444478	2404.895045
364.832603	2403.707853
365.220665	2405.114335
365.608665	2406.253636
365.996601	2407.186250
366.384474	2407.418143
366.772284	2410.001734
367.160031	2408.227248
367.547715	2408.663308
367.935336	2412.257650
368.322893	2411.319996
368.710388	2413.500295
369.097820	2418.919535
369.485189	2415.965419
369.872495	2419.085893
370.259738	2417.858372
370.646918	2422.649989
371.034035	2422.226532
371.421090	2428.396904
371.808081	2431.726587
372.195010	2433.874118
372.581875	2441.294697
372.968678	2447.490275
373.355418	2456.967644
373.742096	2465.693881
374.128710	2475.672845
374.515262	2487.945534
374.901751	2500.235867
375.288177	2519.162879
375.674540	2538.707433
376.060841	2559.872717
376.447079	2585.025554
376.833254	2610.125459
377.219367	2637.393061
377.605417	2672.514779
377.991404	2697.402956
378.377329	2739.786457
378.763191	2772.097732
379.148991	2822.572285
379.534727	2870.826210
379.920402	2920.015269
380.306013	2967.951601
380.691563	3032.402753
381.077049	3089.907194
381.462474	3144.626399
381.847835	3218.645661
382.233134	3294.872948
382.618371	3354.678677
383.003545	3437.451902
383.388657	3522.596991
383.773706	3616.987555
384.158693	3688.907177
384.543618	3785.079789
384.928480	3866.771687
385.313280	3972.807317
385.698017	4076.541661
386.082692	4197.859548
386.467305	4260.626955
386.851856	4390.005648
387.236344	4551.446079
387.620770	4610.969503
388.005133	4735.478442
388.389435	4881.727356
388.773674	4970.691118
389.157851	5104.800934
389.541965	5242.094238
389.926018	5267.176499
390.310008	5447.281803
390.693936	5571.400052
391.077802	5689.720974
391.461606	5823.641746
391.845348	5940.248676
392.229027	6062.242078
392.612645	6284.642663
392.996200	6406.227732
393.379694	6583.772129
393.763125	6811.412993
394.146494	6902.279791
394.529801	7041.876902
394.913047	7293.581714
395.296230	7283.811958
395.679351	7352.195210
396.062410	7615.471990
396.445408	7507.419898
396.828343	7664.630802
397.211217	7809.674880
397.594028	7692.430244
397.976778	7894.295688
398.359466	8061.934218
398.742092	8034.041514
399.124656	8190.385339
399.507158	8372.968370
399.889598	8390.100731
400.271977	8605.932692
400.654294	8643.794278
401.036549	8843.441614
401.418742	8868.075212
401.800874	9176.157768
402.182944	9256.158359
402.564952	9626.937745
402.946898	9444.314385
403.328783	9503.363941
403.710606	9704.390032
404.092367	9961.980391
404.474067	10334.166259
404.855705	10119.125759
405.237282	10070.420652
405.618797	10500.070632
406.000250	10752.519014
406.381642	11118.345466
406.762972	11070.832591
407.144240	10866.219718
407.525447	11126.005499
407.906593	11066.340923
408.287677	11325.085706
408.668700	11485.190232
409.049661	11458.053700
409.430560	11621.654266
409.811399	11596.335071
410.192176	11751.894996
410.572891	11826.388127
410.953545	12322.845999
411.334138	11793.262705
411.714669	12400.968760
412.095139	11701.929600
412.475547	12211.282743
412.855894	12051.679813
413.236180	12381.956048
413.616405	12057.925802
413.996568	12350.710977
414.376670	12312.017600
414.756711	12191.022346
415.136691	12476.742343
415.516609	12658.617092
415.896466	12733.160634
416.276262	13017.983305
416.655997	13463.495277
417.035670	13491.844205
417.415283	14151.678312
417.794834	14252.166152
418.174324	13995.873890
418.553753	13892.056368
418.933121	14397.134613
419.312428	14193.252707
419.691674	14102.910189
420.070859	14570.567949
420.449983	14213.656778
420.829045	14775.891625
421.208047	14516.322613
421.586988	14979.647502
421.965867	15241.923613
422.344686	15235.934722
422.723444	15804.468491
423.102141	14476.610924
423.480777	15677.678431
423.859352	15179.816597
424.237866	16295.794468
424.616319	15997.262379
424.994712	16659.135632
425.373044	16451.548478
425.751314	17137.422665
426.129524	16255.253509
426.507673	17353.552053
426.885762	17051.987710
427.263789	17255.451200
427.641756	17415.601096
428.019662	17476.004201
428.397508	17518.788474
428.775292	17821.862643
429.153016	17783.902754
429.530679	17865.937451
429.908282	17891.828817
430.285824	17602.325434
430.663305	18311.182241
431.040726	17910.249193
431.418086	17738.817195
431.795385	18398.928565
432.172624	18811.925094
432.549802	18374.287405
432.926920	18556.855312
433.303977	18445.024876
433.680974	18701.599442
434.057910	18987.216095
434.434786	19023.580458
434.811601	18930.813145
435.188355	19973.865685
435.565050	19617.249421
435.941683	19560.647345
436.318257	20456.609098
436.694770	20271.409708
437.071222	20862.280830
437.447614	19928.326422
437.823946	19953.365833
438.200218	20104.504666
438.576429	19885.864783
438.952580	20151.886471
439.328670	20122.012593
439.704700	20539.336953
440.080670	20104.096333
440.456580	20699.517096
440.832429	20878.309179
441.208218	19860.071719
441.583947	20318.093313
441.959616	20420.736247
442.335224	20656.432874
442.710773	20788.264089
443.086261	21334.997388
443.461689	20698.372754
443.837057	20816.756690
444.212365	21459.836522
444.587612	21454.795368
444.962800	21030.413393
445.337927	21453.076334
445.712995	20186.125988
446.088002	22046.329401
446.462949	22235.148339
446.837837	22413.660638
447.212664	22376.935832
447.587431	25214.429933
447.962139	28162.131219
448.336786	30567.893342
448.711374	29017.516724
449.085901	25304.167513
449.460369	25246.035447
449.834776	25164.784650
450.209124	27656.906780
450.583412	27180.343822
450.957640	27716.871305
451.331808	26366.174791
451.705917	24982.604912
452.079965	25033.482757
452.453954	25389.922581
452.827883	25274.936382
453.201752	25065.718415
453.575562	25229.870987
453.949311	26361.244542
454.323001	26412.518118
454.696632	26181.008169
455.070202	27734.850580
455.443713	27876.459113
455.817164	28475.764085
456.190556	29005.480969
456.563888	28441.232181
456.937160	28884.591579
457.310373	27204.962297
457.683526	27664.569334
458.056619	27638.599830
458.429653	27571.272700
458.802628	28152.583273
459.175542	28266.775490
459.548398	29565.434694
459.921194	31139.562709
460.293930	31804.647177
460.666607	33814.126718
461.039224	35589.492553
461.411782	36000.026478
461.784280	34810.881300
462.156719	34331.291129
462.529099	33768.728607
462.901419	32479.939982
463.273680	31413.917425
463.645882	31484.233959
464.018024	31460.779991
464.390106	32297.278813
464.762130	34986.633567
465.134094	39023.425730
465.505999	44322.706817
465.877845	48916.843908
466.249631	50113.797833
466.621358	48429.467675
466.993026	46338.331524
467.364634	44249.340385
467.736184	42263.216510
468.107674	41015.649400
468.479105	40222.822094
468.850477	39524.685301
469.221790	38083.842873
469.593043	36351.170570
469.964238	35443.810768
470.335373	35357.377665
470.706449	37068.292348
471.077467	39637.128237
471.448425	44192.703021
471.819324	47036.420427
472.190164	45195.572523
472.560945	41640.404638
472.931667	38517.190540
473.302330	37406.916734
473.672934	36597.196521
474.043479	37087.410924
474.413965	36274.928159
474.784393	35888.559005
475.154761	36781.213760
475.525070	36817.172311
475.895321	36343.939034
476.265513	36934.260670
476.635645	37890.353306
477.005719	37698.313071
477.375734	38172.572222
477.745691	38842.186167
478.115588	40188.174243
478.485427	42116.110600
478.855207	45441.129648
479.224928	48047.600271
479.594591	49684.278922
479.964194	48682.460501
480.333739	48837.445735
480.703226	48842.849852
481.072653	49451.508685
481.442022	49909.840310
481.811333	50165.411687
482.180584	48847.528043
482.549777	48295.531779
482.918912	47744.216071
483.287988	47425.721012
483.657005	46574.688543
484.025964	45911.791936
484.394864	45900.051088
484.763706	45450.443180
485.132489	44551.895315
485.501213	44345.449983
485.869879	44457.963496
486.238487	44010.518242
486.607036	44158.067774
486.975527	43563.708174
487.343959	43725.914860
487.712333	43750.203140
488.080648	43610.280873
488.448905	44009.285680
488.817104	43777.763128
489.185244	44652.917518
489.553326	46199.064608
489.921350	48797.976021
490.289315	51612.789970
490.657222	52140.482832
491.025070	52360.413250
491.392861	51383.694734
491.760593	50052.769625
492.128267	48290.472981
492.495883	46708.574027
492.863440	45259.310352
493.230939	43842.708313
493.598380	42682.617825
493.965763	42244.962492
494.333088	41366.072607
494.700354	40783.572321
495.067563	40395.325337
495.434713	40163.008803
495.801805	40119.654880
496.168839	39613.228127
496.535815	39176.361734
496.902733	39068.695291
497.269593	38556.498937
497.636395	38348.997483
498.003139	38585.793082
498.369825	37939.275183
498.736453	38084.127698
499.103023	37508.291818
499.469535	37243.540500
499.835989	37182.386263
500.202385	36717.692701
500.568723	36574.559220
500.935003	36580.590961
501.301226	36229.638433
501.667390	36624.149050
502.033497	36683.120468
502.399546	35996.563205
502.765537	35235.923666
503.131470	35407.564872
503.497345	35529.354108
503.863163	34184.606155
504.228923	34527.984349
504.594625	34696.994073
504.960269	33887.341915
505.325856	34295.950120
505.691385	33555.089548
506.056856	33482.063393
506.422270	33636.116013
506.787625	33081.490788
507.152924	33038.361196
507.518164	32911.929058
507.883347	32045.586605
508.248472	32054.514488
508.613540	32225.782649
508.978550	32255.704417
509.343503	31811.273774
509.708398	31734.653277
510.073236	31942.089196
510.438016	31714.970091
510.802738	31055.718238
511.167403	31298.641360
511.532010	31238.331516
511.896561	31231.868757
512.261053	31625.880300
512.625488	31032.123118
512.989866	30698.164319
513.354186	30327.213534
513.718449	30076.932849
514.082655	30308.334413
514.446803	29839.363432
514.810894	29940.095769
515.174927	29620.801687
515.538904	29310.120417
515.902822	29505.155097
516.266684	28863.141470
516.630488	28890.570388
516.994235	28521.752011
517.357925	28650.419901
517.721558	28490.080962
518.085133	28408.273117
518.448651	28225.785868
518.812112	27803.730386
519.175516	27590.456811
519.538863	27545.986272
519.902152	27242.418070
520.265385	27253.443073
520.628560	27005.103232
520.991678	26606.668076
521.354739	26468.210265
521.717743	26391.713276
522.080690	26061.835292
522.443580	26095.318636
522.806413	25853.320566
523.169189	25534.276021
523.531908	25377.675098
523.894569	25018.046744
524.257174	24835.713250
524.619722	24726.547064
524.982213	24445.558190
525.344647	24133.062104
525.707025	23887.230237
526.069345	23819.025946
526.431608	23504.750333
526.793815	23396.874681
527.155964	22882.437534
527.518057	22698.379966
527.880093	22327.472031
528.242072	22326.330209
528.603995	21914.498187
528.965860	21667.610198
529.327669	21450.833021
529.689421	21141.759879
530.051117	20870.664269
530.412755	20680.222079
530.774337	20453.531473
531.135862	20129.037441
531.497331	19955.886410
531.858743	19665.883952
532.220098	19554.998732
532.581396	19195.657724
532.942638	18819.988419
533.303824	18701.954843
533.664953	18452.906720
534.026025	18099.287421
534.387040	18054.285041
534.747999	17795.542779
535.108902	17616.833875
535.469748	17206.569651
535.830537	17026.066097
536.191270	16875.118827
536.551947	16535.713062
536.912567	16417.918941
537.273131	16240.571148
537.633638	15854.328023
537.994089	15753.762045
538.354483	15420.758545
538.714821	15393.838784
539.075103	15296.360513
539.435328	15038.777716
539.795497	14785.787410
540.155609	14585.018417
540.515665	14516.282284
540.875665	14181.859700
541.235609	14073.600921
541.595496	13881.394327
541.955328	13866.805228
542.315102	13518.567362
542.674821	13273.673149
543.034483	13096.489194
543.394090	12904.728743
543.753640	12706.560985
544.113134	12776.678394
544.472571	12354.305319
544.831953	12471.207156
545.191278	12132.391206
545.550548	11893.616954
545.909761	11829.178405
546.268918	11706.824560
546.628019	11604.766401
546.987064	11352.615447
547.346053	11048.104549
547.704986	11069.166490
548.063863	10830.596405
548.422684	10711.907478
548.781449	10534.516836
549.140158	10457.669487
549.498811	10287.149938
549.857408	10043.377382
550.215949	10042.555674
550.574434	9886.247137
550.932864	9716.745901
551.291237	9691.283033
551.649555	9500.490483
552.007817	9401.096573
552.366022	9214.962050
552.724173	9109.115463
553.082267	9044.099702
553.440305	8952.310372
553.798288	8735.944049
554.156215	8648.263261
554.514086	8558.520640
554.871902	8405.995489
555.229661	8291.621791
555.587365	8154.436871
555.945014	8047.912249
556.302606	7926.178466
556.660143	7840.062955
557.017625	7736.963797
557.375050	7602.927078
557.732421	7540.608335
558.089735	7425.977537
558.446994	7313.005280
558.804197	7264.237157
559.161345	7156.043913
559.518437	6979.439691
559.875474	6909.120636
560.232455	6827.388409
560.589381	6748.920329
560.946251	6631.907586
561.303065	6599.558502
561.659825	6492.643191
562.016528	6376.253031
562.373177	6261.980155
562.729770	6216.962652
563.086307	6090.081850
563.442789	6047.509306
563.799216	5971.196319
564.155587	5876.815837
564.511904	5797.415143
564.868164	5729.372169
565.224370	5677.773439
565.580520	5583.365230
565.936615	5526.639647
566.292654	5439.828457
566.648638	5386.931630
567.004567	5317.167102
567.360441	5257.406743
567.716260	5179.687274
568.072023	5139.801665
568.427732	5076.963682
568.783385	4993.953523
569.138982	4955.509683
569.494525	4899.764604
569.850013	4832.543338
570.205445	4781.763796
570.560823	4730.558275
570.916145	4671.188607
571.271412	4621.245895
571.626625	4564.336310
571.981782	4517.090616
572.336884	4461.413592
572.691931	4433.533491
573.046923	4374.231878
573.401860	4327.883509
573.756743	4288.628044
574.111570	4245.092639
574.466342	4202.567986
574.821059	4164.051050
575.175722	4115.227475
575.530330	4080.846806
575.884882	4031.690515
576.239380	3998.391173
576.593823	3965.232984
576.948211	3929.168569
577.302544	3885.063514
577.656823	3857.952189
578.011047	3837.313705
578.365216	3796.724855
578.719330	3764.766460
579.073389	3730.980647
579.427394	3710.566494
579.781344	3690.361550
580.135239	3653.871158
580.489080	3634.429948
580.842866	3596.880913
581.196597	3591.121395
581.550273	3569.462078
581.903895	3543.316133
582.257463	3536.326573
582.610975	3503.254083
582.964434	3486.487206
583.317837	3466.007518
583.671186	3445.295938
584.024481	3432.786314
584.377721	3401.533681
584.730906	3393.911457
585.084037	3381.169940
585.437113	3356.072556
585.790135	3340.712160
586.143103	3319.793892
586.496016	3308.771409
586.848874	3291.137453
587.201679	3282.375928
587.554428	3256.204777
587.907124	3250.662029
588.259765	3231.142681
588.612352	3229.078329
588.964884	3208.081923
589.317362	3203.227292
589.669786	3193.518029
590.022155	3177.154444
590.374470	3174.568332
590.726731	3156.568892
591.078937	3138.728249
591.431090	3129.689460
591.783188	3116.287552
592.135232	3104.486211
592.487222	3098.807352
592.839157	3095.233173
593.191038	3078.476378
593.542866	3067.678227
593.894639	3048.683159
594.246358	3051.153324
594.598022	3041.968342
594.949633	3032.337218
595.301190	3021.902029
595.652692	3014.710823
596.004141	3008.565657
596.355535	2992.640652
596.706876	2984.642861
597.058162	2974.822693
597.409395	2976.650112
597.760573	2972.859164
598.111698	2961.249387
598.462768	2955.333593
598.813785	2951.618262
599.164748	2941.248609
599.515657	2939.433793
599.866511	2926.916608
600.217312	2929.888368
600.568060	2913.945719
600.918753	2919.092738
601.269392	2914.316244
601.619978	2902.640932
601.970510	2904.133113
602.320988	2897.065416
602.671412	2899.023904
603.021783	2892.591392
603.372100	2882.249465
603.722363	2881.001779
604.072572	2876.121942
604.422728	2873.868546
604.772830	2863.327494
605.122878	2858.949252
605.472872	2857.197451
605.822813	2852.831811
606.172701	2851.929445
606.522534	2852.161338
606.872314	2849.182016
607.222041	2841.179184
607.571714	2844.219000
607.921333	2832.889007
608.270899	2836.642146
608.620411	2832.881445
608.969870	2827.961279
609.319276	2822.554641
609.668627	2823.325938
610.017926	2823.101607
610.367171	2821.662357
610.716362	2818.738488
611.065500	2813.049546
611.414585	2810.896973
611.763616	2810.730615
612.112594	2807.169040
612.461518	2806.359935
612.810389	2804.174594
613.159207	2799.967752
613.507971	2796.953142
613.856682	2797.258131
614.205340	2792.511885
614.553945	2797.104376
614.902496	2790.371915
615.250994	2791.133129
615.599439	2786.028961
615.947830	2787.188427
616.296169	2783.377314
616.644454	2778.978907
616.992686	2779.140224
617.340864	2780.718106
617.688990	2776.274328
618.037063	2778.119391
618.385082	2775.387085
618.733048	2774.711571
619.080961	2773.569749
619.428821	2768.125303
619.776628	2767.595982
620.124382	2766.287803
620.472083	2760.921494
620.819731	2760.432502
621.167326	2756.386977
621.514868	2753.589136
621.862357	2748.623600
622.209793	2746.597056
622.557176	2741.621437
622.904506	2738.322002
623.251783	2730.606516
623.599007	2726.359344
623.946179	2724.438664
624.293297	2722.991853
624.640363	2718.268292
624.987376	2717.370966
625.334336	2713.610266
625.681243	2709.834441
626.028097	2707.601210
626.374899	2706.378730
626.721647	2704.919316
627.068343	2700.074767
627.414987	2699.237936
627.761577	2696.551001
628.108115	2697.319777
628.454600	2691.219981
628.801032	2690.589837
629.147412	2690.728468
629.493739	2689.604291
629.840014	2684.898374
630.186236	2681.798064
630.532405	2682.834021
630.878521	2678.385203
631.224585	2679.406037
631.570597	2676.172137
631.916556	2674.445541
632.262462	2674.720284
632.608316	2673.525531
632.954117	2674.206087
633.299866	2671.882115
633.645562	2669.109480
633.991206	2666.122596
634.336797	2661.260403
634.682336	2662.555980
635.027823	2659.448109
635.373257	2657.076246
635.718639	2655.647079
636.063968	2652.067859
636.409245	2650.863024
636.754470	2650.101809
637.099642	2648.014772
637.444762	2643.218114
637.789829	2644.657363
638.134845	2641.665438
638.479808	2639.109573
