Dividing Wavelength (nm)	Counts (n)	Blue Motor Position (mm): 0.000000	Red Motor Position (mm): 1.800000	
326.493990	1975.852524
326.888308	1975.852524
327.282561	1975.852524
327.676750	1951.055088
328.070874	1950.072063
328.464933	1956.708742
328.858929	1966.415484
329.252859	1977.453090
329.646726	1993.010091
330.040528	2008.403254
330.434265	2028.303209
330.827938	2045.183513
331.221547	2064.811245
331.615091	2087.304873
332.008571	2106.478902
332.401986	2127.888683
332.795338	2148.406179
333.188625	2166.660197
333.581847	2186.222394
333.975006	2204.554550
334.368100	2225.339228
334.761129	2238.300034
335.154095	2255.082035
335.546996	2266.371699
335.939833	2281.865686
336.332606	2296.154836
336.725315	2308.130097
337.117960	2316.916828
337.510540	2321.889927
337.903056	2330.724549
338.295508	2337.572956
338.687896	2346.440346
339.080220	2353.276150
339.472480	2355.607684
339.864676	2361.112624
340.256807	2361.160515
340.648875	2364.059178
341.040879	2368.502956
341.432818	2367.308202
341.824694	2366.534385
342.216506	2367.847606
342.608253	2365.742924
342.999937	2366.715867
343.391557	2363.875176
343.783113	2361.644466
344.174605	2365.498428
344.566033	2361.205885
344.957397	2360.139681
345.348697	2359.247397
345.739934	2355.882427
346.131106	2354.435616
346.522215	2354.753208
346.913260	2350.717765
347.304241	2350.543845
347.695159	2348.756756
348.086012	2345.359018
348.476802	2345.913545
348.867528	2343.420695
349.258191	2338.866012
349.648789	2341.121928
350.039324	2339.753255
350.429796	2338.440035
350.820203	2339.286948
351.210548	2336.738645
351.600828	2338.702175
351.991045	2336.786536
352.381198	2336.287462
352.771288	2337.877946
353.161314	2335.634633
353.551276	2335.901814
353.941175	2335.697647
354.331010	2339.523883
354.720782	2338.563543
355.110490	2337.726711
355.500135	2338.054386
355.889717	2338.157730
356.279235	2335.614468
356.668689	2337.401557
357.058080	2338.800477
357.447408	2336.920127
357.836672	2336.499190
358.225873	2335.100270
358.615010	2335.090188
359.004084	2340.706033
359.393095	2342.104953
359.782043	2343.829028
360.170927	2342.770386
360.559748	2342.392299
360.948505	2340.736280
361.337199	2340.242247
361.725830	2343.392968
362.114398	2343.559326
362.502903	2343.680314
362.891344	2344.118894
363.279722	2345.447238
363.668037	2344.819615
364.056289	2344.325582
364.444478	2347.874554
364.832603	2346.067300
365.220665	2347.849348
365.608665	2346.266426
365.996601	2347.791375
366.384474	2347.861951
366.772284	2346.692403
367.160031	2346.672239
367.547715	2347.279698
367.935336	2348.524863
368.322893	2348.308093
368.710388	2348.161900
369.097820	2351.622652
369.485189	2351.050481
369.872495	2352.376304
370.259738	2351.272292
370.646918	2352.197343
371.034035	2351.370594
371.421090	2352.857735
371.808081	2351.095851
372.195010	2354.233970
372.581875	2353.654237
372.968678	2354.221367
373.355418	2355.310256
373.742096	2357.142715
374.128710	2356.305884
374.515262	2359.925432
374.901751	2358.617253
375.288177	2358.254290
375.674540	2359.133971
376.060841	2360.996678
376.447079	2362.226719
376.833254	2363.764271
377.219367	2359.466687
377.605417	2363.814683
377.991404	2361.684795
378.377329	2365.203520
378.763191	2362.826616
379.148991	2370.302648
379.534727	2369.289376
379.920402	2372.677031
380.306013	2371.436907
380.691563	2374.388503
381.077049	2376.420088
381.462474	2376.747763
381.847835	2378.040819
382.233134	2379.475027
382.618371	2377.965201
383.003545	2381.095758
383.388657	2383.696993
383.773706	2385.552138
384.158693	2382.721530
384.543618	2385.045502
384.928480	2386.381408
385.313280	2388.521377
385.698017	2387.558517
386.082692	2390.701677
386.467305	2390.129506
386.851856	2392.718138
387.236344	2391.967006
387.620770	2392.977757
388.005133	2393.310474
388.389435	2392.889537
388.773674	2391.533467
389.157851	2396.909857
389.541965	2393.764177
389.926018	2390.653786
390.310008	2394.454816
390.693936	2392.748385
391.077802	2392.282078
391.461606	2393.091183
391.845348	2392.045144
392.229027	2392.733262
392.612645	2390.043806
392.996200	2388.113044
393.379694	2390.507592
393.763125	2389.534649
394.146494	2388.591954
394.529801	2386.819988
394.913047	2388.362581
395.296230	2384.533825
395.679351	2383.356715
396.062410	2380.856303
396.445408	2381.337733
396.828343	2379.611138
397.211217	2372.445138
397.594028	2374.201980
397.976778	2371.956146
398.359466	2369.944726
398.742092	2368.429859
399.124656	2372.974459
399.507158	2372.608975
399.889598	2370.327853
400.271977	2370.690816
400.654294	2370.060672
401.036549	2369.707791
401.418742	2369.256608
401.800874	2368.578573
402.182944	2371.111753
402.564952	2371.348687
402.946898	2367.640918
403.328783	2369.072606
403.710606	2368.364324
404.092367	2369.191073
404.474067	2370.098481
404.855705	2368.450023
405.237282	2368.157637
405.618797	2369.485981
406.000250	2369.949767
406.381642	2369.370034
406.762972	2370.259798
407.144240	2367.451875
407.525447	2371.585621
407.906593	2369.773326
408.287677	2371.860364
408.668700	2370.098481
409.049661	2370.625281
409.430560	2369.019674
409.811399	2371.220138
410.192176	2372.059490
410.572891	2371.678883
410.953545	2369.443131
411.334138	2370.768954
411.714669	2371.951105
412.095139	2372.119983
412.475547	2371.255426
412.855894	2373.307175
413.236180	2371.489839
413.616405	2373.405478
413.996568	2371.588142
414.376670	2375.157279
414.756711	2373.261805
415.136691	2371.986393
415.516609	2370.746269
415.896466	2372.374562
416.276262	2372.288862
416.655997	2370.348018
417.035670	2371.494880
417.415283	2374.413708
417.794834	2369.072606
418.174324	2375.540406
418.553753	2376.473020
418.933121	2373.569315
419.312428	2370.831969
419.691674	2373.390354
420.070859	2373.773482
420.449983	2376.873792
420.829045	2374.799357
421.208047	2373.445807
421.586988	2375.305993
421.965867	2373.927237
422.344686	2373.763400
422.723444	2376.054604
423.102141	2372.682072
423.480777	2377.120808
423.859352	2376.909080
424.237866	2377.100643
424.616319	2379.238093
424.994712	2375.356404
425.373044	2375.873123
425.751314	2376.846065
426.129524	2375.810108
426.507673	2377.395551
426.885762	2375.192567
427.263789	2376.399923
427.641756	2378.708772
428.019662	2378.746580
428.397508	2375.747094
428.775292	2379.291025
429.153016	2377.909749
429.530679	2378.265150
429.908282	2377.594677
430.285824	2379.222969
430.663305	2378.159286
431.040726	2377.692979
431.418086	2377.675335
431.795385	2379.233052
432.172624	2377.672814
432.549802	2378.711292
432.926920	2376.747763
433.303977	2380.548793
433.680974	2375.605941
434.057910	2378.645757
434.434786	2378.325644
434.811601	2380.508463
435.188355	2379.369163
435.565050	2379.112064
435.941683	2378.020654
436.318257	2377.302290
436.694770	2375.051414
437.071222	2378.212218
437.447614	2378.123998
437.823946	2376.407485
438.200218	2378.428988
438.576429	2381.433515
438.952580	2379.348998
439.328670	2378.323123
439.704700	2378.537372
440.080670	2382.086345
440.456580	2380.347147
440.832429	2381.110881
441.208218	2381.627600
441.583947	2381.786396
441.959616	2380.241282
442.335224	2382.260264
442.710773	2380.074924
443.086261	2382.088865
443.461689	2381.433515
443.837057	2381.551982
444.212365	2384.009545
444.587612	2380.614328
444.962800	2381.438556
445.337927	2384.122971
445.712995	2380.694986
446.088002	2381.577188
446.462949	2381.965357
446.837837	2381.700696
447.212664	2383.520553
447.587431	2382.671118
447.962139	2381.811602
448.336786	2385.131202
448.711374	2382.713968
449.085901	2384.019627
449.460369	2381.708258
449.834776	2383.918804
450.209124	2383.933928
450.583412	2382.618186
450.957640	2382.683721
451.331808	2382.577857
451.705917	2382.020810
452.079965	2383.155069
452.453954	2382.287991
452.827883	2386.353681
453.201752	2383.586088
453.575562	2385.385780
453.949311	2379.626262
454.323001	2384.216232
454.696632	2384.667415
455.070202	2384.609442
455.443713	2385.637837
455.817164	2381.057949
456.190556	2383.709596
456.563888	2382.880326
456.937160	2378.776827
457.310373	2384.243958
457.683526	2386.764535
458.056619	2384.979967
458.429653	2386.966182
458.802628	2384.090203
459.175542	2383.150028
459.548398	2384.823691
459.921194	2385.325286
460.293930	2387.069525
460.666607	2383.994421
461.039224	2386.172200
461.411782	2386.575492
461.784280	2385.158928
462.156719	2384.226314
462.529099	2386.119268
462.901419	2385.042981
463.273680	2386.726727
463.645882	2385.993239
464.018024	2385.786552
464.390106	2384.927035
464.762130	2389.138919
465.134094	2386.328476
465.505999	2386.870400
465.877845	2386.015924
466.249631	2387.210678
466.621358	2387.152704
466.993026	2388.168497
467.364634	2391.810730
467.736184	2388.806203
468.107674	2387.238404
468.479105	2389.912736
468.850477	2384.105327
469.221790	2387.112375
469.593043	2386.169679
469.964238	2386.880482
470.335373	2387.717313
470.706449	2386.630945
471.077467	2387.939124
471.448425	2388.256717
471.819324	2388.236552
472.190164	2388.087838
472.560945	2386.023486
472.931667	2388.780997
473.302330	2387.240924
473.672934	2388.082797
474.043479	2389.010369
474.413965	2386.411655
474.784393	2380.644575
475.154761	2387.374515
475.525070	2387.099772
475.895321	2384.153218
476.265513	2384.150697
476.635645	2386.963661
477.005719	2388.113044
477.375734	2388.423075
477.745691	2387.387118
478.115588	2388.370143
478.485427	2390.454660
478.855207	2390.558004
479.224928	2388.846532
479.594591	2387.732437
479.964194	2388.082797
480.333739	2388.833929
480.703226	2387.848383
481.072653	2390.222767
481.442022	2388.453322
481.811333	2389.469114
482.180584	2390.210164
482.549777	2389.927859
482.918912	2388.062633
483.287988	2388.188661
483.657005	2387.871069
484.025964	2390.232849
484.394864	2389.423744
484.763706	2390.752088
485.132489	2388.874258
485.501213	2391.132695
485.869879	2388.700338
486.238487	2389.567417
486.607036	2387.994577
486.975527	2390.656306
487.343959	2388.627242
487.712333	2391.336862
488.080648	2389.718652
488.448905	2389.272509
488.817104	2387.535832
489.185244	2388.833929
489.553326	2389.257386
489.921350	2392.962634
490.289315	2390.815103
490.657222	2390.280740
491.025070	2392.440875
491.392861	2391.689743
491.760593	2391.740154
492.128267	2391.979609
492.495883	2389.154042
492.863440	2388.647406
493.230939	2388.506254
493.598380	2387.077087
493.965763	2386.184803
494.333088	2390.568086
494.700354	2388.864176
495.067563	2388.407952
495.434713	2382.240100
495.801805	2390.116903
496.168839	2390.711759
496.535815	2391.523385
496.902733	2389.854763
497.269593	2389.847201
497.636395	2389.300236
498.003139	2390.285781
498.369825	2391.190668
498.736453	2393.141595
499.103023	2389.680843
499.469535	2392.488766
499.835989	2390.522716
500.202385	2388.844011
500.568723	2393.660834
500.935003	2390.789897
501.301226	2391.926677
501.667390	2393.040772
502.033497	2393.774260
502.399546	2392.355175
502.765537	2391.798128
503.131470	2391.417520
503.497345	2391.593961
503.863163	2390.366440
504.228923	2390.444578
504.594625	2390.986502
504.960269	2390.137067
505.325856	2394.041441
505.691385	2392.037582
506.056856	2390.497510
506.422270	2393.552449
506.787625	2394.517830
507.152924	2392.430792
507.518164	2392.604712
507.883347	2390.593292
508.248472	2393.257542
508.613540	2392.508930
508.978550	2390.303425
509.343503	2391.092366
509.708398	2393.519682
510.073236	2391.110010
510.438016	2392.360216
510.802738	2392.337531
511.167403	2392.271996
511.532010	2390.883158
511.896561	2393.660834
512.261053	2392.894578
512.625488	2390.003477
512.989866	2388.143291
513.354186	2390.709238
513.718449	2386.651109
514.082655	2394.898437
514.446803	2391.765360
514.810894	2393.509599
515.174927	2396.007491
515.538904	2390.389125
515.902822	2393.496996
516.266684	2395.274003
516.630488	2394.432130
516.994235	2394.510268
517.357925	2391.178066
517.721558	2392.614794
518.085133	2391.135216
518.448651	2393.446585
518.812112	2391.450288
519.175516	2390.023641
519.538863	2392.415669
519.902152	2394.192676
520.265385	2391.924156
520.628560	2393.093704
520.991678	2392.337531
521.354739	2392.256873
521.717743	2392.239228
522.080690	2393.237377
522.443580	2391.556152
522.806413	2395.437841
523.169189	2394.134702
523.531908	2394.341390
523.894569	2396.567059
524.257174	2394.001112
524.619722	2392.299722
524.982213	2393.025648
525.344647	2392.236708
525.707025	2392.982799
526.069345	2391.576317
526.431608	2392.259393
526.793815	2391.725031
527.155964	2392.473642
527.518057	2391.732593
527.880093	2392.203940
528.242072	2391.084804
528.603995	2395.130330
528.965860	2393.837274
529.327669	2392.592109
529.689421	2393.421379
530.051117	2394.147305
530.412755	2392.566903
530.774337	2392.458519
531.135862	2397.996226
531.497331	2391.626728
531.858743	2387.082128
532.220098	2392.176214
532.581396	2388.246635
532.942638	2390.628580
533.303824	2394.316184
533.664953	2393.572614
534.026025	2394.323746
534.387040	2394.641338
534.747999	2393.900289
535.108902	2395.057233
535.469748	2391.576317
535.830537	2393.857439
536.191270	2392.629918
536.551947	2392.844167
536.912567	2393.887686
537.273131	2392.461039
537.633638	2391.846018
537.994089	2390.915926
538.354483	2392.788714
538.714821	2391.281409
539.075103	2391.772922
539.435328	2391.641852
539.795497	2393.950700
540.155609	2394.338869
540.515665	2392.019938
540.875665	2396.057903
541.235609	2390.971378
541.595496	2394.580844
541.955328	2391.155380
542.315102	2392.266955
542.674821	2394.563200
543.034483	2394.701832
543.394090	2395.415155
543.753640	2395.180742
544.113134	2393.300391
544.472571	2394.580844
544.831953	2396.302398
545.191278	2394.096894
545.550548	2395.445402
545.909761	2394.671585
546.268918	2393.847357
546.628019	2392.723179
546.987064	2392.340052
547.346053	2393.955741
547.704986	2393.204609
548.063863	2393.181924
548.422684	2394.316184
548.781449	2392.405587
549.140158	2392.158570
549.498811	2394.411966
549.857408	2393.113869
550.215949	2390.036244
550.574434	2389.206974
550.932864	2391.465411
551.291237	2386.419216
551.649555	2394.626215
552.007817	2391.679660
552.366022	2394.933725
552.724173	2395.140413
553.082267	2395.455485
553.440305	2396.047820
553.798288	2392.730741
554.156215	2394.066647
554.514086	2395.359703
554.871902	2392.781153
555.229661	2395.311812
555.587365	2392.836605
555.945014	2395.344579
556.302606	2395.311812
556.660143	2394.827861
557.017625	2393.978427
557.375050	2391.750237
557.732421	2392.226626
558.089735	2393.892727
558.446994	2390.124464
558.804197	2394.376678
559.161345	2393.249980
559.518437	2390.918446
559.875474	2393.824671
560.232455	2393.202089
560.589381	2393.358365
560.946251	2393.151677
561.303065	2392.844167
561.659825	2393.131513
562.016528	2394.802655
562.373177	2394.359034
562.729770	2392.763508
563.086307	2395.571431
563.442789	2393.975906
563.799216	2394.439692
564.155587	2392.944990
564.511904	2393.398694
564.868164	2392.899620
565.224370	2394.328787
565.580520	2396.549415
565.936615	2393.983468
566.292654	2393.275186
566.648638	2395.417676
567.004567	2394.071688
567.360441	2392.977758
567.716260	2394.298540
568.072023	2390.653786
568.427732	2392.335010
568.783385	2393.965824
569.138982	2389.073384
569.494525	2390.348796
569.850013	2389.383415
570.205445	2395.205948
570.560823	2393.267624
570.916145	2392.887017
571.271412	2395.284085
571.626625	2393.824671
571.981782	2393.741492
572.336884	2393.128992
572.691931	2393.844836
573.046923	2394.353993
573.401860	2397.527399
573.756743	2393.706204
574.111570	2394.522871
574.466342	2393.370968
574.821059	2393.648231
575.175722	2396.277193
575.530330	2393.388612
575.884882	2394.890875
576.239380	2395.185783
576.593823	2394.543036
576.948211	2395.130330
577.302544	2395.919271
577.656823	2394.361554
578.011047	2396.118396
578.365216	2391.200751
578.719330	2394.144785
579.073389	2396.335166
579.427394	2396.541853
579.781344	2390.704197
580.135239	2395.190824
580.489080	2394.658982
580.842866	2392.957593
581.196597	2397.272821
581.550273	2395.130330
581.903895	2393.018087
582.257463	2395.357182
582.610975	2394.117058
582.964434	2393.015566
583.317837	2392.881976
583.671186	2395.044631
584.024481	2394.394322
584.377721	2394.905999
584.730906	2393.920453
585.084037	2395.281565
585.437113	2394.008673
585.790135	2395.929353
586.143103	2393.675957
586.496016	2393.454147
586.848874	2388.337375
587.201679	2392.569424
587.554428	2393.859959
587.907124	2394.285937
588.259765	2391.183107
588.612352	2395.606719
588.964884	2396.645197
589.317362	2393.355844
589.669786	2395.258880
590.022155	2395.647048
590.374470	2395.274003
590.726731	2396.113355
591.078937	2393.151677
591.431090	2391.941800
591.783188	2395.084960
592.135232	2395.342059
592.487222	2395.672254
592.839157	2397.451782
593.191038	2396.499003
593.542866	2395.810886
593.894639	2390.300905
594.246358	2396.040258
594.598022	2394.835423
594.949633	2396.224261
595.301190	2394.076729
595.652692	2397.562687
596.004141	2390.701677
596.355535	2398.064282
596.706876	2393.398694
597.058162	2393.383570
597.409395	2391.306615
597.760573	2396.332645
598.111698	2393.209651
598.462768	2394.701832
598.813785	2394.800135
599.164748	2392.425751
599.515657	2393.267624
599.866511	2391.934239
600.217312	2394.089332
600.568060	2393.008004
600.918753	2396.496483
601.269392	2393.199568
601.619978	2393.421379
601.970510	2395.445402
602.320988	2394.308622
602.671412	2395.732748
603.021783	2393.895248
603.372100	2393.444064
603.722363	2393.320556
604.072572	2390.868035
604.422728	2394.346431
604.772830	2389.743857
605.122878	2391.173024
605.472872	2394.961452
605.822813	2389.625390
606.172701	2394.757285
606.522534	2394.225443
606.872314	2392.216543
607.222041	2392.065309
607.571714	2392.206461
607.921333	2393.721328
608.270899	2394.207799
608.620411	2393.292830
608.969870	2393.638149
609.319276	2392.380381
609.668627	2395.064795
610.017926	2394.018756
610.367171	2393.940618
610.716362	2396.078067
611.065500	2392.695453
611.414585	2395.604199
611.763616	2395.493293
612.112594	2394.336348
612.461518	2393.118910
612.810389	2392.776111
613.159207	2393.368447
613.507971	2395.765516
613.856682	2394.472460
614.205340	2393.706204
614.553945	2393.202089
614.902496	2394.709394
615.250994	2394.389281
615.599439	2391.041954
615.947830	2393.408776
616.296169	2394.001112
616.644454	2394.520351
616.992686	2391.641852
617.340864	2394.994219
617.688990	2393.799466
618.037063	2393.980947
618.385082	2393.101266
618.733048	2392.680329
619.080961	2393.857439
619.428821	2395.465567
619.776628	2393.305433
620.124382	2393.600340
620.472083	2393.827192
620.819731	2396.110835
621.167326	2392.743344
621.514868	2396.733417
621.862357	2393.675957
622.209793	2397.151833
622.557176	2394.643859
622.904506	2394.122099
623.251783	2387.820657
623.599007	2392.738303
623.946179	2389.506923
624.293297	2390.994063
624.640363	2392.771070
624.987376	2395.495814
625.334336	2393.439023
625.681243	2393.741492
626.028097	2391.909033
626.374899	2393.333159
626.721647	2393.224774
627.068343	2393.388612
627.414987	2392.879455
627.761577	2394.527912
628.108115	2394.190155
628.454600	2396.677964
628.801032	2393.237377
629.147412	2394.797614
629.493739	2395.077398
629.840014	2391.656975
630.186236	2393.844836
630.532405	2394.772408
630.878521	2393.509599
631.224585	2395.021945
631.570597	2392.256873
631.916556	2394.555639
632.262462	2393.567572
632.608316	2395.727707
632.954117	2394.119579
633.299866	2392.216543
633.645562	2391.979609
633.991206	2393.393653
634.336797	2392.796276
634.682336	2390.996584
635.027823	2394.911040
635.373257	2393.396173
635.718639	2394.326266
636.063968	2392.090514
636.409245	2393.887686
636.754470	2394.943807
637.099642	2393.365926
637.444762	2396.496483
637.789829	2394.190155
638.134845	2394.117058
638.479808	2394.858108
638.824719	2396.269631
639.169577	2392.224105
639.514383	2393.255021
639.859137	2394.263252
640.203839	2393.597819
640.548489	2395.034548
640.893086	2393.484393
641.237632	2385.935266
641.582125	2393.474311
641.926566	2388.382746
642.270955	2393.943138
642.615292	2394.144785
642.959576	2398.192831
643.303809	2391.263765
643.647990	2395.831051
643.992118	2395.367264
644.336195	2390.583209
