Dividing Wavelength (nm)	Counts (n)	Blue Motor Position (mm): 0.000000	Red Motor Position (mm): 24.600000	
326.493990	1984.651858
326.888308	1984.651858
327.282561	1984.651858
327.676750	1959.889710
328.070874	1964.167129
328.464933	1968.731894
328.858929	1977.846300
329.252859	1990.229894
329.646726	2005.025681
330.040528	2019.602177
330.434265	2036.472399
330.827938	2059.447457
331.221547	2078.429922
331.615091	2098.196286
332.008571	2119.142281
332.401986	2140.531896
332.795338	2160.363796
333.188625	2179.704182
333.581847	2198.643797
333.975006	2216.547455
334.368100	2234.430948
334.761129	2252.637076
335.154095	2267.480753
335.546996	2285.863321
335.939833	2307.797381
336.332606	2322.928404
336.725315	2331.921823
337.117960	2341.182422
337.510540	2346.626868
337.903056	2358.720597
338.295508	2364.938860
338.687896	2371.207535
339.080220	2380.029554
339.472480	2381.604914
339.864676	2387.361912
340.256807	2392.133364
340.648875	2392.176214
341.040879	2395.712583
341.432818	2395.319373
341.824694	2394.721997
342.216506	2396.425907
342.608253	2395.339538
342.999937	2392.884496
343.391557	2394.419528
343.783113	2391.193189
344.174605	2391.334341
344.566033	2388.604557
344.957397	2387.334186
345.348697	2383.838146
345.739934	2386.883003
346.131106	2383.034082
346.522215	2381.410830
346.913260	2378.746580
347.304241	2376.803215
347.695159	2377.871940
348.086012	2375.426980
348.476802	2373.498739
348.867528	2372.321630
349.258191	2372.946733
349.648789	2371.870446
350.039324	2371.862885
350.429796	2370.032946
350.820203	2365.437934
351.210548	2368.147554
351.600828	2367.620754
351.991045	2365.258973
352.381198	2368.482791
352.771288	2368.013964
353.161314	2366.552029
353.551276	2368.891124
353.941175	2368.203007
354.331010	2368.271063
354.720782	2366.252080
355.110490	2368.593696
355.500135	2366.741072
355.889717	2369.675024
356.279235	2368.571011
356.668689	2370.307689
357.058080	2368.321474
357.447408	2367.608151
357.836672	2366.065558
358.225873	2368.923892
358.615010	2366.110928
359.004084	2373.103008
359.393095	2372.135107
359.782043	2376.344470
360.170927	2374.880015
360.559748	2376.856147
360.948505	2377.677856
361.337199	2378.098792
361.725830	2377.148534
362.114398	2379.964019
362.502903	2380.188350
362.891344	2382.953423
363.279722	2383.782693
363.668037	2383.475183
364.056289	2381.937631
364.444478	2384.269164
364.832603	2384.584236
365.220665	2385.012734
365.608665	2385.758825
365.996601	2390.570607
366.384474	2385.531973
366.772284	2388.793600
367.160031	2389.028013
367.547715	2388.599515
367.935336	2389.572458
368.322893	2391.820813
368.710388	2393.592778
369.097820	2392.760988
369.485189	2395.387429
369.872495	2398.316339
370.259738	2399.034704
370.646918	2402.979407
371.034035	2402.248439
371.421090	2402.787843
371.808081	2408.292783
372.195010	2413.573392
372.581875	2420.502458
372.968678	2424.545463
373.355418	2431.081319
373.742096	2440.936775
374.128710	2451.939093
374.515262	2464.799076
374.901751	2479.032774
375.288177	2494.584734
375.674540	2517.421161
376.060841	2536.534696
376.447079	2559.451781
376.833254	2583.369535
377.219367	2611.869699
377.605417	2646.613331
377.991404	2669.787515
378.377329	2709.438711
378.763191	2743.433732
379.148991	2793.550363
379.534727	2841.542147
379.920402	2885.926986
380.306013	2937.001437
380.691563	2999.494100
381.077049	3051.168448
381.462474	3109.529886
381.847835	3184.829601
382.233134	3255.004983
382.618371	3313.000937
383.003545	3401.833630
383.388657	3482.040908
383.773706	3572.824527
384.158693	3646.369921
384.543618	3738.421390
384.928480	3818.066579
385.313280	3926.277467
385.698017	4027.105585
386.082692	4152.690810
386.467305	4212.340263
386.851856	4339.931867
387.236344	4492.303262
387.620770	4558.284404
388.005133	4676.275131
388.389435	4821.485567
388.773674	4911.727262
389.157851	5038.867683
389.541965	5174.555380
389.926018	5199.204102
390.310008	5374.986616
390.693936	5501.449001
391.077802	5617.080467
391.461606	5751.011322
391.845348	5862.148600
392.229027	5980.051106
392.612645	6209.199275
392.996200	6322.854609
393.379694	6495.037739
393.763125	6717.425720
394.146494	6811.377704
394.529801	6948.255114
394.913047	7190.991712
395.296230	7184.710435
395.679351	7243.679332
396.062410	7500.117787
396.445408	7394.215747
396.828343	7550.368008
397.211217	7686.043102
397.594028	7570.978766
397.976778	7772.377903
398.359466	7934.105680
398.742092	7909.101557
399.124656	8058.148312
399.507158	8240.960715
399.889598	8260.419569
400.271977	8473.983010
400.654294	8497.013522
401.036549	8696.234881
401.418742	8722.471566
401.800874	9024.232514
402.182944	9104.719577
402.564952	9466.636614
402.946898	9295.471797
403.328783	9343.430814
403.710606	9542.102687
404.092367	9793.431933
404.474067	10161.728551
404.855705	9950.219379
405.237282	9902.792204
405.618797	10331.383542
406.000250	10568.960520
406.381642	10932.515933
406.762972	10888.461289
407.144240	10682.641060
407.525447	10936.785790
407.906593	10879.944260
408.287677	11133.962961
408.668700	11281.325970
409.049661	11266.784762
409.430560	11423.564646
409.811399	11394.157075
410.192176	11558.236551
410.572891	11626.997889
410.953545	12111.387239
411.334138	11588.604462
411.714669	12176.128257
412.095139	11498.453507
412.475547	11995.465906
412.855894	11839.535456
413.236180	12162.393633
413.616405	11856.302334
413.996568	12123.254115
414.376670	12097.443407
414.756711	11979.356899
415.136691	12251.480904
415.516609	12423.124631
415.896466	12497.801763
416.276262	12787.075774
416.655997	13231.478691
417.035670	13271.707099
417.415283	13910.960695
417.794834	14000.733563
418.174324	13744.534562
418.553753	13644.646619
418.933121	14128.496566
419.312428	13936.849540
419.691674	13844.535931
420.070859	14302.653308
420.449983	13964.646463
420.829045	14507.528320
421.208047	14255.515998
421.586988	14701.285068
421.965867	14954.529953
422.344686	14951.298573
422.723444	15503.393139
423.102141	14212.031005
423.480777	15392.311314
423.859352	14893.849584
424.237866	15995.044271
424.616319	15698.160639
424.994712	16343.940008
425.373044	16150.815925
425.751314	16809.273796
426.129524	15951.718074
426.507673	17020.687186
426.885762	16720.252060
427.263789	16912.320022
427.641756	17077.528716
428.019662	17136.573230
428.397508	17185.520313
428.775292	17471.575547
429.153016	17433.202284
429.530679	17510.480652
429.908282	17532.593673
430.285824	17257.873474
430.663305	17950.775029
431.040726	17556.236685
431.418086	17380.071043
431.795385	18024.310340
432.172624	18429.432587
432.549802	17995.666504
432.926920	18179.789607
433.303977	18071.329182
433.680974	18315.177355
434.057910	18602.797867
434.434786	18626.352659
434.811601	18536.932672
435.188355	19566.855526
435.565050	19225.700481
435.941683	19164.084978
436.318257	20038.422701
436.694770	19851.645430
437.071222	20422.132647
437.447614	19493.816769
437.823946	19518.064719
438.200218	19662.677778
438.576429	19436.902142
438.952580	19701.529951
439.328670	19660.736934
439.704700	20055.030782
440.080670	19632.037645
440.456580	20198.292813
440.832429	20365.691888
441.208218	19355.757209
441.583947	19773.643657
441.959616	19874.146621
442.335224	20080.891902
442.710773	20188.452481
443.086261	20692.081394
443.461689	20052.663961
443.837057	20145.418671
444.212365	20753.011300
444.587612	20712.137624
444.962800	20267.787639
445.337927	20647.147069
445.712995	19384.073370
446.088002	21136.310391
446.462949	21280.111825
446.837837	21402.324518
447.212664	21317.267650
447.587431	23965.186640
447.962139	26684.760590
448.336786	28897.542303
448.711374	27326.242376
449.085901	23757.198714
449.460369	23617.437765
449.834776	23450.215130
450.209124	25675.234244
450.583412	25165.354300
450.957640	25533.759303
451.331808	24186.253839
451.705917	22822.833452
452.079965	22740.934866
452.453954	22944.814251
452.827883	22733.703331
453.201752	22452.422070
453.575562	22472.289257
453.949311	23325.985976
454.323001	23247.570828
454.696632	22887.279563
455.070202	24095.606331
455.443713	24087.006122
455.817164	24399.734101
456.190556	24689.713873
456.563888	24041.592888
456.937160	24231.609100
457.310373	22669.466428
457.683526	22861.133618
458.056619	22654.320282
458.429653	22420.554416
458.802628	22691.725643
459.175542	22596.508329
459.548398	23416.053751
459.921194	24431.884060
460.293930	24735.192643
460.666607	26044.738218
461.039224	27135.273386
461.411782	27154.011355
461.784280	25994.117472
462.156719	25375.734253
462.529099	24691.397619
462.901419	23493.710206
463.273680	22464.220891
463.645882	22274.073609
464.018024	22001.271568
464.390106	22328.608811
464.762130	23878.975347
465.134094	26326.773132
465.505999	29625.111873
465.877845	32429.407456
466.249631	32837.312419
466.621358	31221.872148
466.993026	29373.654078
467.364634	27604.602288
467.736184	25984.166234
468.107674	24854.594892
468.479105	24022.993551
468.850477	23265.182099
469.221790	22109.351386
469.593043	20811.438273
469.964238	19998.884931
470.335373	19651.022631
470.706449	20236.487115
471.077467	21248.619737
471.448425	23340.814530
471.819324	24540.921697
472.190164	23218.223751
472.560945	21054.086652
472.931667	19196.431542
473.302330	18333.431373
473.672934	17622.656408
474.043479	17554.028660
474.413965	16910.258190
474.784393	16461.368646
475.154761	16551.602779
475.525070	16287.713499
475.895321	15819.939792
476.265513	15775.456651
476.635645	15879.261570
477.005719	15538.335897
477.375734	15433.878148
477.745691	15403.369085
478.115588	15608.261742
478.485427	16036.474994
478.855207	16936.343641
479.224928	17588.951253
479.594591	17857.012088
479.964194	17123.564533
480.333739	16818.816700
480.703226	16465.643544
481.072653	16360.520363
481.442022	16211.337497
481.811333	15970.907226
482.180584	15254.793678
482.549777	14776.957829
482.918912	14344.142004
483.287988	13959.653200
483.657005	13452.190489
484.025964	12998.360614
484.394864	12707.664998
484.763706	12319.286944
485.132489	11860.932633
485.501213	11570.022768
485.869879	11354.006806
486.238487	11032.842456
486.607036	10832.222177
486.975527	10501.434264
487.343959	10317.260750
487.712333	10110.568401
488.080648	9874.886897
488.448905	9744.658769
488.817104	9499.363785
489.185244	9449.889901
489.553326	9530.306387
489.921350	9779.644377
490.289315	10072.633718
490.657222	9964.768149
491.025070	9791.791037
491.392861	9415.743646
491.760593	8984.664498
492.128267	8522.171400
492.495883	8113.946323
492.863440	7746.942762
493.230939	7396.877477
493.598380	7102.910152
493.965763	6904.767600
494.333088	6670.721950
494.700354	6476.075439
495.067563	6308.699049
495.434713	6158.989382
495.801805	6031.112953
496.168839	5871.716710
496.535815	5721.510490
496.902733	5601.140339
497.269593	5456.063493
497.636395	5339.189382
498.003139	5263.456128
498.369825	5118.969097
498.736453	5033.420716
499.103023	4905.902209
499.469535	4806.374709
499.835989	4719.535792
500.202385	4612.822127
500.568723	4535.405128
500.935003	4463.546000
501.301226	4376.465109
501.667390	4330.706555
502.033497	4270.431999
502.399546	4174.022453
502.765537	4075.987134
503.131470	4028.660781
503.497345	3982.289728
503.863163	3874.651011
504.228923	3842.564067
504.594625	3808.427893
504.960269	3735.976430
505.325856	3711.267215
505.691385	3643.418325
506.056856	3608.420114
506.422270	3582.211156
506.787625	3530.564534
507.152924	3500.219309
507.518164	3469.203610
507.883347	3418.706372
508.248472	3397.256262
508.613540	3376.824466
508.978550	3360.453318
509.343503	3324.290601
509.708398	3307.785864
510.073236	3297.905202
510.438016	3277.576749
510.802738	3246.729929
511.167403	3236.801376
511.532010	3222.756722
511.896561	3215.946123
512.261053	3215.416802
512.625488	3189.444777
512.989866	3169.844771
513.354186	3152.167965
513.718449	3140.253198
514.082655	3144.702016
514.446803	3126.097638
514.810894	3123.612349
515.174927	3112.531893
515.538904	3100.914554
515.902822	3099.442537
516.266684	3085.294539
516.630488	3079.247675
516.994235	3067.968093
517.357925	3070.435738
517.721558	3066.024728
518.085133	3063.486507
518.448651	3057.008624
518.812112	3044.345246
519.175516	3041.534803
519.538863	3039.510779
519.902152	3032.276724
520.265385	3031.538195
520.628560	3027.596012
520.991678	3016.515556
521.354739	3013.780730
521.717743	3012.744773
522.080690	3007.307889
522.443580	3005.931654
522.806413	3006.221520
523.169189	2999.141219
523.531908	2999.821775
523.894569	2989.815085
524.257174	2990.533449
524.619722	2985.577995
524.982213	2981.446769
525.344647	2976.682879
525.707025	2971.845892
526.069345	2971.936633
526.431608	2971.031746
526.793815	2969.761375
527.155964	2961.206537
527.518057	2959.328707
527.880093	2955.169755
528.242072	2956.394755
528.603995	2948.986780
528.965860	2946.360339
529.327669	2943.451593
529.689421	2939.844647
530.051117	2936.933381
530.412755	2937.576128
530.774337	2931.405756
531.135862	2929.132195
531.497331	2927.821495
531.858743	2924.285126
532.220098	2928.907864
532.581396	2918.850762
532.942638	2913.943199
533.303824	2917.025864
533.664953	2916.998138
534.026025	2912.710637
534.387040	2912.919845
534.747999	2912.403126
535.108902	2906.575553
535.469748	2901.236971
535.830537	2903.606313
536.191270	2903.671848
536.551947	2898.776888
536.912567	2899.265879
537.273131	2901.151271
537.633638	2892.641803
537.994089	2896.712535
538.354483	2889.395300
538.714821	2897.307391
539.075103	2896.856208
539.435328	2894.726320
539.795497	2888.956720
540.155609	2889.339848
540.515665	2893.135836
540.875665	2885.443036
541.235609	2887.850187
541.595496	2882.095709
541.955328	2891.820095
542.315102	2887.041081
542.674821	2877.795605
543.034483	2882.531769
543.394090	2880.981614
543.753640	2877.616644
544.113134	2888.293808
544.472571	2876.694113
544.831953	2886.630227
545.191278	2881.437839
545.550548	2871.098432
545.909761	2876.258053
546.268918	2879.260060
546.628019	2880.744680
546.987064	2878.375338
547.346053	2863.579551
547.704986	2875.764020
548.063863	2868.789584
548.422684	2869.729759
548.781449	2866.178266
549.140158	2870.047352
549.498811	2867.569625
549.857408	2857.623428
550.215949	2864.063502
550.574434	2864.958307
550.932864	2859.965044
551.291237	2864.015611
551.649555	2865.369161
552.007817	2866.122813
552.366022	2863.871938
552.724173	2861.177442
553.082267	2863.093080
553.440305	2864.665920
553.798288	2860.726258
554.156215	2857.744416
554.514086	2862.041999
554.871902	2856.272399
555.229661	2860.166690
555.587365	2852.168900
555.945014	2852.524301
556.302606	2853.313242
556.660143	2856.436236
557.017625	2853.416585
557.375050	2847.573888
557.732421	2850.157479
558.089735	2851.195957
558.446994	2848.448528
558.804197	2853.744260
559.161345	2848.612366
559.518437	2842.013495
559.875474	2844.493743
560.232455	2844.287056
560.589381	2843.979545
560.946251	2840.942250
561.303065	2843.233454
561.659825	2842.794874
562.016528	2837.857064
562.373177	2835.086950
562.729770	2832.400015
563.086307	2832.793225
563.442789	2832.783142
563.799216	2829.702997
564.155587	2826.774087
564.511904	2828.220898
564.868164	2825.642348
565.224370	2826.370795
565.580520	2820.936431
565.936615	2822.257213
566.292654	2818.481389
566.648638	2815.330668
567.004567	2814.725729
567.360441	2810.934782
567.716260	2808.149544
568.072023	2808.971252
568.427732	2806.309523
568.783385	2802.289203
569.138982	2800.834830
569.494525	2798.324335
569.850013	2791.659930
570.205445	2792.007770
570.560823	2789.976185
570.916145	2786.323869
571.271412	2784.304887
571.626625	2784.284722
571.981782	2778.875564
572.336884	2775.059410
572.691931	2773.574791
573.046923	2766.615478
573.401860	2763.489962
573.756743	2759.207502
574.111570	2758.756319
574.466342	2755.746750
574.821059	2754.511667
575.175722	2748.124525
575.530330	2745.833321
575.884882	2739.894842
576.239380	2740.575397
576.593823	2734.500807
576.948211	2731.382853
577.302544	2724.294991
577.656823	2724.035372
578.011047	2723.790876
578.365216	2717.867520
578.719330	2716.040102
579.073389	2709.085830
579.427394	2710.860316
579.781344	2704.203472
580.135239	2701.367823
580.489080	2698.093594
580.842866	2695.212575
581.196597	2697.254242
581.550273	2691.028417
581.903895	2689.440453
582.257463	2687.731502
582.610975	2682.259330
582.964434	2686.204033
583.317837	2675.670542
583.671186	2675.403361
584.024481	2675.131138
584.377721	2672.073678
584.730906	2668.073523
585.084037	2667.836589
585.437113	2665.792401
585.790135	2662.288799
586.143103	2659.193530
586.496016	2658.538180
586.848874	2651.742705
587.201679	2656.672953
587.554428	2645.794143
587.907124	2649.166675
588.259765	2643.901190
588.612352	2648.256747
588.964884	2642.204842
589.317362	2645.337919
589.669786	2640.853813
590.022155	2638.857516
590.374470	2640.689975
590.726731	2637.153606
591.078937	2636.082361
591.431090	2631.603295
591.783188	2631.031124
592.135232	2629.266721
592.487222	2626.380660
592.839157	2627.086422
593.191038	2622.635083
593.542866	2620.817747
593.894639	2619.068466
594.246358	2619.171810
594.598022	2615.920266
594.949633	2614.044957
595.301190	2615.527056
595.652692	2614.912035
596.004141	2612.338526
596.355535	2610.064966
596.706876	2606.452979
597.058162	2604.078595
597.409395	2606.052207
597.760573	2605.026332
598.111698	2604.991044
598.462768	2605.757300
598.813785	2603.511466
599.164748	2599.498707
599.515657	2600.350662
599.866511	2598.331680
600.217312	2600.832092
600.568060	2596.307657
600.918753	2599.367637
601.269392	2595.566607
601.619978	2596.509303
601.970510	2597.061309
602.320988	2594.457553
602.671412	2599.226485
603.021783	2595.927050
603.372100	2594.686926
603.722363	2594.215578
604.072572	2595.264138
604.422728	2594.334045
604.772830	2589.885227
605.122878	2589.257603
605.472872	2587.997315
605.822813	2586.878178
606.172701	2591.069898
606.522534	2590.132243
606.872314	2590.893457
607.222041	2589.476893
607.571714	2593.933273
607.921333	2590.575865
608.270899	2592.342789
608.620411	2591.170721
608.969870	2592.506627
609.319276	2588.355237
609.668627	2589.345823
610.017926	2593.078798
610.367171	2592.236925
610.716362	2592.161308
611.065500	2592.310022
611.414585	2592.035279
611.763616	2590.263313
612.112594	2591.047213
612.461518	2591.349682
612.810389	2589.633169
613.159207	2593.623242
613.507971	2590.616194
613.856682	2593.298088
614.205340	2591.009404
614.553945	2598.031731
614.902496	2593.930753
615.250994	2593.930753
615.599439	2591.717686
615.947830	2594.230701
616.296169	2592.579723
616.644454	2592.705752
616.992686	2596.416042
617.340864	2597.439396
617.688990	2593.560228
618.037063	2596.905033
618.385082	2595.193562
618.733048	2597.386464
619.080961	2595.291864
619.428821	2595.208685
619.776628	2596.831937
620.124382	2591.924373
620.472083	2592.075608
620.819731	2596.058120
621.167326	2593.938314
621.514868	2592.509147
621.862357	2591.594178
622.209793	2589.660895
622.557176	2586.653847
622.904506	2586.215267
623.251783	2578.829976
623.599007	2581.461459
623.946179	2574.562640
624.293297	2579.094637
624.640363	2580.367528
624.987376	2579.094637
625.334336	2575.608679
625.681243	2577.441138
626.028097	2573.940057
626.374899	2572.959553
626.721647	2574.900397
627.068343	2575.414595
627.414987	2571.669017
627.761577	2570.837227
628.108115	2568.641804
628.454600	2568.793039
628.801032	2568.304047
629.147412	2569.516445
629.493739	2566.458985
629.840014	2568.384706
630.186236	2566.075857
630.532405	2567.142061
630.878521	2563.736762
631.224585	2566.738769
631.570597	2564.150136
631.916556	2564.558470
632.262462	2563.951011
632.608316	2563.875393
632.954117	2562.259704
633.299866	2562.713408
633.645562	2564.981927
633.991206	2560.051678
634.336797	2555.325597
634.682336	2558.761143
635.027823	2556.918601
635.373257	2556.278375
635.718639	2554.138405
636.063968	2553.901471
636.409245	2548.472148
636.754470	2550.498692
637.099642	2550.728064
637.444762	2547.723537
637.789829	2547.589946
638.134845	2547.882333
638.479808	2547.718495
638.824719	2545.034081
639.169577	2544.610624
639.514383	2545.520552
639.859137	2539.299768
640.203839	2544.237579
640.548489	2539.879501
640.893086	2538.808256
641.237632	2536.585107
