Dividing Wavelength (nm)	Counts (n)	Blue Motor Position (mm): 0.000000	Red Motor Position (mm): 18.600000	
326.493990	1981.725468
326.888308	1981.725468
327.282561	1981.725468
327.676750	1961.076902
328.070874	1959.105811
328.464933	1965.031687
328.858929	1974.698099
329.252859	1987.469863
329.646726	2002.860505
330.040528	2017.328617
330.434265	2036.061545
330.827938	2054.875131
331.221547	2076.312638
331.615091	2096.812490
332.008571	2118.527260
332.401986	2139.054838
332.795338	2157.248363
333.188625	2179.053873
333.581847	2195.669517
333.975006	2215.395552
334.368100	2229.384753
334.761129	2249.667836
335.154095	2263.505803
335.546996	2279.219080
335.939833	2295.721297
336.332606	2309.619758
336.725315	2323.046871
337.117960	2330.280927
337.510540	2335.017091
337.903056	2347.017558
338.295508	2352.938393
338.687896	2358.718076
339.080220	2367.098994
339.472480	2370.980683
339.864676	2376.079810
340.256807	2378.476878
340.648875	2379.487630
341.040879	2383.281098
341.432818	2383.379401
341.824694	2384.785882
342.216506	2384.049874
342.608253	2383.192878
342.999937	2381.173896
343.391557	2380.722713
343.783113	2381.589791
344.174605	2379.593494
344.566033	2375.505118
344.957397	2375.686600
345.348697	2374.141486
345.739934	2372.903883
346.131106	2370.083357
346.522215	2369.332225
346.913260	2365.558922
347.304241	2363.013139
347.695159	2367.051103
348.086012	2363.010618
348.476802	2361.135309
348.867528	2359.436440
349.258191	2359.075998
349.648789	2360.391739
350.039324	2355.743795
350.429796	2358.816378
350.820203	2357.790504
351.210548	2355.640452
351.600828	2355.169104
351.991045	2355.055678
352.381198	2354.002077
352.771288	2355.148939
353.161314	2355.211953
353.551276	2353.669360
353.941175	2356.252952
354.331010	2352.948475
354.720782	2356.999043
355.110490	2356.240349
355.500135	2356.961234
355.889717	2354.992663
356.279235	2356.641121
356.668689	2357.740092
357.058080	2356.525174
357.447408	2357.553569
357.836672	2353.097189
358.225873	2357.503158
358.615010	2355.370750
359.004084	2361.152953
359.393095	2358.730679
359.782043	2363.300485
360.170927	2361.919209
360.559748	2361.672192
360.948505	2363.761750
361.337199	2362.778725
361.725830	2367.421628
362.114398	2367.865250
362.502903	2367.925743
362.891344	2369.276773
363.279722	2368.694519
363.668037	2369.012112
364.056289	2368.283665
364.444478	2371.066382
364.832603	2370.741228
365.220665	2374.380941
365.608665	2372.699716
365.996601	2375.104347
366.384474	2373.123173
366.772284	2375.719367
367.160031	2374.348173
367.547715	2374.217103
367.935336	2374.330529
368.322893	2378.209697
368.710388	2378.648278
369.097820	2383.444936
369.485189	2381.025182
369.872495	2383.066849
370.259738	2382.890409
370.646918	2388.750750
371.034035	2388.231511
371.421090	2390.772253
371.808081	2392.040103
372.195010	2396.803993
372.581875	2405.341187
372.968678	2410.783113
373.355418	2415.378125
373.742096	2424.958837
374.128710	2437.029880
374.515262	2444.810901
374.901751	2463.029631
375.288177	2480.202322
375.674540	2496.767553
376.060841	2516.967457
376.447079	2541.832948
376.833254	2566.915209
377.219367	2592.458736
377.605417	2627.025928
377.991404	2655.455515
378.377329	2691.469518
378.763191	2725.681308
379.148991	2771.346601
379.534727	2817.916780
379.920402	2862.566279
380.306013	2911.999834
380.691563	2974.656335
381.077049	3030.716487
381.462474	3083.653643
381.847835	3154.736433
382.233134	3230.434399
382.618371	3288.478244
383.003545	3375.039897
383.388657	3453.069397
383.773706	3543.487532
384.158693	3611.540589
384.543618	3707.907286
384.928480	3785.525931
385.313280	3890.258423
385.698017	3993.234073
386.082692	4110.140951
386.467305	4170.407945
386.851856	4296.376298
387.236344	4450.179381
387.620770	4513.511397
388.005133	4632.316269
388.389435	4776.601654
388.773674	4860.781362
389.157851	4988.564529
389.541965	5120.342811
389.926018	5146.395494
390.310008	5315.997554
390.693936	5439.064722
391.077802	5554.098812
391.461606	5690.101581
391.845348	5798.821625
392.229027	5921.356952
392.612645	6143.664275
392.996200	6250.418269
393.379694	6428.002996
393.763125	6641.924359
394.146494	6738.502784
394.529801	6867.790737
394.913047	7111.039012
395.296230	7100.684482
395.679351	7161.319481
396.062410	7412.454642
396.445408	7309.297511
396.828343	7464.045811
397.211217	7590.162877
397.594028	7471.680638
397.976778	7670.710433
398.359466	7835.946853
398.742092	7809.639592
399.124656	7956.130482
399.507158	8138.111094
399.889598	8155.427458
400.271977	8365.457050
400.654294	8396.404694
401.036549	8593.100435
401.418742	8618.412068
401.800874	8912.417202
402.182944	8990.451743
402.564952	9350.574129
402.946898	9177.120628
403.328783	9230.382939
403.710606	9427.713865
404.092367	9673.754941
404.474067	10023.129587
404.855705	9818.655346
405.237282	9777.564901
405.618797	10191.940186
406.000250	10432.917422
406.381642	10795.371342
406.762972	10742.172046
407.144240	10550.802284
407.525447	10785.301637
407.906593	10729.917001
408.287677	10985.198511
408.668700	11128.538679
409.049661	11111.358427
409.430560	11264.841397
409.811399	11234.024823
410.192176	11387.527958
410.572891	11463.535955
410.953545	11924.052921
411.334138	11416.260014
411.714669	11991.707726
412.095139	11317.153450
412.475547	11800.368211
412.855894	11643.568162
413.236180	11962.537089
413.616405	11648.581589
413.996568	11914.235274
414.376670	11867.130732
414.756711	11738.692214
415.136691	12005.281033
415.516609	12150.932570
415.896466	12201.712113
416.276262	12463.219448
416.655997	12876.896533
417.035670	12899.314544
417.415283	13489.963855
417.794834	13546.674315
418.174324	13269.612500
418.553753	13129.443217
418.933121	13565.515627
419.312428	13339.674456
419.691674	13203.464999
420.070859	13585.914657
420.449983	13202.550030
420.829045	13664.191173
421.208047	13353.711549
421.586988	13710.325292
421.965867	13855.266027
422.344686	13776.709727
422.723444	14203.660169
423.102141	12936.674535
423.480777	13901.947112
423.859352	13377.271381
424.237866	14226.725969
424.616319	13862.356410
424.994712	14305.173884
425.373044	14017.107230
425.751314	14437.579790
426.129524	13609.199746
426.507673	14339.259646
426.885762	13975.290859
427.263789	13975.361435
427.641756	13958.067757
428.019662	13854.560266
428.397508	13733.648191
428.775292	13786.255152
429.153016	13599.364455
429.530679	13490.599040
429.908282	13327.590810
430.285824	12965.852733
430.663305	13272.637192
431.040726	12815.558293
431.418086	12518.422603
431.795385	12762.810180
432.172624	12839.554186
432.549802	12367.724871
432.926920	12283.484669
433.303977	12021.541274
433.680974	11978.373874
434.057910	11951.812034
434.434786	11770.280084
434.811601	11534.515401
435.188355	11883.380892
435.565050	11500.311172
435.941683	11267.508167
436.318257	11497.485606
436.694770	11194.718947
437.071222	11275.856318
437.447614	10625.544951
437.823946	10423.104816
438.200218	10285.587180
438.576429	9988.431325
438.952580	9892.430112
439.328670	9683.948154
439.704700	9649.955653
440.080670	9289.177917
440.456580	9308.883787
440.832429	9171.131738
441.208218	8631.294737
441.583947	8583.023168
441.959616	8437.215355
442.335224	8323.207140
442.710773	8178.107609
443.086261	8150.250193
443.461689	7788.958258
443.837057	7637.746328
444.212365	7630.343394
444.587612	7458.860984
444.962800	7175.384300
445.337927	7108.505833
445.712995	6650.398539
446.088002	6899.615541
446.462949	6782.413755
446.837837	6659.396998
447.212664	6486.409804
447.587431	6858.653645
447.962139	7244.054898
448.336786	7508.498705
448.711374	7063.354738
449.085901	6267.918635
449.460369	6068.825825
449.834776	5892.624895
450.209124	6089.678558
450.583412	5893.534824
450.957640	5815.651517
451.331808	5499.982025
451.705917	5186.704561
452.079965	5051.210948
452.453954	4964.243483
452.827883	4830.138708
453.201752	4696.139797
453.575562	4604.748719
453.949311	4586.535031
454.323001	4484.360924
454.696632	4367.045713
455.070202	4386.786871
455.443713	4300.636073
455.817164	4239.839757
456.190556	4178.809028
456.563888	4055.013413
456.937160	3988.218125
457.310373	3817.401147
457.683526	3757.645830
458.056619	3678.557688
458.429653	3604.006584
458.802628	3563.707600
459.175542	3507.362624
459.548398	3496.546828
459.921194	3499.085049
460.293930	3478.209631
460.666607	3498.969103
461.039224	3501.106552
461.411782	3451.529324
461.784280	3355.664222
462.156719	3282.799385
462.529099	3215.862944
462.901419	3141.125317
463.273680	3074.496387
463.645882	3038.106818
464.018024	3003.713546
464.390106	2988.557317
464.762130	3014.163858
465.134094	3063.274779
465.505999	3135.585089
465.877845	3180.111081
466.249631	3159.908657
466.621358	3094.313163
466.993026	3033.907537
467.364634	2980.751090
467.736184	2927.839139
468.107674	2894.988460
468.479105	2870.947198
468.850477	2845.360821
469.221790	2813.387303
469.593043	2784.337654
469.964238	2764.674633
470.335373	2753.311873
470.706449	2757.886720
471.077467	2772.138062
471.448425	2804.053607
471.819324	2823.091524
472.190164	2801.031435
472.560945	2763.295878
472.931667	2724.937738
473.302330	2709.347970
473.672934	2697.150898
474.043479	2695.361289
474.413965	2683.496933
474.784393	2671.004954
475.154761	2677.795388
475.525070	2669.805159
475.895321	2664.360713
476.265513	2661.215033
476.635645	2671.047804
477.005719	2663.947338
477.375734	2663.967503
477.745691	2662.618994
478.115588	2667.266938
478.485427	2679.353105
478.855207	2699.124510
479.224928	2711.397199
479.594591	2716.786192
479.964194	2707.848227
480.333739	2706.582897
480.703226	2703.480067
481.072653	2704.979810
481.442022	2703.318750
481.811333	2700.833461
482.180584	2692.671833
482.549777	2688.538087
482.918912	2682.092972
483.287988	2680.101716
483.657005	2668.025632
484.025964	2663.725528
484.394864	2662.712256
484.763706	2659.070022
485.132489	2650.195071
485.501213	2648.889412
485.869879	2649.388486
486.238487	2646.709113
486.607036	2647.765235
486.975527	2640.301806
487.343959	2638.786940
487.712333	2640.967239
488.080648	2639.510345
488.448905	2640.747948
488.817104	2639.606127
489.185244	2643.918834
489.553326	2653.615494
489.921350	2666.195693
490.289315	2679.058197
490.657222	2685.669670
491.025070	2686.322500
491.392861	2679.214473
491.760593	2671.504028
492.128267	2663.370126
492.495883	2654.074239
492.863440	2646.381438
493.230939	2635.752165
493.598380	2632.419962
493.965763	2627.431741
494.333088	2624.291102
494.700354	2622.735906
495.067563	2623.403859
495.434713	2618.740791
495.801805	2621.024434
496.168839	2619.650720
496.535815	2619.852366
496.902733	2618.521501
497.269593	2615.837087
497.636395	2615.544700
498.003139	2618.846656
498.369825	2617.909001
498.736453	2617.288939
499.103023	2617.309104
499.469535	2615.214504
499.835989	2615.643002
500.202385	2616.202570
500.568723	2614.997735
500.935003	2618.423199
501.301226	2619.436471
501.667390	2624.603653
502.033497	2626.804117
502.399546	2626.035341
502.765537	2620.195164
503.131470	2626.844446
503.497345	2626.950310
503.863163	2624.447377
504.228923	2626.584827
504.594625	2630.416104
504.960269	2628.591206
505.325856	2630.486680
505.691385	2632.044396
506.056856	2632.094808
506.422270	2638.212248
506.787625	2639.628812
507.152924	2641.347846
507.518164	2643.689462
507.883347	2641.163844
508.248472	2643.558392
508.613540	2649.912766
508.978550	2652.834115
509.343503	2657.134219
509.708398	2656.776297
510.073236	2664.010353
510.438016	2665.681495
510.802738	2664.146464
511.167403	2670.964625
511.532010	2673.028977
511.896561	2674.858916
512.261053	2685.894002
512.625488	2681.936696
512.989866	2682.831501
513.354186	2684.963909
513.718449	2682.055163
514.082655	2694.133768
514.446803	2694.705939
514.810894	2696.203161
515.174927	2697.992771
515.538904	2698.864891
515.902822	2707.147506
516.266684	2703.860674
516.630488	2705.836806
516.994235	2707.936447
517.357925	2715.624207
517.721558	2717.088662
518.085133	2718.482541
518.448651	2721.187120
518.812112	2721.955896
519.175516	2722.341544
519.538863	2725.199878
519.902152	2725.711555
520.265385	2730.614077
520.628560	2732.905282
520.991678	2729.505024
521.354739	2732.398646
521.717743	2734.561301
522.080690	2737.427197
522.443580	2740.827455
522.806413	2740.877867
523.169189	2739.597414
523.531908	2742.191087
523.894569	2742.372569
524.257174	2745.417426
524.619722	2747.519587
524.982213	2744.749473
525.344647	2745.631675
525.707025	2746.032447
526.069345	2750.952613
526.431608	2748.908425
526.793815	2750.133425
527.155964	2749.210894
527.518057	2749.994793
527.880093	2748.038826
528.242072	2753.175762
528.603995	2752.966554
528.965860	2751.000504
529.327669	2751.865062
529.689421	2750.299783
530.051117	2751.423961
530.412755	2750.433374
530.774337	2749.833477
531.135862	2749.548651
531.497331	2749.200812
531.858743	2747.784247
532.220098	2750.476224
532.581396	2749.571337
532.942638	2746.070255
533.303824	2748.616038
533.664953	2751.003024
534.026025	2750.929927
534.387040	2750.766090
534.747999	2750.299783
535.108902	2750.909763
535.469748	2748.757190
535.830537	2752.502767
536.191270	2748.293404
536.551947	2750.627458
536.912567	2752.618714
537.273131	2750.776172
537.633638	2747.242323
537.994089	2744.943557
538.354483	2746.087899
538.714821	2748.298445
539.075103	2748.285842
539.435328	2746.624782
539.795497	2743.973135
540.155609	2743.098495
540.515665	2744.356263
540.875665	2740.547671
541.235609	2738.632033
541.595496	2744.041191
541.955328	2744.883063
542.315102	2739.995665
542.674821	2733.674058
543.034483	2734.498287
543.394090	2731.445868
543.753640	2732.280179
544.113134	2735.672875
544.472571	2725.661144
544.831953	2732.033162
545.191278	2725.895557
545.550548	2723.591750
545.909761	2723.879096
546.268918	2721.300546
546.628019	2724.055536
546.987064	2717.948178
547.346053	2710.641026
547.704986	2710.744370
548.063863	2706.877805
548.422684	2704.624409
548.781449	2699.832792
549.140158	2700.702391
549.498811	2695.840198
549.857408	2691.769467
550.215949	2688.399455
550.574434	2685.798220
550.932864	2681.929134
551.291237	2680.976356
551.649555	2681.069617
552.007817	2675.889832
552.366022	2672.454286
552.724173	2670.495797
553.082267	2669.167453
553.440305	2668.723832
553.798288	2659.962306
554.156215	2656.675474
554.514086	2657.676143
554.871902	2653.368477
555.229661	2648.226500
555.587365	2642.555202
555.945014	2642.547640
556.302606	2639.822897
556.660143	2634.892648
557.017625	2636.271404
557.375050	2630.330404
557.732421	2628.192955
558.089735	2623.963427
558.446994	2624.540639
558.804197	2621.838580
559.161345	2617.092334
559.518437	2614.549072
559.875474	2610.455655
560.232455	2607.181426
560.589381	2606.173195
560.946251	2604.534820
561.303065	2600.862339
561.659825	2601.651280
562.016528	2594.076946
562.373177	2590.570824
562.729770	2592.418407
563.086307	2586.404310
563.442789	2585.549834
563.799216	2582.832652
564.155587	2583.465317
564.511904	2582.094123
564.868164	2580.959864
565.224370	2580.480954
565.580520	2574.885273
565.936615	2574.998699
566.292654	2571.787484
566.648638	2571.011147
567.004567	2568.044428
567.360441	2567.086608
567.716260	2564.187945
568.072023	2563.557801
568.427732	2559.048489
568.783385	2559.618139
569.138982	2560.313818
569.494525	2558.234342
569.850013	2553.316697
570.205445	2558.715772
570.560823	2555.807027
570.916145	2554.871893
571.271412	2553.959444
571.626625	2553.160421
571.981782	2549.170348
572.336884	2549.913918
572.691931	2550.145811
573.046923	2551.761501
573.401860	2546.342260
573.756743	2549.268650
574.111570	2547.857127
574.466342	2547.484082
574.821059	2543.960315
575.175722	2545.578526
575.530330	2541.646426
575.884882	2541.452341
576.239380	2541.212886
576.593823	2541.989224
576.948211	2539.846734
577.302544	2538.979655
577.656823	2536.012936
578.011047	2537.217772
578.365216	2534.976979
578.719330	2535.344983
579.073389	2533.540250
579.427394	2536.849768
579.781344	2532.206865
580.135239	2532.375744
580.489080	2531.138140
580.842866	2532.045548
581.196597	2530.843233
581.550273	2531.521268
581.903895	2532.703419
582.257463	2531.357431
582.610975	2530.724766
582.964434	2528.567152
583.317837	2532.554705
583.671186	2529.351051
584.024481	2528.718387
584.377721	2527.584127
584.730906	2527.611853
585.084037	2530.306350
585.437113	2527.309384
585.790135	2525.010618
586.143103	2526.671678
586.496016	2525.358457
586.848874	2522.071625
587.201679	2525.066071
587.554428	2521.638086
587.907124	2524.841739
588.259765	2521.539783
588.612352	2524.493900
588.964884	2524.952645
589.317362	2522.220339
589.669786	2525.660927
590.022155	2521.786800
590.374470	2524.357788
590.726731	2523.321831
591.078937	2520.251769
591.431090	2519.606501
591.783188	2516.856552
592.135232	2517.985770
592.487222	2518.368898
592.839157	2514.875378
593.191038	2515.719771
593.542866	2514.976201
593.894639	2514.008300
594.246358	2513.473937
594.598022	2515.056860
594.949633	2513.718433
595.301190	2512.722805
595.652692	2514.726664
596.004141	2511.414626
596.355535	2509.257012
596.706876	2510.837414
597.058162	2510.166940
597.409395	2512.770696
597.760573	2511.578463
598.111698	2508.594100
598.462768	2511.971673
598.813785	2508.621827
599.164748	2506.887670
599.515657	2508.284069
599.866511	2507.573267
600.217312	2508.309275
600.568060	2505.292145
600.918753	2507.114522
601.269392	2508.074862
601.619978	2507.671569
601.970510	2504.714933
602.320988	2506.784326
602.671412	2506.892711
603.021783	2503.058913
603.372100	2501.579335
603.722363	2505.307268
604.072572	2504.422546
604.422728	2508.092506
604.772830	2498.352996
605.122878	2498.501710
605.472872	2498.789056
605.822813	2497.695126
606.172701	2504.593945
606.522534	2501.770899
606.872314	2504.654439
607.222041	2502.043121
607.571714	2503.936074
607.921333	2501.395333
608.270899	2504.770385
608.620411	2499.101608
608.969870	2501.140754
609.319276	2502.348111
609.668627	2505.231651
610.017926	2503.396671
610.367171	2504.357011
610.716362	2501.382730
611.065500	2503.323574
611.414585	2503.333656
611.763616	2506.318019
612.112594	2500.644201
612.461518	2504.835920
612.810389	2501.176043
613.159207	2503.343739
613.507971	2502.416166
613.856682	2504.019253
614.205340	2504.790550
614.553945	2503.641167
614.902496	2503.316012
615.250994	2505.410612
615.599439	2501.927174
615.947830	2504.183091
616.296169	2502.272493
616.644454	2504.750221
616.992686	2503.404233
617.340864	2505.009840
617.688990	2500.712256
618.037063	2503.489932
618.385082	2502.481701
618.733048	2506.171826
619.080961	2506.713750
619.428821	2505.458503
619.776628	2505.415653
620.124382	2503.406753
620.472083	2500.790394
620.819731	2505.370282
621.167326	2502.675786
621.514868	2502.842144
621.862357	2497.780825
622.209793	2500.437513
622.557176	2498.297544
622.904506	2495.976092
623.251783	2495.608088
623.599007	2494.882162
623.946179	2494.496514
624.293297	2494.670433
624.640363	2492.081801
624.987376	2493.773108
625.334336	2490.803868
625.681243	2493.848725
626.028097	2490.710607
626.374899	2492.492655
626.721647	2492.853098
627.068343	2490.438385
627.414987	2488.222798
627.761577	2489.185658
628.108115	2490.133395
628.454600	2488.464773
628.801032	2488.676502
629.147412	2488.762201
629.493739	2486.591984
629.840014	2487.819505
630.186236	2485.009062
630.532405	2488.636172
630.878521	2487.088538
631.224585	2486.390338
631.570597	2483.673156
631.916556	2488.192551
632.262462	2484.419247
632.608316	2485.054433
632.954117	2484.290698
633.299866	2484.968733
633.645562	2483.763897
633.991206	2484.331027
634.336797	2482.342292
634.682336	2486.206336
635.027823	2480.857672
635.373257	2482.110399
635.718639	2481.318937
636.063968	2480.645943
636.409245	2479.360449
636.754470	2478.427836
637.099642	2479.247023
637.444762	2477.071765
637.789829	2479.791468
638.134845	2476.358442
638.479808	2476.905407
638.824719	2474.415077
639.169577	2474.170581
639.514383	2475.408185
639.859137	2470.246043
640.203839	2477.520428
640.548489	2473.200159
640.893086	2473.306023
641.237632	2469.746969
641.582125	2471.909624
641.926566	2467.065075
642.270955	2472.007926
642.615292	2471.400467
642.959576	2475.060345
643.303809	2470.298975
