Dividing Wavelength (nm)	Counts (n)	Blue Motor Position (mm): 0.000000	Red Motor Position (mm): 28.400000	
326.493990	1986.678402
326.888308	1986.678402
327.282561	1986.678402
327.676750	1963.131172
328.070874	1964.189814
328.464933	1970.871864
328.858929	1981.201188
329.252859	1993.491521
329.646726	2006.590959
330.040528	2023.960255
330.434265	2042.730991
330.827938	2061.254711
331.221547	2079.135684
331.615091	2104.709457
332.008571	2120.906684
332.401986	2141.930817
332.795338	2162.251708
333.188625	2184.911694
333.581847	2201.822245
333.975006	2219.650285
334.368100	2237.541340
334.761129	2254.792169
335.154095	2270.679365
335.546996	2289.603857
335.939833	2320.168373
336.332606	2330.298571
336.725315	2340.912721
337.117960	2349.187775
337.510540	2356.631038
337.903056	2367.777029
338.295508	2372.142669
338.687896	2382.726571
339.080220	2386.439381
339.472480	2394.696791
339.864676	2398.021432
340.256807	2402.445044
340.648875	2401.882956
341.040879	2402.434962
341.432818	2406.190622
341.824694	2406.800601
342.216506	2405.101732
342.608253	2407.670200
342.999937	2404.887483
343.391557	2403.302041
343.783113	2402.702143
344.174605	2399.672410
344.566033	2401.678789
344.957397	2398.210475
345.348697	2397.320712
345.739934	2396.516648
346.131106	2393.749054
346.522215	2391.452808
346.913260	2388.758312
347.304241	2388.546583
347.695159	2386.280585
348.086012	2385.715975
348.476802	2383.850748
348.867528	2385.005173
349.258191	2379.311189
349.648789	2381.095758
350.039324	2380.221118
350.429796	2381.327651
350.820203	2380.085007
351.210548	2377.788761
351.600828	2377.965201
351.991045	2378.703730
352.381198	2378.045860
352.771288	2377.859337
353.161314	2379.056611
353.551276	2378.144162
353.941175	2379.497712
354.331010	2379.757332
354.720782	2378.371014
355.110490	2378.713813
355.500135	2375.976466
355.889717	2381.254554
356.279235	2380.321941
356.668689	2381.327651
357.058080	2379.069214
357.447408	2379.908566
357.836672	2379.704399
358.225873	2381.267157
358.615010	2380.639533
359.004084	2386.724206
359.393095	2386.172200
359.782043	2385.834443
360.170927	2388.150853
360.559748	2386.396531
360.948505	2389.960627
361.337199	2387.666902
361.725830	2391.205792
362.114398	2390.633621
362.502903	2393.227295
362.891344	2391.004146
363.279722	2393.917933
363.668037	2395.931874
364.056289	2396.085629
364.444478	2396.609909
364.832603	2395.858777
365.220665	2399.374982
365.608665	2400.962945
365.996601	2398.197872
366.384474	2400.985630
366.772284	2403.163409
367.160031	2402.109808
367.547715	2402.616444
367.935336	2405.084088
368.322893	2402.671896
368.710388	2403.279355
369.097820	2408.998544
369.485189	2409.795047
369.872495	2410.064748
370.259738	2407.629871
370.646918	2414.987435
371.034035	2412.988618
371.421090	2419.143867
371.808081	2421.056984
372.195010	2426.879517
372.581875	2431.595517
372.968678	2437.160950
373.355418	2446.091354
373.742096	2457.922942
374.128710	2470.611527
374.515262	2477.056642
374.901751	2491.688591
375.288177	2511.752383
375.674540	2529.771988
376.060841	2550.085317
376.447079	2577.017682
376.833254	2605.038935
377.219367	2628.374436
377.605417	2663.924653
377.991404	2689.153108
378.377329	2729.532750
378.763191	2764.863677
379.148991	2811.159113
379.534727	2862.316742
379.920402	2908.846592
380.306013	2958.960703
380.691563	3019.376411
381.077049	3077.397571
381.462474	3135.756489
381.847835	3209.511090
382.233134	3284.556227
382.618371	3343.401616
383.003545	3429.887651
383.388657	3512.202132
383.773706	3603.326028
384.158693	3677.088192
384.543618	3772.441617
384.928480	3851.121425
385.313280	3959.082776
385.698017	4064.253848
386.082692	4183.222558
386.467305	4247.703957
386.851856	4377.710274
387.236344	4534.230539
387.620770	4593.428808
388.005133	4718.015885
388.389435	4866.505592
388.773674	4952.893325
389.157851	5084.182615
389.541965	5219.918203
389.926018	5248.287296
390.310008	5425.171302
390.693936	5546.859715
391.077802	5666.655174
391.461606	5804.059384
391.845348	5922.234113
392.229027	6039.148553
392.612645	6259.310864
392.996200	6385.246449
393.379694	6563.181536
393.763125	6783.873169
394.146494	6880.771708
394.529801	7019.715990
394.913047	7266.062055
395.296230	7261.688854
395.679351	7318.628687
396.062410	7582.230621
396.445408	7477.732543
396.828343	7634.441852
397.211217	7771.745238
397.594028	7655.040006
397.976778	7861.631532
398.359466	8025.741254
398.742092	8001.057245
399.124656	8154.850246
399.507158	8335.782298
399.889598	8355.465483
400.271977	8563.639932
400.654294	8601.199048
401.036549	8802.913258
401.418742	8831.272269
401.800874	9128.284450
402.182944	9213.177481
402.564952	9581.101053
402.946898	9400.796624
403.328783	9459.410120
403.710606	9663.435699
404.092367	9922.727447
404.474067	10285.398137
404.855705	10072.346372
405.237282	10022.544813
405.618797	10455.406009
406.000250	10705.515295
406.381642	11076.947511
406.762972	11022.838286
407.144240	10824.292442
407.525447	11071.850904
407.906593	11018.016422
408.287677	11279.889241
408.668700	11435.018148
409.049661	11404.264589
409.430560	11571.635938
409.811399	11539.193592
410.192176	11702.819364
410.572891	11775.817792
410.953545	12267.342895
411.334138	11737.562996
411.714669	12334.158348
412.095139	11648.445478
412.475547	12148.757312
412.855894	12000.310455
413.236180	12325.936226
413.616405	12003.746001
413.996568	12280.215481
414.376670	12261.538006
414.756711	12134.737863
415.136691	12413.226325
415.516609	12599.454110
415.896466	12673.244000
416.276262	12961.761837
416.655997	13413.227411
417.035670	13437.591307
417.415283	14087.322942
417.794834	14187.495710
418.174324	13930.371658
418.553753	13830.110669
418.933121	14324.902440
419.312428	14129.396412
419.691674	14044.841138
420.070859	14497.715714
420.449983	14149.107323
420.829045	14698.262897
421.208047	14443.321664
421.586988	14911.380196
421.965867	15171.118086
422.344686	15162.071736
422.723444	15715.754266
423.102141	14406.395213
423.480777	15599.210350
423.859352	15102.109731
424.237866	16215.083075
424.616319	15918.237251
424.994712	16584.881956
425.373044	16379.018877
425.751314	17045.459416
426.129524	16172.291240
426.507673	17276.258562
426.885762	16961.806509
427.263789	17159.114750
427.641756	17326.566757
428.019662	17394.710554
428.397508	17432.362932
428.775292	17734.012975
429.153016	17699.665074
429.530679	17772.527391
429.908282	17797.869271
430.285824	17505.058891
430.663305	18225.286021
431.040726	17814.437023
431.418086	17642.909243
431.795385	18309.309452
432.172624	18715.268530
432.549802	18275.753012
432.926920	18463.742680
433.303977	18345.381429
433.680974	18597.978524
434.057910	18896.382065
434.434786	18916.009797
434.811601	18827.887907
435.188355	19862.131030
435.565050	19519.924904
435.941683	19475.855137
436.318257	20352.635300
436.694770	20164.849798
437.071222	20756.925756
437.447614	19822.038734
437.823946	19851.068218
438.200218	20004.654532
438.576429	19775.057701
438.952580	20046.372601
439.328670	20015.298928
439.704700	20428.973492
440.080670	19993.833695
440.456580	20596.115469
440.832429	20762.322311
441.208218	19750.078783
441.583947	20199.064109
441.959616	20307.350615
442.335224	20545.018333
442.710773	20664.869245
443.086261	21212.961136
443.461689	20574.017571
443.837057	20686.268943
444.212365	21343.995847
444.587612	21333.316163
444.962800	20909.340001
445.337927	21345.805622
445.712995	20070.118956
446.088002	21922.067480
446.462949	22114.200976
446.837837	22290.719499
447.212664	22243.370461
447.587431	25096.207314
447.962139	28022.098047
448.336786	30423.187021
448.711374	28852.176960
449.085901	25145.464428
449.460369	25092.010553
449.834776	25016.403328
450.209124	27494.011976
450.583412	27036.237398
450.957640	27554.773003
451.331808	26208.361469
451.705917	24840.182233
452.079965	24875.755135
452.453954	25236.691668
452.827883	25113.037206
453.201752	24906.153293
453.575562	25078.923718
453.949311	26197.727155
454.323001	26255.856700
454.696632	26018.113364
455.070202	27573.994923
455.443713	27702.062916
455.817164	28298.368401
456.190556	28824.475820
456.563888	28263.924718
456.937160	28707.851246
457.310373	27020.614862
457.683526	27471.399880
458.056619	27445.170757
458.429653	27376.500159
458.802628	27959.701165
459.175542	28062.951558
459.548398	29369.863131
459.921194	30922.374678
460.293930	31599.709150
460.666607	33627.714931
461.039224	35372.937186
461.411782	35744.891161
461.784280	34532.473497
462.156719	34036.292888
462.529099	33468.588389
462.901419	32168.658814
463.273680	31104.536772
463.645882	31175.538903
464.018024	31147.963792
464.390106	31975.562457
464.762130	34642.617667
465.134094	38653.964605
465.505999	43907.436728
465.877845	48472.624993
466.249631	49587.145970
466.621358	47855.824696
466.993026	45712.754579
467.364634	43617.734219
467.736184	41628.351239
468.107674	40373.277851
468.479105	39557.571268
468.850477	38822.744957
469.221790	37377.357929
469.593043	35633.252289
469.964238	34696.076583
470.335373	34594.588074
470.706449	36227.213638
471.077467	38703.572080
471.448425	43123.161739
471.819324	45872.720473
472.190164	43990.562834
472.560945	40448.166712
472.931667	37351.068312
473.302330	36219.465384
473.672934	35352.676789
474.043479	35767.732629
474.413965	34937.502482
474.784393	34499.222046
475.154761	35287.950894
475.525070	35235.250672
475.895321	34720.553905
476.265513	35204.461825
476.635645	36045.043982
477.005719	35777.232684
477.375734	36128.525489
477.745691	36687.372681
478.115588	37837.045625
478.485427	39603.231519
478.855207	42625.574649
479.224928	44993.618859
479.594591	46427.428877
479.964194	45345.249422
480.333739	45352.891812
480.703226	45226.527729
481.072653	45647.819476
481.442022	45968.404093
481.811333	46040.855556
482.180584	44643.057021
482.549777	43988.112834
482.918912	43307.557064
483.287988	42872.129922
483.657005	41909.574527
484.025964	41143.261169
484.394864	40962.487912
484.763706	40400.253065
485.132489	39435.320766
485.501213	39079.957229
485.869879	39020.325420
486.238487	38448.020868
486.607036	38415.200436
486.975527	37732.542505
487.343959	37690.650517
487.712333	37542.095275
488.080648	37252.470904
488.448905	37384.622232
488.817104	36997.902717
489.185244	37556.439878
489.553326	38704.907986
489.921350	40739.091700
490.289315	43031.193449
490.657222	43304.701251
491.025070	43280.644865
491.392861	42141.268478
491.760593	40719.854657
492.128267	38993.846759
492.495883	37441.080634
492.863440	36030.028905
493.230939	34669.867624
493.598380	33538.264697
493.965763	32997.237984
494.333088	32077.542479
494.700354	31438.167895
495.067563	30931.269794
495.434713	30540.829908
495.801805	30304.702262
496.168839	29726.330681
496.535815	29202.224601
496.902733	28916.769264
497.269593	28333.238063
497.636395	27980.311923
498.003139	27954.299569
498.369825	27284.549513
498.736453	27183.683586
499.103023	26571.574083
499.469535	26188.229622
499.835989	25925.167090
500.202385	25416.996097
500.568723	25122.335614
500.935003	24918.327680
501.301226	24484.939683
501.667390	24539.994125
502.033497	24375.559248
502.399546	23728.854827
502.765537	23022.049769
503.131470	22931.359412
503.497345	22800.052477
503.863163	21776.884769
504.228923	21793.288684
504.594625	21690.428981
504.960269	21005.144609
505.325856	21040.919158
505.691385	20421.051319
506.056856	20178.753301
506.422270	20084.231666
506.787625	19574.739891
507.152924	19359.545636
507.518164	19087.729141
507.883347	18440.054298
508.248472	18242.667919
508.613540	18134.530128
508.978550	17961.737018
509.343503	17542.950724
509.708398	17330.571954
510.073236	17230.197539
510.438016	16939.227181
510.802738	16438.590192
511.167403	16379.626336
511.532010	16176.941705
511.896561	15995.838253
512.261053	15994.300701
512.625488	15565.777418
512.989866	15228.010028
513.354186	14905.766871
513.718449	14629.287309
514.082655	14566.827413
514.446803	14203.589593
514.810894	14094.045320
515.174927	13809.696517
515.538904	13519.656251
515.902822	13453.455819
516.266684	13049.369529
516.630488	12903.798650
516.994235	12617.546811
517.357925	12505.313083
517.721558	12305.985860
518.085133	12136.943368
518.448651	11934.659508
518.812112	11655.979483
519.175516	11454.703854
519.538863	11305.863786
519.902152	11074.656306
520.265385	10950.263315
520.628560	10748.057593
520.991678	10498.510395
521.354739	10339.681281
521.717743	10198.647441
522.080690	9981.272887
522.443580	9874.622236
522.806413	9692.931490
523.169189	9499.827571
523.531908	9343.869395
523.894569	9133.744020
524.257174	8980.734918
524.619722	8850.431174
524.982213	8677.711161
525.344647	8498.079726
525.707025	8341.302362
526.069345	8231.740445
526.431608	8061.445227
526.793815	7944.263605
527.155964	7733.150165
527.518057	7603.670649
527.880093	7422.899913
528.242072	7352.041454
528.603995	7174.965884
528.965860	7042.489403
529.327669	6919.107162
529.689421	6780.120030
530.051117	6654.282748
530.412755	6544.856942
530.774337	6433.064314
531.135862	6294.596421
531.497331	6203.094437
531.858743	6086.757209
532.220098	6005.052708
532.581396	5873.770980
532.942638	5748.155508
533.303824	5679.600857
533.664953	5579.158388
534.026025	5466.753260
534.387040	5408.427110
534.747999	5314.028983
535.108902	5244.156070
535.469748	5131.206498
535.830537	5056.456269
536.191270	4991.526207
536.551947	4901.287033
536.912567	4841.055327
537.273131	4782.678765
537.633638	4687.065721
537.994089	4640.566117
538.354483	4556.250299
538.714821	4523.737377
539.075103	4482.346983
539.435328	4414.067075
539.795497	4351.881922
540.155609	4301.470383
540.515665	4263.550824
540.875665	4193.516594
541.235609	4156.083507
541.595496	4108.396712
541.955328	4087.155810
542.315102	4020.874719
542.674821	3968.870176
543.034483	3936.153088
543.394090	3893.794792
543.753640	3855.056046
544.113134	3848.424408
544.472571	3786.836631
544.831953	3789.836118
545.191278	3733.717993
545.550548	3695.818599
545.909761	3679.379396
546.268918	3655.280160
546.628019	3636.728714
546.987064	3600.107252
547.346053	3554.212587
547.704986	3556.602094
548.063863	3523.771580
548.422684	3506.649301
548.781449	3482.623161
549.140158	3469.937098
549.498811	3447.934982
549.857408	3412.253695
550.215949	3410.345618
550.574434	3394.115623
550.932864	3375.975031
551.291237	3369.943291
551.649555	3352.846217
552.007817	3342.267356
552.366022	3323.168945
552.724173	3311.501194
553.082267	3306.250832
553.440305	3299.253711
553.798288	3274.320164
554.156215	3270.430914
554.514086	3262.213833
554.871902	3245.222624
555.229661	3239.800863
555.587365	3223.931311
555.945014	3218.920404
556.302606	3206.279710
556.660143	3200.941128
557.017625	3193.823019
557.375050	3185.888243
557.732421	3182.419929
558.089735	3171.944412
558.446994	3161.534429
558.804197	3163.210613
559.161345	3152.931700
559.518437	3136.008546
559.875474	3130.604429
560.232455	3128.225005
560.589381	3123.319962
560.946251	3112.804115
561.303065	3118.145218
561.659825	3106.648866
562.016528	3096.369954
562.373177	3087.769745
562.729770	3087.812595
563.086307	3074.544278
563.442789	3074.952612
563.799216	3068.245356
564.155587	3059.584654
564.511904	3055.163562
564.868164	3052.053170
565.224370	3050.230793
565.580520	3041.156716
565.936615	3038.051365
566.292654	3028.952083
566.648638	3025.294726
567.004567	3023.434540
567.360441	3018.484127
567.716260	3011.303003
568.072023	3011.403826
568.427732	3001.684482
568.783385	2994.364726
569.138982	2993.641321
569.494525	2994.626866
569.850013	2986.490444
570.205445	2980.574650
570.560823	2977.923003
570.916145	2973.325471
571.271412	2968.546457
571.626625	2961.463636
571.981782	2959.537915
572.336884	2952.137501
572.691931	2953.012141
573.046923	2948.850669
573.401860	2938.491098
573.756743	2937.230809
574.111570	2936.114193
574.466342	2933.207968
574.821059	2929.764860
575.175722	2925.716814
575.530330	2919.758170
575.884882	2912.508991
576.239380	2907.079668
576.593823	2905.655542
576.948211	2901.252094
577.302544	2894.776732
577.656823	2892.669530
578.011047	2890.033006
578.365216	2885.231307
578.719330	2882.196533
579.073389	2876.058928
579.427394	2874.168495
579.781344	2873.840820
580.135239	2868.159440
580.489080	2863.307329
580.842866	2856.766432
581.196597	2860.335569
581.550273	2856.305166
581.903895	2847.997345
582.257463	2855.622090
582.610975	2847.581450
582.964434	2845.990966
583.317837	2843.246057
583.671186	2836.616940
584.024481	2836.369923
584.377721	2830.358347
584.730906	2828.097390
585.084037	2830.071002
585.437113	2825.596978
585.790135	2823.038592
586.143103	2816.318734
586.496016	2815.991059
586.848874	2807.998310
587.201679	2810.546613
587.554428	2802.047227
587.907124	2802.589152
588.259765	2794.137657
588.612352	2799.564459
588.964884	2793.378963
589.317362	2794.619087
589.669786	2790.850825
590.022155	2786.049126
590.374470	2789.283026
590.726731	2780.493774
591.078937	2775.618978
591.431090	2772.443052
591.783188	2769.783843
592.135232	2765.650097
592.487222	2764.231012
592.839157	2764.404932
593.191038	2759.585589
593.542866	2756.127357
593.894639	2748.497571
594.246358	2747.204515
594.598022	2748.177457
594.949633	2740.335943
595.301190	2738.788308
595.652692	2732.814541
596.004141	2735.531723
596.355535	2727.947307
596.706876	2725.847667
597.058162	2722.028993
597.409395	2723.485886
597.760573	2724.405897
598.111698	2719.105123
598.462768	2716.261912
598.813785	2714.832745
599.164748	2712.501212
599.515657	2710.666232
599.866511	2706.678679
600.217312	2706.671117
600.568060	2701.176260
600.918753	2703.853112
601.269392	2699.958821
601.619978	2696.369519
601.970510	2697.677699
602.320988	2697.672658
602.671412	2697.450847
603.021783	2692.724765
603.372100	2689.412727
603.722363	2689.243848
604.072572	2687.975998
604.422728	2690.403314
604.772830	2683.111285
605.122878	2679.020388
605.472872	2680.240348
605.822813	2678.128104
606.172701	2679.136335
606.522534	2678.975018
606.872314	2679.958043
607.222041	2675.768844
607.571714	2679.048115
607.921333	2674.122907
608.270899	2675.005109
608.620411	2674.576611
608.969870	2670.775581
609.319276	2671.173832
609.668627	2670.243740
610.017926	2671.904800
610.367171	2673.049142
610.716362	2670.286589
611.065500	2672.106446
611.414585	2668.751558
611.763616	2669.356497
612.112594	2667.080416
612.461518	2669.464881
612.810389	2671.441014
613.159207	2666.679644
613.507971	2666.087308
613.856682	2670.193328
614.205340	2666.130158
614.553945	2670.137875
614.902496	2664.204437
615.250994	2666.687206
615.599439	2665.628563
615.947830	2665.316012
616.296169	2665.308450
616.644454	2664.567400
616.992686	2663.196207
617.340864	2667.438337
617.688990	2665.873059
618.037063	2665.348779
618.385082	2666.006650
618.733048	2667.934891
619.080961	2667.433296
619.428821	2666.309119
619.776628	2664.915240
620.124382	2666.162926
620.472083	2663.586896
620.819731	2664.338028
621.167326	2661.744354
621.514868	2662.442554
621.862357	2657.247645
622.209793	2655.677326
622.557176	2654.540545
622.904506	2651.931748
623.251783	2646.895636
623.599007	2644.254071
623.946179	2642.242651
624.293297	2641.950264
624.640363	2640.216107
624.987376	2639.394399
625.334336	2638.519758
625.681243	2636.780560
626.028097	2633.534057
626.374899	2635.611013
626.721647	2631.565487
627.068343	2633.110600
627.414987	2632.596403
627.761577	2630.388377
628.108115	2630.494242
628.454600	2629.922071
628.801032	2630.078346
629.147412	2629.511217
629.493739	2626.907461
629.840014	2625.077522
630.186236	2624.996863
630.532405	2623.978550
630.878521	2623.083745
631.224585	2620.449742
631.570597	2619.615432
631.916556	2622.715741
632.262462	2620.558127
632.608316	2620.966461
632.954117	2618.846656
633.299866	2615.776593
633.645562	2617.888836
633.991206	2614.372632
634.336797	2611.385748
634.682336	2613.077055
635.027823	2608.817280
635.373257	2610.216200
635.718639	2607.027670
636.063968	2604.489449
636.409245	2604.585231
636.754470	2604.411312
637.099642	2599.733121
637.444762	2599.823862
637.789829	2600.446444
638.134845	2598.845878
638.479808	2595.506113
638.824719	2596.340424
639.169577	2594.361771
639.514383	2594.737337
639.859137	2590.248190
