Dividing Wavelength (nm)	Counts (n)	Blue Motor Position (mm): 0.000000	Red Motor Position (mm): 35.400000	
326.493990	1990.676037
326.888308	1990.676037
327.282561	1990.676037
327.676750	1966.758282
328.070874	1967.910186
328.464933	1974.561988
328.858929	1980.863431
329.252859	1994.199803
329.646726	2011.319562
330.040528	2025.306243
330.434265	2044.094623
330.827938	2063.510627
331.221547	2083.844121
331.615091	2106.345312
332.008571	2125.002622
332.401986	2146.261168
332.795338	2164.729435
333.188625	2183.933710
333.581847	2205.081351
333.975006	2221.754967
334.368100	2241.145765
334.761129	2255.082035
335.154095	2269.285486
335.546996	2296.704322
335.939833	2336.534478
336.332606	2350.581654
336.725315	2363.058509
337.117960	2370.005219
337.510540	2377.045191
337.903056	2387.525750
338.295508	2394.424569
338.687896	2402.780281
339.080220	2410.465520
339.472480	2412.424008
339.864676	2419.587488
340.256807	2419.206881
340.648875	2424.890782
341.040879	2425.044537
341.432818	2427.187027
341.824694	2427.497058
342.216506	2426.090577
342.608253	2425.989753
342.999937	2423.075967
343.391557	2424.469846
343.783113	2420.820050
344.174605	2420.464649
344.566033	2421.661923
344.957397	2418.082704
345.348697	2414.861406
345.739934	2414.821077
346.131106	2414.216139
346.522215	2411.312434
346.913260	2410.306724
347.304241	2406.203225
347.695159	2408.020561
348.086012	2408.065931
348.476802	2403.062586
348.867528	2406.339336
349.258191	2402.059396
349.648789	2401.018398
350.039324	2398.873387
350.429796	2401.545198
350.820203	2401.250291
351.210548	2398.618809
351.600828	2400.315157
351.991045	2398.477656
352.381198	2398.533109
352.771288	2398.646535
353.161314	2399.155692
353.551276	2398.081926
353.941175	2397.338356
354.331010	2399.901782
354.720782	2397.134189
355.110490	2398.586041
355.500135	2399.516134
355.889717	2402.863460
356.279235	2399.327091
356.668689	2400.000085
357.058080	2400.708367
357.447408	2401.744324
357.836672	2401.865312
358.225873	2402.223234
358.615010	2398.354148
359.004084	2406.178019
359.393095	2407.357649
359.782043	2407.844120
360.170927	2408.128945
360.559748	2408.900242
360.948505	2410.578946
361.337199	2412.096333
361.725830	2410.082392
362.114398	2410.626837
362.502903	2412.406364
362.891344	2414.344688
363.279722	2412.877712
363.668037	2413.873340
364.056289	2416.167065
364.444478	2416.787127
364.832603	2418.967426
365.220665	2418.715368
365.608665	2419.670667
365.996601	2422.211409
366.384474	2420.313414
366.772284	2421.309042
367.160031	2425.367171
367.547715	2426.435896
367.935336	2423.340627
368.322893	2422.705442
368.710388	2425.470515
369.097820	2432.114755
369.485189	2429.626946
369.872495	2432.195414
370.259738	2432.752461
370.646918	2435.257915
371.034035	2433.659869
371.421090	2441.629933
371.808081	2444.805860
372.195010	2450.908177
372.581875	2456.138374
372.968678	2460.932511
373.355418	2470.666979
373.742096	2480.996304
374.128710	2489.281440
374.515262	2503.247957
374.901751	2519.992149
375.288177	2534.450178
375.674540	2556.873231
376.060841	2577.978021
376.447079	2601.981475
376.833254	2627.615743
377.219367	2655.919301
377.605417	2689.488344
377.991404	2718.059084
378.377329	2759.905702
378.763191	2792.332924
379.148991	2841.642970
379.534727	2894.365878
379.920402	2939.637960
380.306013	2988.703510
380.691563	3054.533418
381.077049	3111.768158
381.462474	3168.813855
381.847835	3243.995103
382.233134	3316.650733
382.618371	3381.144734
383.003545	3466.957776
383.388657	3547.149931
383.773706	3640.373468
384.158693	3718.957495
384.543618	3814.028615
384.928480	3893.278074
385.313280	4000.604240
385.698017	4108.348821
386.082692	4229.026482
386.467305	4296.237666
386.851856	4427.184158
387.236344	4580.836006
387.620770	4649.133558
388.005133	4766.912556
388.389435	4923.389972
388.773674	5010.493548
389.157851	5146.110669
389.541965	5281.596720
389.926018	5299.689421
390.310008	5485.012319
390.693936	5613.022338
391.077802	5732.651440
391.461606	5866.055494
391.845348	5977.792669
392.229027	6101.512667
392.612645	6330.723850
392.996200	6451.341017
393.379694	6629.525641
393.763125	6860.428131
394.146494	6955.101001
394.529801	7091.262566
394.913047	7339.113415
395.296230	7336.998651
395.679351	7398.026860
396.062410	7665.916296
396.445408	7560.490645
396.828343	7721.300932
397.211217	7854.712548
397.594028	7734.342398
397.976778	7951.429606
398.359466	8115.577137
398.742092	8079.149759
399.124656	8237.492401
399.507158	8427.591792
399.889598	8451.270092
400.271977	8664.142895
400.654294	8694.104993
401.036549	8892.812154
401.418742	8927.366743
401.800874	9236.747396
402.182944	9313.814035
402.564952	9688.338999
402.946898	9508.566411
403.328783	9564.301408
403.710606	9766.081153
404.092367	10026.804588
404.474067	10392.192460
404.855705	10182.593886
405.237282	10132.930959
405.618797	10565.789634
406.000250	10825.678759
406.381642	11200.551562
406.762972	11140.607202
407.144240	10937.148753
407.525447	11202.414268
407.906593	11135.331634
408.287677	11399.422561
408.668700	11554.064996
409.049661	11527.155317
409.430560	11692.051459
409.811399	11661.328147
410.192176	11831.061276
410.572891	11897.430587
410.953545	12401.677042
411.334138	11874.473173
411.714669	12480.321563
412.095139	11766.201791
412.475547	12283.409052
412.855894	12125.797377
413.236180	12466.927217
413.616405	12140.056281
413.996568	12422.391143
414.376670	12392.860064
414.756711	12265.157555
415.136691	12563.649315
415.516609	12750.035896
415.896466	12810.814567
416.276262	13111.766411
416.655997	13555.682857
417.035670	13581.811157
417.415283	14246.961160
417.794834	14341.755017
418.174324	14088.661368
418.553753	13981.327641
418.933121	14484.896060
419.312428	14288.096976
419.691674	14200.489284
420.070859	14657.575744
420.449983	14314.908352
420.829045	14873.841244
421.208047	14614.531852
421.586988	15072.656790
421.965867	15333.488611
422.344686	15339.719477
422.723444	15903.244859
423.102141	14576.501387
423.480777	15786.181705
423.859352	15282.434325
424.237866	16404.441416
424.616319	16111.051303
424.994712	16776.818848
425.373044	16566.338072
425.751314	17250.226044
426.129524	16357.888881
426.507673	17479.956466
426.885762	17162.331006
427.263789	17380.660858
427.641756	17537.536525
428.019662	17603.626052
428.397508	17645.369326
428.775292	17953.134289
429.153016	17920.142458
429.530679	17991.094178
429.908282	18021.557870
430.285824	17726.093323
430.663305	18448.175597
431.040726	18044.570737
431.418086	17861.123149
431.795385	18529.610396
432.172624	18944.315876
432.549802	18503.411519
432.926920	18686.067647
433.303977	18570.824349
433.680974	18830.766406
434.057910	19122.301374
434.434786	19140.131935
434.811601	19070.357325
435.188355	20117.916656
435.565050	19754.998949
435.941683	19707.276867
436.318257	20604.231726
436.694770	20406.386602
437.071222	21006.236019
437.447614	20063.573017
437.823946	20090.754919
438.200218	20243.227138
438.576429	20019.329331
438.952580	20295.645055
439.328670	20247.804505
439.704700	20688.212308
440.080670	20243.287632
440.456580	20849.027637
440.832429	21028.825430
441.208218	19989.490741
441.583947	20450.254723
441.959616	20558.705066
442.335224	20800.030142
442.710773	20931.188362
443.086261	21471.227009
443.461689	20835.585400
443.837057	20961.629369
444.212365	21616.850820
444.587612	21609.248760
444.962800	21173.355310
445.337927	21600.164601
445.712995	20320.583643
446.088002	22215.230740
446.462949	22398.819481
446.837837	22579.350762
447.212664	22538.048589
447.587431	25413.636168
447.962139	28382.177584
448.336786	30775.109971
448.711374	29190.418218
449.085901	25473.608255
449.460369	25424.283085
449.834776	25335.591545
450.209124	27860.745836
450.583412	27371.189304
450.957640	27915.109639
451.331808	26551.704376
451.705917	25168.227758
452.079965	25209.996238
452.453954	25570.834469
452.827883	25445.327382
453.201752	25239.537400
453.575562	25426.843992
453.949311	26544.543417
454.323001	26605.354855
454.696632	26376.163837
455.070202	27935.158308
455.443713	28080.313292
455.817164	28668.452108
456.190556	29208.188286
456.563888	28651.788574
456.937160	29081.796477
457.310373	27399.563438
457.683526	27863.067287
458.056619	27845.284617
458.429653	27780.392364
458.802628	28364.432723
459.175542	28487.938471
459.548398	29783.646080
459.921194	31370.069469
460.293930	32048.702038
460.666607	34085.799539
461.039224	35848.963262
461.411782	36253.160457
461.784280	35070.581382
462.156719	34590.413998
462.529099	34017.819580
462.901419	32714.144428
463.273680	31651.522129
463.645882	31740.069996
464.018024	31724.424775
464.390106	32562.584658
464.762130	35290.728570
465.134094	39368.427175
465.505999	44673.742524
465.877845	49279.433939
466.249631	50455.353650
466.621358	48767.683727
466.993026	46651.319122
467.364634	44585.998721
467.736184	42589.971500
468.107674	41343.067302
468.479105	40553.451210
468.850477	39843.160195
469.221790	38398.791480
469.593043	36641.440208
469.964238	35743.814875
470.335373	35669.006672
470.706449	37407.632578
471.077467	40005.608857
471.448425	44575.863481
471.819324	47402.811488
472.190164	45535.769750
472.560945	41971.169865
472.931667	38849.805871
473.302330	37732.381188
473.672934	36919.462363
474.043479	37423.320649
474.413965	36610.263192
474.784393	36226.981745
475.154761	37139.314644
475.525070	37162.564446
475.895321	36702.216359
476.265513	37307.999214
476.635645	38272.795401
477.005719	38092.185982
477.375734	38557.103875
477.745691	39254.663457
478.115588	40611.353903
478.485427	42571.369642
478.855207	45948.330219
479.224928	48563.761493
479.594591	50214.585622
479.964194	49226.602647
480.333739	49379.992356
480.703226	49406.836500
481.072653	50046.667308
481.442022	50535.334077
481.811333	50786.239865
482.180584	49487.379015
482.549777	48959.870156
482.918912	48434.864230
483.287988	48152.463833
483.657005	47314.891244
484.025964	46656.201480
484.394864	46682.039914
484.763706	46249.176198
485.132489	45379.496501
485.501213	45217.922479
485.869879	45362.548142
486.238487	44930.138129
486.607036	45123.816740
486.975527	44586.326396
487.343959	44790.735102
487.712333	44866.561618
488.080648	44789.386593
488.448905	45240.668165
488.817104	45048.209514
489.185244	46014.467637
489.553326	47695.410140
489.921350	50403.782646
490.289315	53259.308954
490.657222	53843.230846
491.025070	54123.128310
491.392861	53228.704109
491.760593	51989.389368
492.128267	50339.165136
492.495883	48819.955452
492.863440	47408.150070
493.230939	46063.525625
493.598380	44960.654754
493.965763	44631.527902
494.333088	43797.106035
494.700354	43319.479393
495.067563	43016.196016
495.434713	42889.627767
495.801805	42936.394551
496.168839	42556.813310
496.535815	42219.965931
496.902733	42240.523756
497.269593	41832.855727
497.636395	41764.031374
498.003139	42161.712877
498.369825	41603.374842
498.736453	41915.407142
499.103023	41452.815741
499.469535	41316.172746
499.835989	41412.889803
500.202385	41070.081259
500.568723	41088.552047
500.935003	41279.992385
501.301226	41074.303225
501.667390	41681.570700
502.033497	41942.142901
502.399546	41350.293796
502.765537	40671.225167
503.131470	41060.797974
503.497345	41411.919381
503.863163	40061.230428
504.228923	40675.857987
504.594625	41072.417834
504.960269	40363.969360
505.325856	41054.604917
505.691385	40407.340928
506.056856	40550.408874
506.422270	40973.654068
506.787625	40558.865409
507.152924	40735.704045
507.518164	40827.778199
507.883347	40040.715452
508.248472	40297.088372
508.613540	40760.529207
508.978550	41063.421895
509.343503	40784.933433
509.708398	40990.541934
510.073236	41514.340503
510.438016	41498.256702
510.802738	40949.718670
511.167403	41582.355751
511.532010	41788.380147
511.896561	42072.365987
512.261053	42927.988427
512.625488	42439.820732
512.989866	42314.585868
513.354186	42145.573623
513.718449	42113.312759
514.082655	42783.665233
514.446803	42435.565998
514.810894	42942.058287
515.174927	42858.239022
515.538904	42730.029877
515.902822	43384.699321
516.266684	42817.534225
516.630488	43227.894231
516.994235	43051.647931
517.357925	43631.320129
517.721558	43767.907672
518.085133	44041.826328
518.448651	44169.753168
518.812112	43920.251341
519.175516	43998.328732
519.538863	44296.528105
519.902152	44241.037604
520.265385	44660.159135
520.628560	44669.863356
520.991678	44448.314727
521.354739	44654.956664
521.717743	44937.044510
522.080690	44797.593592
522.443580	45311.332539
522.806413	45335.086456
523.169189	45243.347538
523.531908	45381.485236
523.894569	45203.121651
524.257174	45327.088666
524.619722	45592.573471
524.982213	45535.157249
525.344647	45408.649494
525.707025	45402.738741
526.069345	45748.345125
526.431608	45622.636392
526.793815	45869.312653
527.155964	45369.217588
527.518057	45481.773951
527.880093	45215.608589
528.242072	45679.440114
528.603995	45324.411813
528.965860	45270.650428
529.327669	45315.521738
529.689421	45164.312328
530.051117	45052.053394
530.412755	45110.465244
530.774337	45127.882430
531.135862	44871.436413
531.497331	44997.954252
531.858743	44835.460219
532.220098	45105.832423
532.581396	44744.409419
532.942638	44339.382954
533.303824	44559.751953
533.664953	44429.423003
534.026025	44084.575313
534.387040	44479.723636
534.747999	44334.820710
535.108902	44416.232824
535.469748	43883.488727
535.830537	43898.576900
536.191270	43993.141385
536.551947	43580.671656
536.912567	43770.531593
537.273131	43806.555678
537.633638	43234.248605
537.994089	43461.604644
538.354483	42986.853980
538.714821	43430.823358
539.075103	43675.168085
539.435328	43346.444525
539.795497	43141.453566
540.155609	43043.612331
540.515665	43370.382444
540.875665	42763.233437
541.235609	42963.533602
541.595496	42840.007689
541.955328	43363.090415
542.315102	42666.652491
542.674821	42343.070908
543.034483	42298.547437
543.394090	42142.838797
543.753640	42005.905936
544.113134	42815.666478
544.472571	41790.348718
544.831953	42815.865603
545.191278	41981.879796
545.550548	41603.362239
545.909761	41901.738053
546.268918	41958.506487
546.628019	42107.366718
546.987064	41611.412962
547.346053	40819.745121
547.704986	41481.378919
548.063863	40960.993210
548.422684	41012.405418
548.781449	40762.666656
549.140158	40978.218833
549.498811	40709.550539
549.857408	40064.761756
550.215949	40662.332571
550.574434	40475.046144
550.932864	40115.130445
551.291237	40595.416295
551.649555	40097.970357
552.007817	40165.622642
552.366022	39714.020957
552.724173	39714.913241
553.082267	39934.276530
553.440305	40022.768945
553.798288	39282.606572
554.156215	39389.920135
554.514086	39403.790870
554.871902	39040.323677
555.229661	38879.132783
555.587365	38563.680061
555.945014	38491.659616
556.302606	38245.532841
556.660143	38294.081673
557.017625	38183.912297
557.375050	37838.328598
557.732421	37946.158879
558.089735	37761.395549
558.446994	37531.234109
558.804197	37727.392967
559.161345	37509.607559
559.518437	36738.217759
559.875474	36772.414426
560.232455	36720.757723
560.589381	36697.023970
560.946251	36271.744670
561.303065	36622.220809
561.659825	36287.825951
562.016528	35831.394841
562.373177	35440.082835
562.729770	35621.609744
563.086307	35067.085341
563.442789	35209.916353
563.799216	35044.392587
564.155587	34697.306624
564.511904	34509.740413
564.868164	34384.883635
565.224370	34356.723750
565.580520	33963.077690
565.936615	33906.631891
566.292654	33509.323432
566.648638	33471.305571
567.004567	33239.288986
567.360441	33052.594894
567.716260	32741.732142
568.072023	32726.212950
568.427732	32504.460154
568.783385	31968.656076
569.138982	32025.505168
569.494525	31790.184107
569.850013	31417.282395
570.205445	31184.439061
570.560823	30949.244028
570.916145	30653.023307
571.271412	30455.498297
571.626625	30090.617061
571.981782	29902.808874
572.336884	29482.512755
572.691931	29475.344234
573.046923	28999.653395
573.401860	28696.727940
573.756743	28470.957344
574.111570	28319.032091
574.466342	28020.096709
574.821059	27863.828502
575.175722	27354.188012
575.530330	27152.519173
575.884882	26770.349300
576.239380	26548.258747
576.593823	26317.993963
576.948211	26051.939507
577.302544	25565.581587
577.656823	25371.323244
578.011047	25269.711226
578.365216	24913.921711
578.719330	24587.945580
579.073389	24299.878926
579.427394	24126.032215
579.781344	23899.011413
580.135239	23510.502289
580.489080	23346.737886
580.842866	22863.999514
581.196597	22888.865005
581.550273	22645.747799
581.903895	22366.767825
582.257463	22360.534438
582.610975	21865.513295
582.964434	21777.741766
583.317837	21406.155795
583.671186	21128.400821
584.024481	21022.574399
584.377721	20612.474013
584.730906	20534.802435
585.084037	20350.281081
585.437113	20024.171359
585.790135	19841.953812
586.143103	19472.308686
586.496016	19323.314863
586.848874	19147.023193
587.201679	18957.443041
587.554428	18546.863745
587.907124	18426.801104
588.259765	18135.311507
588.612352	18048.865801
588.964884	17616.551570
589.317362	17542.491979
589.669786	17325.298907
590.022155	17056.575160
590.374470	17024.233637
590.726731	16679.219589
591.078937	16321.534600
591.431090	16170.105900
591.783188	15890.198353
592.135232	15604.450630
592.487222	15513.437638
592.839157	15373.805238
593.191038	15097.050933
593.542866	14848.161606
593.894639	14506.131921
594.246358	14431.583338
594.598022	14261.215023
594.949633	13983.190347
595.301190	13813.863031
595.652692	13609.691259
596.004141	13546.840673
596.355535	13112.063839
596.706876	12944.155607
597.058162	12742.469124
597.409395	12731.358421
597.760573	12593.366917
598.111698	12331.380672
598.462768	12193.260618
598.813785	12058.656770
599.164748	11787.845985
599.515657	11734.853376
599.866511	11476.353089
600.217312	11491.826911
600.568060	11122.491815
600.918753	11157.477423
601.269392	11021.832576
601.619978	10816.395474
601.970510	10736.644420
602.320988	10644.814762
602.671412	10587.116236
603.021783	10410.615357
603.372100	10221.720802
603.722363	10120.169278
604.072572	10014.458803
604.422728	9905.970651
604.772830	9751.602959
605.122878	9656.766252
605.472872	9528.783959
605.822813	9464.889854
606.172701	9332.935132
606.522534	9264.748485
606.872314	9207.357469
607.222041	9053.362822
607.571714	9012.100978
607.921333	8815.140576
608.270899	8758.104962
608.620411	8716.979229
608.969870	8583.237417
609.319276	8485.343251
609.668627	8397.889314
610.017926	8383.010348
610.367171	8313.722209
610.716362	8229.272800
611.065500	8127.806976
611.414585	8061.707367
611.763616	8017.141046
612.112594	7916.595232
612.461518	7857.966613
612.810389	7808.593553
613.159207	7701.665638
613.507971	7635.359342
613.856682	7608.076617
614.205340	7504.599373
614.553945	7518.754933
614.902496	7371.180195
615.250994	7348.424427
615.599439	7278.922038
615.947830	7227.136786
616.296169	7160.084398
616.644454	7104.417457
616.992686	7050.769498
617.340864	7040.041922
617.688990	6943.082890
618.037063	6938.755059
618.385082	6866.439707
618.733048	6834.372928
619.080961	6773.866479
619.428821	6716.097376
619.776628	6655.530433
620.124382	6572.895839
620.472083	6516.140009
620.819731	6457.476102
621.167326	6366.700044
621.514868	6291.889321
621.862357	6186.970307
622.209793	6120.936232
622.557176	6031.037336
622.904506	5944.518533
623.251783	5857.477971
623.599007	5774.861021
623.946179	5697.287746
624.293297	5643.546525
624.640363	5539.247572
624.987376	5485.655066
625.334336	5420.851033
625.681243	5342.735834
626.028097	5290.872443
626.374899	5237.700873
626.721647	5190.177916
627.068343	5134.974760
627.414987	5081.369651
627.761577	5027.013410
628.108115	4996.055684
628.454600	4921.444086
628.801032	4894.519284
629.147412	4854.530331
629.493739	4821.170495
629.840014	4765.727885
630.186236	4745.548146
630.532405	4690.881874
630.878521	4667.127957
631.224585	4627.295280
631.570597	4583.706943
631.916556	4566.151125
632.262462	4523.865927
632.608316	4497.465404
632.954117	4459.603818
633.299866	4426.221297
633.645562	4390.988673
633.991206	4333.663192
634.336797	4275.611785
634.682336	4242.740941
635.027823	4201.272410
635.373257	4157.638703
635.718639	4112.301085
636.063968	4077.098708
636.409245	4023.231459
