Dividing Wavelength (nm)	Counts (n)	Blue Motor Position (mm): 0.000000	Red Motor Position (mm): 11.000000	
326.493990	1979.961064
326.888308	1979.961064
327.282561	1979.961064
327.676750	1954.198247
328.070874	1956.214709
328.464933	1961.800307
328.858929	1971.653242
329.252859	1984.828298
329.646726	1999.964362
330.040528	2012.179078
330.434265	2033.137675
330.827938	2050.776673
331.221547	2069.796946
331.615091	2091.693198
332.008571	2112.024171
332.401986	2131.823303
332.795338	2151.566982
333.188625	2175.182267
333.581847	2194.507531
333.975006	2208.521938
334.368100	2228.555484
334.761129	2243.915879
335.154095	2258.925915
335.546996	2275.201280
335.939833	2289.379525
336.332606	2301.939560
336.725315	2310.028092
337.117960	2323.203147
337.510540	2326.298416
337.903056	2336.922647
338.295508	2343.181240
338.687896	2351.728516
339.080220	2358.604650
339.472480	2364.051617
339.864676	2365.337111
340.256807	2368.830631
340.648875	2369.410363
341.040879	2373.904552
341.432818	2376.520911
341.824694	2375.570653
342.216506	2377.173740
342.608253	2375.235417
342.999937	2373.962525
343.391557	2374.217103
343.783113	2370.080837
344.174605	2370.683255
344.566033	2368.361803
344.957397	2368.971783
345.348697	2366.940198
345.739934	2364.480115
346.131106	2365.258973
346.522215	2358.408045
346.913260	2356.941069
347.304241	2358.077849
347.695159	2353.926459
348.086012	2352.938393
348.476802	2352.255317
348.867528	2351.463856
349.258191	2347.836745
349.648789	2350.460666
350.039324	2346.785665
350.429796	2351.607528
350.820203	2348.277846
351.210548	2349.389421
351.600828	2345.860613
351.991045	2346.886488
352.381198	2344.804491
352.771288	2347.032681
353.161314	2344.325582
353.551276	2344.756600
353.941175	2344.970849
354.331010	2347.498988
354.720782	2346.331961
355.110490	2348.504698
355.500135	2345.505212
355.889717	2345.863134
356.279235	2345.633761
356.668689	2349.883454
357.058080	2348.779441
357.447408	2344.905314
357.836672	2345.089317
358.225873	2349.449915
358.615010	2345.290963
359.004084	2351.269771
359.393095	2352.615759
359.782043	2352.557786
360.170927	2352.862776
360.559748	2356.084073
360.948505	2354.221367
361.337199	2355.088445
361.725830	2353.704648
362.114398	2356.268075
362.502903	2355.857221
362.891344	2360.331245
363.279722	2359.691019
363.668037	2359.149095
364.056289	2357.850998
364.444478	2362.173787
364.832603	2358.163549
365.220665	2361.132789
365.608665	2361.183200
365.996601	2362.120855
366.384474	2361.871318
366.772284	2365.490866
367.160031	2363.688654
367.547715	2363.434075
367.935336	2365.571525
368.322893	2366.153778
368.710388	2365.102697
369.097820	2368.273583
369.485189	2364.805269
369.872495	2371.895652
370.259738	2370.597555
370.646918	2376.016795
371.034035	2372.687113
371.421090	2376.059645
371.808081	2381.007538
372.195010	2381.088196
372.581875	2390.419372
372.968678	2392.307284
373.355418	2402.319016
373.742096	2409.737073
374.128710	2421.369536
374.515262	2434.635332
374.901751	2445.042794
375.288177	2461.129116
375.674540	2480.635861
376.060841	2498.305105
376.447079	2522.386697
376.833254	2547.239586
377.219367	2572.727660
377.605417	2611.262240
377.991404	2632.331742
378.377329	2672.383709
378.763191	2706.560212
379.148991	2750.766090
379.534727	2797.779891
379.920402	2842.341170
380.306013	2891.696587
380.691563	2952.399641
381.077049	3007.791839
381.462474	3061.172618
381.847835	3135.837147
382.233134	3203.149154
382.618371	3262.392794
383.003545	3344.883715
383.388657	3422.320879
383.773706	3513.381762
384.158693	3584.472113
384.543618	3679.066844
384.928480	3754.235489
385.313280	3854.511601
385.698017	3957.013382
386.082692	4068.790887
386.467305	4139.142709
386.851856	4257.811471
387.236344	4408.257145
387.620770	4463.873675
388.005133	4583.671655
388.389435	4723.634251
388.773674	4802.147701
389.157851	4928.688224
389.541965	5054.235640
389.926018	5071.221808
390.310008	5241.237242
390.693936	5354.227144
391.077802	5459.405778
391.461606	5580.784160
391.845348	5677.385270
392.229027	5778.735148
392.612645	5974.329396
392.996200	6067.920938
393.379694	6205.063008
393.763125	6391.568056
394.146494	6450.421007
394.529801	6545.063629
394.913047	6736.269553
395.296230	6695.537030
395.679351	6703.897784
396.062410	6882.203395
396.445408	6747.322283
396.828343	6832.908473
397.211217	6884.827316
397.594028	6734.351394
397.976778	6839.487178
398.359466	6910.950575
398.742092	6820.305588
399.124656	6875.279371
399.507158	6946.997346
399.889598	6886.054837
400.271977	6966.667928
400.654294	6907.567961
401.036549	6964.563246
401.418742	6897.793164
401.800874	7017.097111
402.182944	6973.097920
402.564952	7119.422451
402.946898	6899.655870
403.328783	6831.708678
403.710606	6846.254927
404.092367	6896.381641
404.474067	6988.332287
404.855705	6756.847543
405.237282	6614.707169
405.618797	6725.204221
406.000250	6739.216108
406.381642	6799.563760
406.762972	6641.216077
407.144240	6421.923364
407.525447	6409.277630
407.906593	6250.952631
408.287677	6238.894191
408.668700	6172.300549
409.049661	6033.290732
409.430560	5964.594928
409.811399	5820.201159
410.192176	5756.206231
410.572891	5654.253936
410.953545	5687.258370
411.334138	5385.290734
411.714669	5435.271254
412.095139	5115.533551
412.475547	5133.086848
412.855894	4978.406604
413.236180	4940.353454
413.616405	4746.624433
413.996568	4697.074932
414.376670	4578.595213
414.756711	4449.284576
415.136691	4399.755239
415.516609	4325.549455
415.896466	4238.793718
416.276262	4184.911345
416.655997	4150.477743
417.035670	4061.529104
417.415283	4055.290677
417.794834	3972.368737
418.174324	3847.363245
418.553753	3742.272831
418.933121	3708.930640
419.312428	3605.561780
419.691674	3520.255375
420.070859	3484.722802
420.449983	3381.280846
420.829045	3357.529449
421.208047	3271.340842
421.586988	3238.538054
421.965867	3189.918646
422.344686	3132.472177
422.723444	3104.397991
423.102141	2986.649240
423.480777	2993.732061
423.859352	2930.841147
424.237866	2928.030703
424.616319	2875.413660
424.994712	2856.668129
425.373044	2816.903508
425.751314	2796.693522
426.129524	2746.778537
426.507673	2740.872826
426.885762	2705.514172
427.263789	2684.739577
427.641756	2662.261072
428.019662	2647.946716
428.397508	2627.779580
428.775292	2612.280553
429.153016	2597.512492
429.530679	2586.943713
429.908282	2568.026784
430.285824	2552.731923
430.663305	2547.234545
431.040726	2535.110570
431.418086	2526.258303
431.795385	2522.293436
432.172624	2519.921573
432.549802	2510.671056
432.926920	2501.937257
433.303977	2499.356186
433.680974	2492.401914
434.057910	2494.466267
434.434786	2487.519557
434.811601	2484.935965
435.188355	2487.285143
435.565050	2479.700727
435.941683	2477.782568
436.318257	2478.001858
436.694770	2471.738225
437.071222	2474.639409
437.447614	2464.385702
437.823946	2462.107100
438.200218	2464.592389
438.576429	2464.383181
438.952580	2463.954683
439.328670	2459.929322
439.704700	2459.939404
440.080670	2457.010494
440.456580	2460.067953
440.832429	2462.558283
441.208218	2450.217539
441.583947	2457.116358
441.959616	2453.348095
442.335224	2452.748198
442.710773	2450.731737
443.086261	2451.079576
443.461689	2449.726026
443.837057	2452.365070
444.212365	2451.760132
444.587612	2449.559668
444.962800	2451.026644
445.337927	2450.714093
445.712995	2444.490788
446.088002	2451.863476
446.462949	2449.295008
446.837837	2448.677466
447.212664	2449.897426
447.587431	2457.703652
447.962139	2465.938377
448.336786	2472.854840
448.711374	2466.200517
449.085901	2458.724486
449.460369	2459.526029
449.834776	2456.647531
450.209124	2461.691205
450.583412	2462.296143
450.957640	2462.112141
451.331808	2459.039558
451.705917	2453.224587
452.079965	2453.690894
452.453954	2455.853549
452.827883	2455.515792
453.201752	2454.323559
453.575562	2455.790534
453.949311	2458.724486
454.323001	2455.888837
454.696632	2459.631894
455.070202	2459.657099
455.443713	2461.242542
455.817164	2462.200362
456.190556	2460.627522
456.563888	2460.612398
456.937160	2456.813889
457.310373	2456.826492
457.683526	2457.864969
458.056619	2459.367233
458.429653	2457.474280
458.802628	2460.262038
459.175542	2458.590895
459.548398	2462.880917
459.921194	2466.770168
460.293930	2468.000209
460.666607	2475.115798
461.039224	2477.341467
461.411782	2477.729636
461.784280	2477.916159
462.156719	2472.567494
462.529099	2473.479943
462.901419	2470.356948
463.273680	2466.697071
463.645882	2467.302009
464.018024	2469.235292
464.390106	2469.038687
464.762130	2476.965901
465.134094	2483.385811
465.505999	2499.842657
465.877845	2511.018895
466.249631	2511.656601
466.621358	2508.001765
466.993026	2505.466064
467.364634	2502.877432
467.736184	2493.246308
468.107674	2487.779176
468.479105	2490.907212
468.850477	2485.571151
469.221790	2483.227014
469.593043	2475.030098
469.964238	2474.200828
470.335373	2472.050776
470.706449	2480.197281
471.077467	2483.224494
471.448425	2492.832933
471.819324	2500.167812
472.190164	2496.593634
472.560945	2488.875627
472.931667	2481.029071
473.302330	2476.648308
473.672934	2476.867599
474.043479	2478.579070
474.413965	2476.239975
474.784393	2469.200004
475.154761	2475.234265
475.525070	2472.522124
475.895321	2469.620940
476.265513	2471.075313
476.635645	2478.521097
477.005719	2477.971611
477.375734	2478.175778
477.745691	2479.453711
478.115588	2481.782724
478.485427	2489.629280
478.855207	2495.935763
479.224928	2503.068996
479.594591	2509.236847
479.964194	2504.916579
480.333739	2504.082268
480.703226	2503.956239
481.072653	2503.757113
481.442022	2507.185098
481.811333	2507.585870
482.180584	2502.574963
482.549777	2505.554285
482.918912	2499.046155
483.287988	2501.241577
483.657005	2499.693943
484.025964	2496.018942
484.394864	2496.949035
484.763706	2495.139261
485.132489	2493.468118
485.501213	2492.238077
485.869879	2494.720845
486.238487	2491.978457
486.607036	2493.934425
486.975527	2492.837974
487.343959	2489.732623
487.712333	2493.513489
488.080648	2492.742192
488.448905	2493.475680
488.817104	2491.618015
489.185244	2495.431648
489.553326	2501.861639
489.921350	2504.919099
490.289315	2514.091479
490.657222	2513.899915
491.025070	2513.322703
491.392861	2513.799092
491.760593	2511.223062
492.128267	2506.842299
492.495883	2502.280055
492.863440	2497.899293
493.230939	2496.152533
493.598380	2495.267810
493.965763	2487.542242
494.333088	2488.265648
494.700354	2484.746922
495.067563	2488.316059
495.434713	2485.266161
495.801805	2486.430668
496.168839	2488.953765
496.535815	2488.759681
496.902733	2485.056953
497.269593	2486.344968
497.636395	2488.689104
498.003139	2489.909064
498.369825	2489.732623
498.736453	2487.794300
499.103023	2491.746564
499.469535	2491.434013
499.835989	2488.348827
500.202385	2490.211533
500.568723	2491.464260
500.935003	2493.707573
501.301226	2495.202275
501.667390	2496.913747
502.033497	2497.758140
502.399546	2495.923160
502.765537	2495.547594
503.131470	2498.388284
503.497345	2500.160250
503.863163	2499.172184
504.228923	2502.199397
504.594625	2504.127638
504.960269	2507.558143
505.325856	2508.757938
505.691385	2509.768689
506.056856	2511.016375
506.422270	2514.925790
506.787625	2513.637775
507.152924	2519.147756
507.518164	2522.600946
507.883347	2517.849659
508.248472	2526.265865
508.613540	2526.515402
508.978550	2532.171577
509.343503	2530.351720
509.708398	2534.077133
510.073236	2534.971938
510.438016	2538.725077
510.802738	2540.328164
511.167403	2546.226314
511.532010	2548.134391
511.896561	2550.511295
512.261053	2555.708724
512.625488	2551.902653
512.989866	2550.387786
513.354186	2553.747715
513.718449	2553.011707
514.082655	2563.809858
514.446803	2563.469581
514.810894	2564.417317
515.174927	2567.126938
515.538904	2565.758264
515.902822	2571.369069
516.266684	2568.881259
516.630488	2570.365879
516.994235	2573.710685
517.357925	2573.420818
517.721558	2573.902248
518.085133	2578.915676
518.448651	2579.694534
518.812112	2578.212435
519.175516	2577.489029
519.538863	2579.218145
519.902152	2578.222517
520.265385	2582.326017
520.628560	2578.724112
520.991678	2575.260839
521.354739	2579.245872
521.717743	2578.772003
522.080690	2576.077506
522.443580	2576.546334
522.806413	2578.144379
523.169189	2574.295458
523.531908	2574.643298
523.894569	2572.405026
524.257174	2570.781774
524.619722	2571.593400
524.982213	2569.009809
525.344647	2569.095508
525.707025	2561.579148
526.069345	2564.765157
526.431608	2558.907336
526.793815	2557.800803
527.155964	2556.207798
527.518057	2554.208981
527.880093	2549.608928
528.242072	2547.196736
528.603995	2544.018288
528.965860	2540.295396
529.327669	2539.859337
529.689421	2536.045704
530.051117	2533.048738
530.412755	2531.518747
530.774337	2530.792821
531.135862	2525.756709
531.497331	2519.959382
531.858743	2516.526356
532.220098	2519.351923
532.581396	2511.049142
532.942638	2510.764317
533.303824	2505.813904
533.664953	2506.504542
534.026025	2503.774757
534.387040	2504.662000
534.747999	2501.347442
535.108902	2498.549601
535.469748	2495.376195
535.830537	2492.069198
536.191270	2491.789414
536.551947	2486.707931
536.912567	2486.571820
537.273131	2483.839514
537.633638	2481.313896
537.994089	2483.043012
538.354483	2478.248875
538.714821	2476.497074
539.075103	2475.859368
539.435328	2476.063535
539.795497	2470.583800
540.155609	2470.525827
540.515665	2470.097329
540.875665	2469.953656
541.235609	2467.667493
541.595496	2465.948459
541.955328	2465.252780
542.315102	2465.192286
542.674821	2464.473922
543.034483	2460.927470
543.394090	2462.694395
543.753640	2463.483335
544.113134	2461.474435
544.472571	2459.430247
544.831953	2461.663479
545.191278	2459.024435
545.550548	2459.982254
545.909761	2459.543673
546.268918	2461.061061
546.628019	2459.152984
546.987064	2459.160546
547.346053	2455.982098
547.704986	2457.002932
548.063863	2455.465380
548.422684	2454.232818
548.781449	2452.813733
549.140158	2454.235338
549.498811	2458.227932
549.857408	2454.227777
550.215949	2450.368773
550.574434	2452.382714
550.932864	2450.998918
551.291237	2448.894236
551.649555	2454.958744
552.007817	2455.220884
552.366022	2453.416151
552.724173	2454.996553
553.082267	2450.923300
553.440305	2451.354319
553.798288	2451.359360
554.156215	2450.348609
554.514086	2454.343723
554.871902	2454.608384
555.229661	2451.742488
555.587365	2448.259051
555.945014	2451.014041
556.302606	2450.167127
556.660143	2452.486058
557.017625	2449.708382
557.375050	2448.319544
557.732421	2450.996397
558.089735	2450.681325
558.446994	2451.903805
558.804197	2451.737447
559.161345	2450.255347
559.518437	2449.768876
559.875474	2450.043619
560.232455	2451.200564
560.589381	2452.342385
560.946251	2450.683846
561.303065	2448.937086
561.659825	2450.204936
562.016528	2450.726695
562.373177	2448.977415
562.729770	2449.090841
563.086307	2450.714092
563.442789	2450.459514
563.799216	2447.979267
564.155587	2449.368104
564.511904	2450.225101
564.868164	2447.969184
565.224370	2447.341561
565.580520	2448.254009
565.936615	2451.523198
566.292654	2446.124122
566.648638	2451.145111
567.004567	2448.722837
567.360441	2449.781479
567.716260	2446.905501
568.072023	2448.269133
568.427732	2445.556992
568.783385	2447.878443
569.138982	2443.170006
569.494525	2444.631940
569.850013	2445.476334
570.205445	2446.356015
570.560823	2447.107147
570.916145	2446.928186
571.271412	2446.668567
571.626625	2447.638989
571.981782	2446.386262
572.336884	2447.386931
572.691931	2447.500357
573.046923	2447.152517
573.401860	2446.129163
573.756743	2448.700152
574.111570	2446.439194
574.466342	2445.360387
574.821059	2445.980449
575.175722	2446.066149
575.530330	2444.188319
575.884882	2447.172682
576.239380	2444.813422
576.593823	2444.405088
576.948211	2445.088165
577.302544	2443.706889
577.656823	2442.199584
578.011047	2444.107660
578.365216	2446.108998
578.719330	2442.439038
579.073389	2440.755293
579.427394	2444.311827
579.781344	2445.753597
580.135239	2444.775613
580.489080	2442.738987
580.842866	2442.398709
581.196597	2441.897114
581.550273	2443.144800
581.903895	2443.001127
582.257463	2443.762341
582.610975	2440.848554
582.964434	2439.726898
583.317837	2441.019954
583.671186	2442.159254
584.024481	2441.130859
584.377721	2441.335026
584.730906	2443.817794
585.084037	2441.100612
585.437113	2440.430139
585.790135	2440.152875
586.143103	2439.517690
586.496016	2441.392999
586.848874	2437.579366
587.201679	2437.894438
587.554428	2435.141968
587.907124	2439.386620
588.259765	2434.474015
588.612352	2440.909048
588.964884	2438.406115
589.317362	2437.118101
589.669786	2438.443924
590.022155	2440.639347
590.374470	2440.102464
590.726731	2440.914089
591.078937	2437.513831
591.431090	2441.138421
591.783188	2439.497525
592.135232	2434.799170
592.487222	2439.631116
592.839157	2439.162288
593.191038	2437.042483
593.542866	2439.600869
593.894639	2438.249840
594.246358	2438.748914
594.598022	2437.395364
594.949633	2438.108687
595.301190	2436.671958
595.652692	2436.936619
596.004141	2436.588779
596.355535	2434.937802
596.706876	2433.564087
597.058162	2437.990220
597.409395	2432.639035
597.760573	2438.385951
598.111698	2434.030394
598.462768	2436.641712
598.813785	2435.905703
599.164748	2435.731783
599.515657	2436.475353
599.866511	2436.714808
600.217312	2435.668769
600.568060	2433.291865
600.918753	2435.895621
601.269392	2432.018973
601.619978	2435.905703
601.970510	2433.881680
602.320988	2435.091557
602.671412	2436.308995
603.021783	2437.055086
603.372100	2435.673810
603.722363	2434.819334
604.072572	2434.181628
604.422728	2434.645415
604.772830	2434.957966
605.122878	2431.842533
605.472872	2432.969231
605.822813	2428.850608
606.172701	2434.544592
606.522534	2432.291196
606.872314	2433.942174
607.222041	2433.364962
607.571714	2437.037442
607.921333	2435.378902
608.270899	2436.069541
608.620411	2431.986206
608.969870	2434.549633
609.319276	2432.903696
609.668627	2433.019642
610.017926	2433.145671
610.367171	2432.079467
610.716362	2434.279931
611.065500	2431.643407
611.414585	2436.286310
611.763616	2435.401588
612.112594	2433.823707
612.461518	2434.189190
612.810389	2435.310847
613.159207	2434.295054
613.507971	2435.862853
613.856682	2433.732966
614.205340	2432.485280
614.553945	2435.492328
614.902496	2435.613316
615.250994	2434.007709
615.599439	2434.947884
615.947830	2434.763882
616.296169	2435.371341
616.644454	2436.861002
616.992686	2431.414035
617.340864	2437.665066
617.688990	2436.276228
618.037063	2434.552153
618.385082	2434.393357
618.733048	2436.757658
619.080961	2433.735486
619.428821	2436.891249
619.776628	2436.039294
620.124382	2436.616506
620.472083	2434.564756
620.819731	2433.276741
621.167326	2433.163315
621.514868	2436.369489
621.862357	2433.929571
622.209793	2433.916968
622.557176	2432.291196
622.904506	2432.139961
623.251783	2427.739034
623.599007	2431.472008
623.946179	2428.961514
624.293297	2431.104004
624.640363	2431.426638
624.987376	2431.973603
625.334336	2430.244487
625.681243	2432.238264
626.028097	2429.831113
626.374899	2433.034766
626.721647	2431.993768
627.068343	2430.599889
627.414987	2428.235587
627.761577	2431.048551
628.108115	2427.060999
628.454600	2432.649118
628.801032	2431.403953
629.147412	2430.486463
629.493739	2427.912954
629.840014	2426.783735
630.186236	2429.624425
630.532405	2429.155598
630.878521	2429.863880
631.224585	2430.897317
631.570597	2428.190217
631.916556	2428.906061
632.262462	2427.456729
632.608316	2427.449167
632.954117	2427.681061
633.299866	2426.161153
633.645562	2429.720207
633.991206	2426.319949
634.336797	2427.590320
634.682336	2427.423962
635.027823	2428.948911
635.373257	2427.171904
635.718639	2429.064857
636.063968	2428.235587
636.409245	2425.679722
636.754470	2425.654517
637.099642	2426.158632
637.444762	2429.238777
637.789829	2427.562593
638.134845	2426.884558
638.479808	2425.173087
638.824719	2424.348858
639.169577	2425.079825
639.514383	2423.443971
639.859137	2424.822726
640.203839	2427.557552
640.548489	2423.867428
640.893086	2422.702921
641.237632	2422.211409
641.582125	2424.603436
641.926566	2418.591860
642.270955	2427.408838
642.615292	2425.195772
642.959576	2423.600247
643.303809	2422.281985
643.647990	2424.222829
643.992118	2424.270720
644.336195	2422.629824
