Dividing Wavelength (nm)	Counts (n)	Blue Motor Position (mm): 0.000000	Red Motor Position (mm): 22.200000	
326.493990	1985.891982
326.888308	1985.891982
327.282561	1985.891982
327.676750	1962.047324
328.070874	1963.670575
328.464933	1967.547223
328.858929	1977.750518
329.252859	1991.699391
329.646726	2005.572646
330.040528	2019.939935
330.434265	2039.287883
330.827938	2057.751109
331.221547	2074.659139
331.615091	2100.381627
332.008571	2117.977774
332.401986	2141.434263
332.795338	2160.835143
333.188625	2178.673266
333.581847	2197.277645
333.975006	2216.411344
334.368100	2232.764847
334.761129	2252.937024
335.154095	2265.943201
335.546996	2284.759308
335.939833	2306.837041
336.332606	2316.536221
336.725315	2329.154229
337.117960	2334.812924
337.510540	2344.207115
337.903056	2353.467714
338.295508	2357.520802
338.687896	2365.299302
339.080220	2373.864223
339.472480	2377.950078
339.864676	2382.083824
340.256807	2386.683877
340.648875	2391.840977
341.040879	2390.036244
341.432818	2392.350134
341.824694	2389.970709
342.216506	2392.271996
342.608253	2391.475494
342.999937	2390.973899
343.391557	2387.767725
343.783113	2387.866028
344.174605	2385.640358
344.566033	2384.677498
344.957397	2382.126674
345.348697	2379.109543
345.739934	2379.815305
346.131106	2378.441590
346.522215	2377.705582
346.913260	2372.974459
347.304241	2374.469161
347.695159	2372.835827
348.086012	2368.341639
348.476802	2369.848944
348.867528	2367.346011
349.258191	2367.792153
349.648789	2365.261494
350.039324	2365.697553
350.429796	2364.033973
350.820203	2362.372913
351.210548	2365.508510
351.600828	2362.995495
351.991045	2361.672192
352.381198	2361.125227
352.771288	2363.827285
353.161314	2362.526668
353.551276	2363.542460
353.941175	2364.217975
354.331010	2362.635053
354.720782	2360.822758
355.110490	2361.420134
355.500135	2364.775022
355.889717	2366.337780
356.279235	2365.420290
356.668689	2366.851978
357.058080	2364.530526
357.447408	2364.215454
357.836672	2363.187059
358.225873	2367.860208
358.615010	2363.272758
359.004084	2368.255939
359.393095	2365.279138
359.782043	2372.591331
360.170927	2370.784078
360.559748	2371.630992
360.948505	2372.228368
361.337199	2372.805580
361.725830	2374.476723
362.114398	2374.103677
362.502903	2375.429501
362.891344	2377.743391
363.279722	2376.946888
363.668037	2377.090561
364.056289	2377.052753
364.444478	2377.912269
364.832603	2378.580222
365.220665	2381.849410
365.608665	2382.754297
365.996601	2383.013917
366.384474	2381.672970
366.772284	2383.349154
367.160031	2384.627086
367.547715	2385.491644
367.935336	2385.252189
368.322893	2386.560369
368.710388	2385.184134
369.097820	2390.263096
369.485189	2387.878630
369.872495	2392.017418
370.259738	2392.670247
370.646918	2397.154353
371.034035	2395.836092
371.421090	2400.027811
371.808081	2404.514438
372.195010	2405.293296
372.581875	2413.649009
372.968678	2419.952972
373.355418	2426.793818
373.742096	2434.259766
374.128710	2447.936417
374.515262	2456.975206
374.901751	2472.322998
375.288177	2490.501399
375.674540	2508.306755
376.060841	2528.947759
376.447079	2553.800648
376.833254	2580.508681
377.219367	2603.418204
377.605417	2640.087557
377.991404	2664.338028
378.377329	2706.824872
378.763191	2741.437435
379.148991	2787.702624
379.534727	2832.460509
379.920402	2879.131511
380.306013	2929.328800
380.691563	2991.208964
381.077049	3047.422870
381.462474	3104.975203
381.847835	3177.136800
382.233134	3248.789240
382.618371	3307.768220
383.003545	3392.504975
383.388657	3474.143941
383.773706	3566.618867
384.158693	3638.767861
384.543618	3735.351327
384.928480	3808.135506
385.313280	3917.432763
385.698017	4015.150489
386.082692	4139.636742
386.467305	4201.579920
386.851856	4327.061801
387.236344	4480.383454
387.620770	4543.866704
388.005133	4663.304242
388.389435	4809.326304
388.773674	4898.332917
389.157851	5027.555334
389.541965	5157.425539
389.926018	5180.095608
390.310008	5358.776785
390.693936	5480.104756
391.077802	5598.546665
391.461606	5728.797478
391.845348	5845.217885
392.229027	5961.771882
392.612645	6185.624319
392.996200	6308.404141
393.379694	6474.545448
393.763125	6702.486261
394.146494	6792.007071
394.529801	6925.491783
394.913047	7169.501274
395.296230	7165.521283
395.679351	7224.245684
396.062410	7477.309086
396.445408	7372.241358
396.828343	7531.763630
397.211217	7660.454206
397.594028	7544.527832
397.976778	7749.828822
398.359466	7915.939883
398.742092	7882.874954
399.124656	8036.874643
399.507158	8223.432623
399.889598	8235.097853
400.271977	8445.109802
400.654294	8481.116243
401.036549	8672.274276
401.418742	8699.730921
401.800874	8999.596396
402.182944	9074.220596
402.564952	9444.248850
402.946898	9270.197972
403.328783	9320.415426
403.710606	9517.446404
404.092367	9770.159446
404.474067	10135.930446
404.855705	9922.213249
405.237282	9879.802022
405.618797	10304.133585
406.000250	10544.480677
406.381642	10908.578013
406.762972	10859.996414
407.144240	10658.098202
407.525447	10910.269321
407.906593	10847.315391
408.287677	11105.593868
408.668700	11256.621796
409.049661	11231.166489
409.430560	11388.619368
409.811399	11363.650533
410.192176	11525.537106
410.572891	11594.915986
410.953545	12070.639592
411.334138	11558.581870
411.714669	12145.137764
412.095139	11464.410595
412.475547	11959.714043
412.855894	11808.481948
413.236180	12123.100360
413.616405	11815.907568
413.996568	12086.957807
414.376670	12056.587376
414.756711	11945.238370
415.136691	12217.357334
415.516609	12393.187739
415.896466	12455.140999
416.276262	12751.102100
416.655997	13197.521479
417.035670	13228.164133
417.415283	13862.434548
417.794834	13950.727837
418.174324	13699.698540
418.553753	13589.148557
418.933121	14082.213732
419.312428	13884.408937
419.691674	13807.806084
420.070859	14253.388632
420.449983	13912.672167
420.829045	14454.971771
421.208047	14199.632288
421.586988	14650.472758
421.965867	14896.980140
422.344686	14892.569131
422.723444	15446.418018
423.102141	14160.712059
423.480777	15318.781044
423.859352	14829.816848
424.237866	15929.209322
424.616319	15619.286746
424.994712	16278.180677
425.373044	16059.288736
425.751314	16725.736836
426.129524	15864.327152
426.507673	16929.999348
426.885762	16629.067670
427.263789	16812.346379
427.641756	16972.513919
428.019662	17022.068462
428.397508	17051.286989
428.775292	17335.784507
429.153016	17279.958769
429.530679	17345.685333
429.908282	17349.289758
430.285824	17066.246613
430.663305	17739.265858
431.040726	17316.260118
431.418086	17127.489071
431.795385	17745.786590
432.172624	18116.734855
432.549802	17650.934760
432.926920	17798.315413
433.303977	17649.447620
433.680974	17855.366151
434.057910	18096.650898
434.434786	18068.004541
434.811601	17957.666286
435.188355	18901.871881
435.565050	18497.077310
435.941683	18395.389675
436.318257	19163.701850
436.694770	18902.088651
437.071222	19378.311331
437.447614	18428.326053
437.823946	18379.194968
438.200218	18428.336136
438.576429	18120.858519
438.952580	18290.442934
439.328670	18156.436462
439.704700	18434.766128
440.080670	17929.864323
440.456580	18352.643211
440.832429	18388.780722
441.208218	17369.179630
441.583947	17647.882341
441.959616	17622.066592
442.335224	17676.891661
442.710773	17655.925502
443.086261	17986.534454
443.461689	17296.644988
443.837057	17256.761900
444.212365	17638.820867
444.587612	17467.681256
444.962800	16982.674365
445.337927	17150.708626
445.712995	16015.733166
446.088002	17271.779497
446.462949	17242.263541
446.837837	17200.469855
447.212664	16986.266187
447.587431	18876.177120
447.962139	20798.822785
448.336786	22306.919247
448.711374	20962.851849
449.085901	18136.120612
449.460369	17823.450606
449.834776	17533.528807
450.209124	18973.244537
450.583412	18449.307336
450.957640	18546.810813
451.331808	17418.908093
451.705917	16322.028633
452.079965	16091.952892
452.453954	16067.614201
452.827883	15763.557007
453.201752	15423.722744
453.575562	15286.878102
453.949311	15667.255845
454.323001	15447.527072
454.696632	15082.308079
455.070202	15660.475493
455.443713	15488.962836
455.817164	15531.512695
456.190556	15530.133940
456.563888	14999.033259
456.937160	14942.438745
457.310373	13910.595211
457.683526	13843.585674
458.056619	13585.241662
458.429653	13304.789671
458.802628	13298.268939
459.175542	13106.390020
459.548398	13385.052402
459.921194	13757.397066
460.293930	13782.436478
460.666607	14297.647442
461.039224	14701.227095
461.411782	14537.361869
461.784280	13805.696361
462.156719	13326.103670
462.529099	12815.606184
462.901419	12087.224988
463.273680	11490.367497
463.645882	11257.035170
464.018024	11000.082518
464.390106	11003.631490
464.762130	11529.290245
465.134094	12478.630255
465.505999	13762.811266
465.877845	14761.678092
466.249631	14722.036978
466.621358	13853.544473
466.993026	12905.142118
467.364634	12027.701564
467.736184	11261.209246
468.107674	10697.852742
468.479105	10265.480538
468.850477	9869.954128
469.221790	9338.510648
469.593043	8777.493239
469.964238	8390.713231
470.335373	8169.313316
470.706449	8243.012465
471.077467	8460.288716
471.448425	9002.245522
471.819324	9269.812324
472.190164	8773.505687
472.560945	8025.458950
472.931667	7380.352574
473.302330	7030.380551
473.672934	6749.736996
474.043479	6640.424616
474.413965	6387.557818
474.784393	6193.307037
475.154761	6138.562627
475.525070	5998.932748
475.895321	5817.927598
476.265513	5728.540379
476.635645	5692.102919
477.005719	5540.598602
477.375734	5460.552640
477.745691	5383.785950
478.115588	5367.805492
478.485427	5397.697014
478.855207	5535.905288
479.224928	5617.566939
479.594591	5592.421663
479.964194	5384.000199
480.333739	5250.129838
480.703226	5124.335405
481.072653	5052.531730
481.442022	4974.635821
481.811333	4877.449937
482.180584	4704.795459
482.549777	4580.024380
482.918912	4460.617090
483.287988	4358.415257
483.657005	4237.193151
484.025964	4124.969505
484.394864	4050.526786
484.763706	3964.388590
485.132489	3865.319835
485.501213	3793.780821
485.869879	3739.694281
486.238487	3676.495856
486.607036	3626.532980
486.975527	3564.753640
487.343959	3522.821322
487.712333	3481.667863
488.080648	3438.006429
488.448905	3411.401740
488.817104	3368.831716
489.185244	3355.142463
489.553326	3358.230170
489.921350	3381.424518
490.289315	3408.331677
490.657222	3395.443967
491.025070	3374.755072
491.392861	3327.925273
491.760593	3274.554577
492.128267	3218.128942
492.495883	3170.245543
492.863440	3130.725417
493.230939	3088.518357
493.598380	3051.687687
493.965763	3027.984181
494.333088	3006.753362
494.700354	2984.784013
495.067563	2971.354379
495.434713	2954.978191
495.801805	2948.795216
496.168839	2935.259718
496.535815	2919.352357
496.902733	2910.369021
497.269593	2899.033986
497.636395	2885.483365
498.003139	2884.492778
498.369825	2869.752444
498.736453	2868.290510
499.103023	2852.925073
499.469535	2847.727643
499.835989	2845.602797
500.202385	2834.749192
500.568723	2825.372646
500.935003	2827.316011
501.301226	2816.520380
501.667390	2820.223108
502.033497	2817.871409
502.399546	2806.801036
502.765537	2798.195786
503.131470	2801.497742
503.497345	2800.434058
503.863163	2785.247582
504.228923	2789.714045
504.594625	2788.700773
504.960269	2781.101233
505.325856	2782.711882
505.691385	2774.779626
506.056856	2776.531427
506.422270	2779.215842
506.787625	2775.616458
507.152924	2773.663011
507.518164	2775.205604
507.883347	2767.036414
508.248472	2769.602361
508.613540	2773.615120
508.978550	2774.245264
509.343503	2773.113525
509.708398	2773.211827
510.073236	2777.577467
510.438016	2780.413116
510.802738	2773.791560
511.167403	2779.641819
511.532010	2781.436470
511.896561	2784.816564
512.261053	2792.937862
512.625488	2786.308745
512.989866	2785.547531
513.354186	2783.493261
513.718449	2785.552572
514.082655	2793.285702
514.446803	2789.983746
514.810894	2794.866104
515.174927	2798.692340
515.538904	2794.525826
515.902822	2798.934315
516.266684	2798.649490
516.630488	2798.568831
516.994235	2799.771147
517.357925	2804.093936
517.721558	2805.729790
518.085133	2809.238433
518.448651	2807.852116
518.812112	2809.233392
519.175516	2808.388999
519.538863	2811.401088
519.902152	2811.748928
520.265385	2816.822849
520.628560	2816.666574
520.991678	2815.534835
521.354739	2815.396203
521.717743	2821.276709
522.080690	2820.838128
522.443580	2823.073880
522.806413	2827.086639
523.169189	2827.212667
523.531908	2823.605722
523.894569	2824.613953
524.257174	2824.661844
524.619722	2829.796259
524.982213	2831.132165
525.344647	2828.455312
525.707025	2828.941783
526.069345	2829.246773
526.431608	2832.294151
526.793815	2833.143585
527.155964	2830.474294
527.518057	2832.417659
527.880093	2828.530929
528.242072	2836.178360
528.603995	2828.543532
528.965860	2830.381033
529.327669	2831.626198
529.689421	2832.344562
530.051117	2829.760971
530.412755	2834.383709
530.774337	2832.682319
531.135862	2829.037565
531.497331	2831.744665
531.858743	2828.362051
532.220098	2831.409428
532.581396	2828.667040
532.942638	2825.349961
533.303824	2829.874397
533.664953	2826.940445
534.026025	2824.961792
534.387040	2831.260714
534.747999	2828.160404
535.108902	2830.383553
535.469748	2827.353820
535.830537	2826.534632
536.191270	2828.397339
536.551947	2828.160404
536.912567	2827.517657
537.273131	2827.689057
537.633638	2824.271154
537.994089	2824.830722
538.354483	2821.029692
538.714821	2824.578665
539.075103	2827.817606
539.435328	2824.006494
539.795497	2823.756957
540.155609	2824.147646
540.515665	2826.123778
540.875665	2822.000114
541.235609	2821.702686
541.595496	2823.275526
541.955328	2827.169818
542.315102	2823.091524
542.674821	2822.365598
543.034483	2818.567089
543.394090	2816.754794
543.753640	2819.328303
544.113134	2823.923315
544.472571	2815.691110
544.831953	2824.608912
545.191278	2820.170176
545.550548	2814.100626
545.909761	2817.939465
546.268918	2822.405927
546.628019	2824.109837
546.987064	2820.739826
547.346053	2811.373362
547.704986	2816.880823
548.063863	2814.340081
548.422684	2814.445945
548.781449	2812.522745
549.140158	2817.939465
549.498811	2812.812612
549.857408	2805.848257
550.215949	2809.679534
550.574434	2809.266160
550.932864	2805.596200
551.291237	2809.465285
551.649555	2810.062662
552.007817	2811.030564
552.366022	2809.626602
552.724173	2806.725418
553.082267	2808.565439
553.440305	2811.262457
553.798288	2802.327012
554.156215	2804.638381
554.514086	2807.184163
554.871902	2800.771816
555.229661	2799.219140
555.587365	2798.525982
555.945014	2794.596402
556.302606	2792.771504
556.660143	2794.223357
557.017625	2792.582461
557.375050	2788.741102
557.732421	2786.764970
558.089735	2788.572223
558.446994	2785.053498
558.804197	2787.758077
559.161345	2784.715741
559.518437	2776.889349
559.875474	2774.585542
560.232455	2772.039759
560.589381	2772.075047
560.946251	2770.189656
561.303065	2769.057917
561.659825	2767.288472
562.016528	2764.024325
562.373177	2757.783376
562.729770	2756.747419
563.086307	2755.086359
563.442789	2749.679721
563.799216	2748.457242
564.155587	2742.675038
564.511904	2741.739904
564.868164	2738.775706
565.224370	2740.797208
565.580520	2731.511403
565.936615	2728.285064
566.292654	2725.184755
566.648638	2726.185424
567.004567	2721.965978
567.360441	2721.292984
567.716260	2716.329968
568.072023	2712.017261
568.427732	2705.269677
568.783385	2701.781198
569.138982	2700.508307
569.494525	2698.748944
569.850013	2690.751153
570.205445	2694.499251
570.560823	2690.236956
570.916145	2687.544980
571.271412	2683.096161
571.626625	2680.847807
571.981782	2677.089627
572.336884	2674.049811
572.691931	2672.832372
573.046923	2668.144099
573.401860	2662.540857
573.756743	2660.408448
574.111570	2661.275527
574.466342	2657.340906
574.821059	2654.996770
575.175722	2653.663385
575.530330	2647.417395
575.884882	2643.603762
576.239380	2642.061169
576.593823	2640.334574
576.948211	2636.780560
577.302544	2635.951291
577.656823	2631.366361
578.011047	2631.653707
578.365216	2629.947276
578.719330	2626.768829
579.073389	2624.444857
579.427394	2626.786473
579.781344	2624.162552
580.135239	2619.683487
580.489080	2616.802468
580.842866	2614.859103
581.196597	2614.649895
581.550273	2611.047991
581.903895	2612.232662
582.257463	2611.259719
582.610975	2610.100254
582.964434	2605.797629
583.317837	2605.895931
583.671186	2605.318719
584.024481	2604.761672
584.377721	2601.043821
584.730906	2603.234202
585.084037	2597.540219
585.437113	2596.960486
585.790135	2598.296392
586.143103	2597.273038
586.496016	2593.033427
586.848874	2590.931266
587.201679	2591.516040
587.554428	2588.506471
587.907124	2589.754157
588.259765	2582.827611
588.612352	2587.999835
588.964884	2588.503951
589.317362	2587.299115
589.669786	2587.266347
590.022155	2588.393045
590.374470	2586.590833
590.726731	2582.021027
591.078937	2581.685790
591.431090	2580.932137
591.783188	2578.240161
592.135232	2579.313927
592.487222	2579.878536
592.839157	2580.503639
593.191038	2578.464493
593.542866	2575.482650
593.894639	2573.630026
594.246358	2572.515931
594.598022	2572.601631
594.949633	2572.082392
595.301190	2571.709347
595.652692	2571.207752
596.004141	2571.066599
596.355535	2567.134499
596.706876	2567.620971
597.058162	2565.302040
597.409395	2569.372772
597.760573	2567.515107
598.111698	2565.213820
598.462768	2564.971844
598.813785	2567.855384
599.164748	2561.987481
599.515657	2564.056875
599.866511	2562.421021
600.217312	2565.523851
600.568060	2561.380022
600.918753	2563.560321
601.269392	2562.504200
601.619978	2564.205589
601.970510	2562.605023
602.320988	2562.063099
602.671412	2562.070660
603.021783	2560.311298
603.372100	2560.218036
603.722363	2560.954045
604.072572	2560.182748
604.422728	2561.785835
604.772830	2559.028324
605.122878	2552.189999
605.472872	2559.000598
605.822813	2554.214022
606.172701	2561.501010
606.522534	2560.142419
606.872314	2558.425906
607.222041	2557.314332
607.571714	2556.454815
607.921333	2557.319373
608.270899	2558.733417
608.620411	2560.754919
608.969870	2558.572100
609.319276	2554.839125
609.668627	2557.142932
610.017926	2558.892213
610.367171	2557.606719
610.716362	2558.935063
611.065500	2555.345761
611.414585	2559.033365
611.763616	2557.223591
612.112594	2557.589075
612.461518	2557.594116
612.810389	2558.231822
613.159207	2557.914229
613.507971	2557.311811
613.856682	2562.237018
614.205340	2559.093859
614.553945	2559.764332
614.902496	2558.287274
615.250994	2559.476987
615.599439	2559.703839
615.947830	2557.001780
616.296169	2558.567058
616.644454	2561.180897
616.992686	2558.846843
617.340864	2559.567727
617.688990	2558.861966
618.037063	2560.190310
618.385082	2560.828016
618.733048	2562.955383
619.080961	2560.901113
619.428821	2559.885320
619.776628	2559.766853
620.124382	2559.461863
620.472083	2556.601008
620.819731	2558.231822
621.167326	2556.117058
621.514868	2560.197872
621.862357	2553.283929
622.209793	2554.113199
622.557176	2552.812581
622.904506	2549.069525
623.251783	2545.969215
623.599007	2545.707075
623.946179	2545.291180
624.293297	2545.752445
624.640363	2545.328988
624.987376	2545.548279
625.334336	2543.418391
625.681243	2543.022661
626.028097	2542.924358
626.374899	2541.603576
626.721647	2540.348328
627.068343	2544.270346
627.414987	2537.366486
627.761577	2538.525951
628.108115	2538.979655
628.454600	2537.633667
628.801032	2538.329346
629.147412	2537.416898
629.493739	2535.667617
629.840014	2538.914120
630.186236	2537.726928
630.532405	2534.082174
630.878521	2534.452699
631.224585	2534.246012
631.570597	2535.778522
631.916556	2534.596372
632.262462	2532.463964
632.608316	2532.307688
632.954117	2531.586803
633.299866	2531.896834
633.645562	2531.609488
633.991206	2527.175793
634.336797	2529.764426
634.682336	2524.690505
635.027823	2526.744775
635.373257	2525.161852
635.718639	2521.204547
636.063968	2523.480628
636.409245	2522.280833
636.754470	2521.867458
637.099642	2521.418796
637.444762	2518.298322
637.789829	2517.544669
638.134845	2517.494257
638.479808	2519.765297
638.824719	2516.405368
639.169577	2515.467714
639.514383	2515.896212
639.859137	2512.886643
640.203839	2518.033661
640.548489	2511.916221
640.893086	2513.632734
641.237632	2507.104439
641.582125	2510.595438
641.926566	2504.641836
