Dividing Wavelength (nm)	Counts (n)	Blue Motor Position (mm): 0.000000	Red Motor Position (mm): 31.600000	
326.493990	1989.027579
326.888308	1989.027579
327.282561	1989.027579
327.676750	1966.503704
328.070874	1967.539661
328.464933	1971.746504
328.858929	1980.697072
329.252859	1994.172077
329.646726	2010.404592
330.040528	2022.558814
330.434265	2043.439273
330.827938	2062.353683
331.221547	2081.048802
331.615091	2103.499580
332.008571	2120.901643
332.401986	2148.360808
332.795338	2165.225988
333.188625	2185.241890
333.581847	2204.138655
333.975006	2220.527446
334.368100	2238.499160
334.761129	2256.407859
335.154095	2271.319592
335.546996	2294.224074
335.939833	2325.330514
336.332606	2338.576146
336.725315	2351.378156
337.117960	2359.544825
337.510540	2365.453058
337.903056	2373.571836
338.295508	2382.829915
338.687896	2385.620193
339.080220	2397.466905
339.472480	2403.455796
339.864676	2404.627864
340.256807	2405.840262
340.648875	2409.686662
341.040879	2413.656571
341.432818	2413.913669
341.824694	2412.726478
342.216506	2414.876530
342.608253	2416.537590
342.999937	2412.557599
343.391557	2413.777558
343.783113	2408.675911
344.174605	2409.948802
344.566033	2405.754562
344.957397	2405.540313
345.348697	2403.604510
345.739934	2405.109294
346.131106	2400.867163
346.522215	2401.663666
346.913260	2397.310629
347.304241	2399.430434
347.695159	2395.566390
348.086012	2394.172511
348.476802	2393.295350
348.867528	2389.910215
349.258191	2388.433157
349.648789	2389.915257
350.039324	2388.027344
350.429796	2386.285626
350.820203	2386.129350
351.210548	2385.431150
351.600828	2384.755636
351.991045	2385.297560
352.381198	2383.631458
352.771288	2386.031047
353.161314	2384.054915
353.551276	2390.449619
353.941175	2388.531460
354.331010	2387.974412
354.720782	2388.871738
355.110490	2386.986346
355.500135	2386.764535
355.889717	2390.973899
356.279235	2389.060781
356.668689	2389.464073
357.058080	2390.474825
357.447408	2386.890564
357.836672	2386.716644
358.225873	2387.896274
358.615010	2388.526419
359.004084	2390.958775
359.393095	2395.778118
359.782043	2394.285937
360.170927	2394.066647
360.559748	2396.897255
360.948505	2395.969682
361.337199	2396.786349
361.725830	2396.572100
362.114398	2398.911196
362.502903	2400.360527
362.891344	2401.638460
363.279722	2399.483367
363.668037	2402.051834
364.056289	2403.445713
364.444478	2407.186250
364.832603	2405.313461
365.220665	2407.208935
365.608665	2405.865467
365.996601	2409.331261
366.384474	2408.572567
366.772284	2411.100706
367.160031	2411.398134
367.547715	2411.897208
367.935336	2412.713875
368.322893	2412.466858
368.710388	2412.799574
369.097820	2418.654875
369.485189	2417.979360
369.872495	2416.479617
370.259738	2421.112437
370.646918	2423.406162
371.034035	2421.104875
371.421090	2427.043355
371.808081	2431.003181
372.195010	2435.767071
372.581875	2444.311827
372.968678	2450.449432
373.355418	2453.317848
373.742096	2463.856381
374.128710	2477.752321
374.515262	2486.463435
374.901751	2502.955570
375.288177	2521.859897
375.674540	2544.119112
376.060841	2563.484704
376.447079	2588.834146
376.833254	2614.639813
377.219367	2637.229223
377.605417	2673.220541
377.991404	2701.965200
378.377329	2742.443145
378.763191	2775.787857
379.148991	2825.881803
379.534727	2873.601365
379.920402	2924.380908
380.306013	2970.757003
380.691563	3036.173536
381.077049	3092.614294
381.462474	3147.784682
381.847835	3226.794686
382.233134	3297.847229
382.618371	3360.065150
383.003545	3447.297276
383.388657	3526.967671
383.773706	3619.515694
384.158693	3694.293650
384.543618	3794.017755
384.928480	3874.860219
385.313280	3976.149602
385.698017	4081.169440
386.082692	4203.130075
386.467305	4267.228346
386.851856	4397.403541
387.236344	4557.480340
387.620770	4618.251450
388.005133	4739.680243
388.389435	4891.683635
388.773674	4976.690091
389.157851	5112.345021
389.541965	5245.925515
389.926018	5266.596767
390.310008	5452.103667
390.693936	5573.981122
391.077802	5697.131470
391.461606	5828.675338
391.845348	5945.617505
392.229027	6067.535290
392.612645	6295.251771
392.996200	6408.405510
393.379694	6588.515855
393.763125	6823.030332
394.146494	6913.677839
394.529801	7048.253962
394.913047	7300.727549
395.296230	7295.641025
395.679351	7355.676126
396.062410	7619.585571
396.445408	7511.437698
396.828343	7674.511463
397.211217	7810.136146
397.594028	7691.265738
397.976778	7900.571925
398.359466	8069.758089
398.742092	8037.565281
399.124656	8194.115793
399.507158	8384.774752
399.889598	8403.293431
400.271977	8612.632385
400.654294	8647.141604
401.036549	8849.838838
401.418742	8873.509576
401.800874	9175.618364
402.182944	9260.599615
402.564952	9630.940421
402.946898	9454.532804
403.328783	9510.366103
403.710606	9713.164161
404.092367	9974.066558
404.474067	10338.247073
404.855705	10123.196491
405.237282	10079.018339
405.618797	10516.955977
406.000250	10761.724161
406.381642	11134.124278
406.762972	11082.066802
407.144240	10880.713036
407.525447	11140.478652
407.906593	11074.361399
408.287677	11333.156593
408.668700	11490.942188
409.049661	11460.231479
409.430560	11628.636264
409.811399	11594.661408
410.192176	11762.788930
410.572891	11838.723830
410.953545	12331.637771
411.334138	11805.074128
411.714669	12408.858166
412.095139	11710.875128
412.475547	12219.749361
412.855894	12060.504352
413.236180	12392.986093
413.616405	12073.291239
413.996568	12356.231040
414.376670	12326.342039
414.756711	12198.516021
415.136691	12492.259015
415.516609	12673.745594
415.896466	12742.396027
416.276262	13035.846634
416.655997	13486.946724
417.035670	13518.022917
417.415283	14169.831507
417.794834	14265.923461
418.174324	14006.319161
418.553753	13906.690837
418.933121	14413.790585
419.312428	14210.528742
419.691674	14127.460608
420.070859	14591.493779
420.449983	14240.301796
420.829045	14786.999807
421.208047	14530.697463
421.586988	14996.421941
421.965867	15257.130253
422.344686	15249.775210
422.723444	15820.915255
423.102141	14490.572399
423.480777	15699.189034
423.859352	15200.185379
424.237866	16319.989486
424.616319	16012.408525
424.994712	16680.061461
425.373044	16476.255173
425.751314	17155.396899
426.129524	16277.358969
426.507673	17381.948873
426.885762	17065.286274
427.263789	17259.716016
427.641756	17436.426102
428.019662	17496.052870
428.397508	17533.422943
428.775292	17838.949634
429.153016	17803.535528
429.530679	17887.364875
429.908282	17915.255059
430.285824	17627.405174
430.663305	18342.361777
431.040726	17936.448070
431.418086	17750.668948
431.795385	18419.902285
432.172624	18841.970371
432.549802	18392.884221
432.926920	18577.027489
433.303977	18460.407957
433.680974	18727.478205
434.057910	19008.414147
434.434786	19027.245377
434.811601	18952.842988
435.188355	19998.141361
435.565050	19640.479057
435.941683	19594.387788
436.318257	20480.161368
436.694770	20294.664551
437.071222	20882.226155
437.447614	19947.344174
437.823946	19983.277519
438.200218	20128.437544
438.576429	19900.940353
438.952580	20181.616676
439.328670	20142.827518
439.704700	20554.379756
440.080670	20126.405959
440.456580	20726.603215
440.832429	20909.443345
441.208218	19886.794876
441.583947	20335.235757
441.959616	20441.110070
442.335224	20680.481699
442.710773	20810.361987
443.086261	21351.383658
443.461689	20709.480936
443.837057	20829.747744
444.212365	21481.503401
444.587612	21474.896969
444.962800	21052.392824
445.337927	21476.621043
445.712995	20199.205262
446.088002	22076.997261
446.462949	22267.084049
446.837837	22442.833795
447.212664	22395.502402
447.587431	25242.138635
447.962139	28198.293936
448.336786	30611.947986
448.711374	29052.986282
449.085901	25330.815052
449.460369	25269.459168
449.834776	25192.674834
450.209124	27683.960132
450.583412	27216.824132
450.957640	27757.240865
451.331808	26400.842806
451.705917	25020.932804
452.079965	25044.177565
452.453954	25409.666260
452.827883	25295.549660
453.201752	25089.220274
453.575562	25263.654280
453.949311	26390.614304
454.323001	26444.481554
454.696632	26207.900204
455.070202	27772.873483
455.443713	27911.532940
455.817164	28498.754267
456.190556	29035.468273
456.563888	28468.610687
456.937160	28915.375385
457.310373	27240.888080
457.683526	27691.330299
458.056619	27672.620057
458.429653	27601.219674
458.802628	28178.162088
459.175542	28305.720924
459.548398	29608.070253
459.921194	31181.668947
460.293930	31855.197347
460.666607	33890.658995
461.039224	35641.542466
461.411782	36039.360081
461.784280	34853.000140
462.156719	34380.845671
462.529099	33816.869105
462.901419	32512.253778
463.273680	31438.525817
463.645882	31525.687367
464.018024	31496.037821
464.390106	32336.383044
464.762130	35030.892377
465.134094	39095.887275
465.505999	44408.179581
465.877845	49005.469913
466.249631	50194.173990
466.621358	48498.254219
466.993026	46371.766977
467.364634	44298.300071
467.736184	42319.269100
468.107674	41068.216032
468.479105	40268.999063
468.850477	39582.724105
469.221790	38127.945407
469.593043	36388.091980
469.964238	35489.158468
470.335373	35398.962143
470.706449	37120.639690
471.077467	39676.076192
471.448425	44246.121608
471.819324	47086.738704
472.190164	45244.380975
472.560945	41694.781044
472.931667	38576.401412
473.302330	37457.308108
473.672934	36631.627602
474.043479	37131.137893
474.413965	36328.354307
474.784393	35947.182583
475.154761	36838.698038
475.525070	36875.634572
475.895321	36406.676194
476.265513	36993.620257
476.635645	37967.447672
477.005719	37764.710108
477.375734	38237.310719
477.745691	38924.392262
478.115588	40271.617942
478.485427	42235.028898
478.855207	45561.189768
479.224928	48185.800983
479.594591	49820.982412
479.964194	48828.500207
480.333739	48979.621397
480.703226	49007.483854
481.072653	49632.133227
481.442022	50103.536564
481.811333	50349.572598
482.180584	49034.980828
482.549777	48515.850366
482.918912	47950.333728
483.287988	47650.884148
483.657005	46812.177301
484.025964	46149.925961
484.394864	46160.099009
484.763706	45713.833386
485.132489	44815.129246
485.501213	44632.024456
485.869879	44770.681392
486.238487	44318.172299
486.607036	44496.508158
486.975527	43926.262917
487.343959	44084.754273
487.712333	44163.008105
488.080648	44037.576635
488.448905	44448.402947
488.817104	44245.977935
489.185244	45152.090051
489.553326	46753.773013
489.921350	49391.952493
490.289315	52247.453596
490.657222	52798.600425
491.025070	53040.895923
491.392861	52093.012806
491.760593	50800.438275
492.128267	49069.013657
492.495883	47503.523660
492.863440	46062.169555
493.230939	44666.024518
493.598380	43526.748954
493.965763	43121.785504
494.333088	42265.366562
494.700354	41706.116078
495.067563	41351.803621
495.434713	41144.221509
495.801805	41145.759061
496.168839	40688.856602
496.535815	40270.471080
496.902733	40201.298888
497.269593	39707.475018
497.636395	39551.985669
498.003139	39834.199544
498.369825	39213.356242
498.736453	39410.787991
499.103023	38856.250986
499.469535	38598.365720
499.835989	38595.739278
500.202385	38161.027979
500.568723	38057.633914
500.935003	38107.642160
501.301226	37773.108670
501.667390	38241.789785
502.033497	38349.801547
502.399546	37678.839093
502.765537	36912.498009
503.131470	37143.667681
503.497345	37320.768456
503.863163	35958.275642
504.228923	36368.113888
504.594625	36577.354540
504.960269	35787.267100
505.325856	36253.135251
505.691385	35539.529677
506.056856	35501.542062
506.422270	35717.265638
506.787625	35196.685845
507.152924	35185.504566
507.518164	35114.409173
507.883347	34240.207561
508.248472	34304.499917
508.613540	34520.407495
508.978550	34596.907004
509.343503	34186.184036
509.708398	34188.351732
510.073236	34426.364770
510.438016	34251.600569
510.802738	33583.733384
511.167403	33906.440327
511.532010	33903.924791
511.896561	33931.630973
512.261053	34426.717651
512.625488	33833.199923
512.989866	33522.879095
513.354186	33184.867209
513.718449	32971.155054
514.082655	33275.620581
514.446803	32803.105670
514.810894	32984.113340
515.174927	32699.129351
515.538904	32389.327762
515.902822	32676.945753
516.266684	32018.785310
516.630488	32116.881123
516.994235	31759.932143
517.357925	31953.434312
517.721558	31839.781499
518.085133	31813.597746
518.448651	31661.004539
518.812112	31255.877252
519.175516	31079.489799
519.538863	31074.814129
519.902152	30796.391202
520.265385	30858.697343
520.628560	30626.781581
520.991678	30240.490565
521.354739	30146.147891
521.717743	30094.546640
522.080690	29772.484965
522.443580	29862.701454
522.806413	29636.714089
523.169189	29344.581744
523.531908	29197.919455
523.894569	28842.074488
524.257174	28679.996350
524.619722	28606.922305
524.982213	28309.927767
525.344647	28005.976437
525.707025	27750.339526
526.069345	27724.352378
526.431608	27401.960507
526.793815	27316.729719
527.155964	26781.583512
527.518057	26607.951050
527.880093	26205.687137
528.242072	26250.881082
528.603995	25808.035881
528.965860	25547.224225
529.327669	25337.048439
529.689421	25018.414748
530.051117	24731.063938
530.412755	24540.863724
530.774337	24311.584485
531.135862	23947.613177
531.497331	23781.340800
531.858743	23473.822854
532.220098	23397.446852
532.581396	22975.439261
532.942638	22543.825751
533.303824	22441.586110
533.664953	22160.952637
534.026025	21777.230088
534.387040	21747.643557
534.747999	21467.748613
535.108902	21296.528343
535.469748	20838.156388
535.830537	20644.732356
536.191270	20474.313630
536.551947	20080.327292
536.912567	19970.649429
537.273131	19773.242885
537.633638	19317.756991
537.994089	19223.676457
538.354483	18827.550150
538.714821	18821.652000
539.075103	18719.240960
539.435328	18395.475374
539.795497	18115.439278
540.155609	17874.464563
540.515665	17808.271692
540.875665	17382.745375
541.235609	17279.852905
541.595496	17040.750978
541.955328	17042.207871
542.315102	16614.168539
542.674821	16315.160061
543.034483	16124.874147
543.394090	15898.087759
543.753640	15677.814542
544.113134	15786.199349
544.472571	15277.466268
544.831953	15441.759992
545.191278	15000.182642
545.550548	14724.217277
545.909761	14646.351615
546.268918	14516.972922
546.628019	14398.997319
546.987064	14093.768057
547.346053	13702.977811
547.704986	13743.977515
548.063863	13443.517184
548.422684	13318.199140
548.781449	13089.509717
549.140158	13008.846214
549.498811	12787.683233
549.857408	12466.029891
550.215949	12481.861635
550.574434	12286.020370
550.932864	12074.904408
551.291237	12057.477140
551.649555	11814.995119
552.007817	11695.855010
552.366022	11463.977056
552.724173	11343.168325
553.082267	11262.633372
553.440305	11173.185658
553.798288	10880.549198
554.156215	10789.813470
554.514086	10681.358086
554.871902	10485.506739
555.229661	10345.375265
555.587365	10166.931021
555.945014	10039.384788
556.302606	9884.943999
556.660143	9785.776941
557.017625	9667.584568
557.375050	9494.458742
557.732421	9416.492257
558.089735	9278.936813
558.446994	9141.767016
558.804197	9080.582532
559.161345	8943.082540
559.518437	8716.069300
559.875474	8626.482955
560.232455	8530.373357
560.589381	8428.012728
560.946251	8278.179554
561.303065	8251.257272
561.659825	8110.619162
562.016528	7949.627393
562.373177	7805.468037
562.729770	7747.056188
563.086307	7586.129954
563.442789	7527.831530
563.799216	7431.895852
564.155587	7301.735780
564.511904	7203.624844
564.868164	7122.958821
565.224370	7053.196813
565.580520	6927.866167
565.936615	6857.058120
566.292654	6734.520273
566.648638	6669.655746
567.004567	6578.456232
567.360441	6499.007647
567.716260	6397.025105
568.072023	6337.607545
568.427732	6257.196100
568.783385	6144.062526
569.138982	6087.755358
569.494525	6019.341859
569.850013	5924.671510
570.205445	5850.032187
570.560823	5778.483090
570.916145	5698.036357
571.271412	5631.508250
571.626625	5548.593872
571.981782	5485.730683
572.336884	5399.721037
572.691931	5356.180591
573.046923	5277.599085
573.401860	5204.767015
573.756743	5145.606554
574.111570	5093.642340
574.466342	5031.860479
574.821059	4982.184949
575.175722	4896.891147
575.530330	4845.531871
575.884882	4777.831696
576.239380	4728.317482
576.593823	4684.535061
576.948211	4629.339468
577.302544	4562.065270
577.656823	4517.362838
578.011047	4484.103826
578.365216	4427.814302
578.719330	4379.467116
579.073389	4329.176565
579.427394	4298.186072
579.781344	4262.131739
580.135239	4210.351528
580.489080	4173.750230
580.842866	4119.230151
581.196597	4102.367492
581.550273	4066.280392
581.903895	4031.924928
582.257463	4012.183770
582.610975	3959.234011
582.964434	3938.713994
583.317837	3899.950041
583.671186	3865.244218
584.024481	3842.440558
584.377721	3800.311636
584.730906	3785.261271
585.084037	3759.173300
585.437113	3720.237948
585.790135	3696.617622
586.143103	3661.662261
586.496016	3640.817090
586.848874	3615.613841
587.201679	3599.277982
587.554428	3562.379256
587.907124	3547.152451
588.259765	3519.622710
588.612352	3507.518900
588.964884	3476.326760
589.317362	3464.580872
589.669786	3449.245682
590.022155	3423.944131
590.374470	3416.115219
590.726731	3389.918863
591.078937	3360.269316
591.431090	3349.597194
591.783188	3328.147084
592.135232	3303.962148
592.487222	3293.305149
592.839157	3284.984725
593.191038	3265.170470
593.542866	3246.301431
593.894639	3220.888974
594.246358	3219.474931
594.598022	3205.899103
594.949633	3186.982173
595.301190	3178.525638
595.652692	3162.197341
596.004141	3153.886998
596.355535	3130.463277
596.706876	3116.837038
597.058162	3107.687344
597.409395	3103.669544
597.760573	3097.854573
598.111698	3080.306317
598.462768	3073.629309
598.813785	3067.083370
599.164748	3053.270609
599.515657	3048.413457
599.866511	3033.042979
600.217312	3034.388967
600.568060	3014.050432
600.918753	3016.293745
601.269392	3010.995493
601.619978	2998.344717
601.970510	2995.778770
602.320988	2990.828357
602.671412	2988.617811
603.021783	2978.298569
603.372100	2970.560398
603.722363	2964.440437
604.072572	2957.816361
604.422728	2953.435598
604.772830	2944.394289
605.122878	2938.362548
605.472872	2935.365582
605.822813	2929.129675
606.172701	2926.571289
606.522534	2922.674477
606.872314	2922.558531
607.222041	2915.460586
607.571714	2913.744073
607.921333	2902.981210
608.270899	2902.865263
608.620411	2900.874008
608.969870	2892.399828
609.319276	2888.830691
609.668627	2884.399517
610.017926	2884.510422
610.367171	2881.823487
610.716362	2880.028836
611.065500	2874.639843
611.414585	2870.352342
611.763616	2870.165819
612.112594	2865.689274
612.461518	2861.825230
612.810389	2862.120137
613.159207	2854.434898
613.507971	2850.908611
613.856682	2854.291225
614.205340	2849.237469
614.553945	2847.679752
614.902496	2841.748835
615.250994	2839.487877
615.599439	2836.483349
615.947830	2836.054851
616.296169	2832.518482
616.644454	2829.856753
616.992686	2829.055209
617.340864	2825.909529
617.688990	2822.970537
618.037063	2824.014055
618.385082	2821.543890
618.733048	2818.957778
619.080961	2817.352171
619.428821	2812.658856
619.776628	2811.474185
620.124382	2802.470684
620.472083	2802.826086
620.819731	2801.139820
621.167326	2794.707307
621.514868	2794.850980
621.862357	2784.188940
622.209793	2785.083745
622.557176	2776.954884
622.904506	2773.612599
623.251783	2763.021135
623.599007	2760.316556
623.946179	2755.456884
624.293297	2752.412027
624.640363	2751.308014
624.987376	2747.660739
625.334336	2744.449524
625.681243	2739.136148
626.028097	2735.173801
626.374899	2733.742113
626.721647	2727.871690
627.068343	2727.322204
627.414987	2722.880947
627.761577	2720.196533
628.108115	2720.622511
628.454600	2715.543548
628.801032	2714.086655
629.147412	2711.944164
629.493739	2710.726726
629.840014	2707.724718
630.186236	2708.425439
630.532405	2701.821527
630.878521	2701.118286
631.224585	2702.333204
631.570597	2697.523944
631.916556	2696.994622
632.262462	2696.699715
632.608316	2694.156453
632.954117	2693.183510
633.299866	2689.009435
633.645562	2688.286029
633.991206	2684.232942
634.336797	2680.721778
634.682336	2682.355112
635.027823	2677.167764
635.373257	2674.894204
635.718639	2673.802794
636.063968	2668.517144
636.409245	2664.320384
636.754470	2663.380209
637.099642	2660.289981
637.444762	2657.131698
637.789829	2656.637665
638.134845	2654.739671
638.479808	2653.141625
