Dividing Wavelength (nm)	Counts (n)	Blue Motor Position (mm): 0.000000	Red Motor Position (mm): 6.800000	
326.493990	1976.717082
326.888308	1976.717082
327.282561	1976.717082
327.676750	1950.908894
328.070874	1951.879317
328.464933	1959.768722
328.858929	1969.049487
329.252859	1981.624645
329.646726	1997.264825
330.040528	2011.100271
330.434265	2027.360513
330.827938	2049.750798
331.221547	2071.911710
331.615091	2088.857549
332.008571	2110.700868
332.401986	2129.577469
332.795338	2151.826602
333.188625	2172.752431
333.581847	2191.167766
333.975006	2207.911959
334.368100	2226.133209
334.761129	2244.795561
335.154095	2258.999012
335.546996	2273.666249
335.939833	2286.226284
336.332606	2300.180198
336.725315	2308.621610
337.117960	2318.028403
337.510540	2325.118786
337.903056	2335.730414
338.295508	2339.544047
338.687896	2347.178875
339.080220	2352.366222
339.472480	2358.178673
339.864676	2360.868128
340.256807	2366.121010
340.648875	2366.178984
341.040879	2368.223172
341.432818	2368.802904
341.824694	2371.585621
342.216506	2372.006558
342.608253	2371.376413
342.999937	2371.409181
343.391557	2370.078316
343.783113	2366.978007
344.174605	2369.060003
344.566033	2362.892151
344.957397	2364.522965
345.348697	2357.344362
345.739934	2360.568179
346.131106	2357.964423
346.522215	2354.337313
346.913260	2354.894361
347.304241	2353.780266
347.695159	2352.419154
348.086012	2348.550069
348.476802	2348.398834
348.867528	2348.711386
349.258191	2346.601663
349.648789	2345.381703
350.039324	2343.153513
350.429796	2345.323730
350.820203	2342.823318
351.210548	2343.498833
351.600828	2343.501353
351.991045	2341.784840
352.381198	2341.250478
352.771288	2340.511949
353.161314	2341.109326
353.551276	2340.708554
353.941175	2339.256702
354.331010	2341.429439
354.720782	2341.222752
355.110490	2344.098730
355.500135	2341.794923
355.889717	2343.450942
356.279235	2344.199553
356.668689	2343.599656
357.058080	2340.721157
357.447408	2342.944306
357.836672	2340.332988
358.225873	2341.593276
358.615010	2340.025478
359.004084	2344.633092
359.393095	2344.234841
359.782043	2348.177023
360.170927	2346.301714
360.559748	2345.048987
360.948505	2350.130470
361.337199	2348.361025
361.725830	2350.120388
362.114398	2351.342868
362.502903	2351.849504
362.891344	2351.852024
363.279722	2349.122240
363.668037	2354.675071
364.056289	2353.142560
364.444478	2352.585512
364.832603	2354.012159
365.220665	2353.150122
365.608665	2353.051819
365.996601	2356.361337
366.384474	2355.816892
366.772284	2358.261852
367.160031	2356.038703
367.547715	2358.171111
367.935336	2357.067098
368.322893	2356.764629
368.710388	2358.065247
369.097820	2364.374251
369.485189	2358.778570
369.872495	2361.924250
370.259738	2360.197655
370.646918	2365.054806
371.034035	2365.284179
371.421090	2368.518079
371.808081	2369.269211
372.195010	2375.076620
372.581875	2379.369163
372.968678	2383.407127
373.355418	2387.099772
373.742096	2399.319529
374.128710	2411.882084
374.515262	2419.027920
374.901751	2435.935950
375.288177	2447.971705
375.674540	2469.988944
376.060841	2487.965699
376.447079	2511.865809
376.833254	2536.864891
377.219367	2560.155022
377.605417	2593.328335
377.991404	2620.006121
378.377329	2660.108500
378.763191	2695.643593
379.148991	2736.292937
379.534727	2778.958743
379.920402	2824.697132
380.306013	2869.036600
380.691563	2924.638007
381.077049	2972.231540
381.462474	3023.600898
381.847835	3084.989549
382.233134	3144.381903
382.618371	3193.810416
383.003545	3261.261055
383.388657	3322.637103
383.773706	3392.686456
384.158693	3443.834003
384.543618	3506.172912
384.928480	3559.878844
385.313280	3629.464411
385.698017	3692.045295
386.082692	3768.078498
386.467305	3789.634472
386.851856	3862.090976
387.236344	3948.428297
387.620770	3965.686687
388.005133	4022.508053
388.389435	4091.355091
388.773674	4113.682362
389.157851	4165.364271
389.541965	4214.011405
389.926018	4185.203732
390.310008	4255.300976
390.693936	4284.159061
391.077802	4306.198986
391.461606	4335.949355
391.845348	4345.237681
392.229027	4357.258312
392.612645	4421.613682
392.996200	4422.415226
393.379694	4454.119042
393.763125	4500.873224
394.146494	4472.204182
394.529801	4470.041527
394.913047	4504.480169
395.296230	4432.784879
395.679351	4387.313672
396.062410	4410.036673
396.445408	4296.083911
396.828343	4272.367802
397.211217	4243.166919
397.594028	4128.296667
397.976778	4120.508084
398.359466	4097.139815
398.742092	4007.366947
399.124656	3976.321002
399.507158	3947.533492
399.889598	3877.050600
400.271977	3852.535469
400.654294	3787.159265
401.036549	3752.856734
401.418742	3683.987011
401.800874	3672.687264
402.182944	3611.313737
402.564952	3599.729165
402.946898	3495.236128
403.328783	3437.414094
403.710606	3397.145357
404.092367	3361.368288
404.474067	3341.324660
404.855705	3252.905342
405.237282	3188.769262
405.618797	3170.474915
406.000250	3136.074081
406.381642	3108.093157
406.762972	3050.916390
407.144240	2982.959116
407.525447	2950.128601
407.906593	2897.811507
408.287677	2869.034080
408.668700	2834.484532
409.049661	2797.870632
409.430560	2764.805703
409.811399	2732.449057
410.192176	2704.309337
410.572891	2677.676921
410.953545	2660.433654
411.334138	2623.066101
411.714669	2611.962960
412.095139	2576.382496
412.475547	2566.264900
412.855894	2546.397713
413.236180	2537.628626
413.616405	2512.395130
413.996568	2504.732577
414.376670	2494.214209
414.756711	2481.823053
415.136691	2474.629326
415.516609	2468.295117
415.896466	2460.824127
416.276262	2457.219702
416.655997	2450.903136
417.035670	2444.873916
417.415283	2445.055397
417.794834	2439.406784
418.174324	2440.440221
418.553753	2432.278593
418.933121	2435.550302
419.312428	2427.534867
419.691674	2428.984199
420.070859	2424.111924
420.449983	2424.079156
420.829045	2422.120668
421.208047	2420.187385
421.586988	2421.067067
421.965867	2419.763928
422.344686	2420.197468
422.723444	2420.444484
423.102141	2414.558937
423.480777	2414.306879
423.859352	2411.987949
424.237866	2411.705644
424.616319	2417.840728
424.994712	2415.161355
425.373044	2410.155489
425.751314	2412.469379
426.129524	2411.383010
426.507673	2413.591036
426.885762	2410.374779
427.263789	2410.175654
427.641756	2408.411250
428.019662	2408.927968
428.397508	2410.861251
428.775292	2410.168092
429.153016	2409.714388
429.530679	2410.405026
429.908282	2410.732701
430.285824	2408.736404
430.663305	2409.248082
431.040726	2408.575088
431.418086	2405.641136
431.795385	2407.849161
432.172624	2409.169944
432.549802	2409.661456
432.926920	2408.401168
433.303977	2408.544841
433.680974	2406.331774
434.057910	2410.173133
434.434786	2411.483833
434.811601	2412.366035
435.188355	2408.882598
435.565050	2410.742784
435.941683	2408.731363
436.318257	2407.962587
436.694770	2407.080385
437.071222	2411.655233
437.447614	2405.023595
437.823946	2408.418812
438.200218	2410.215983
438.576429	2408.562485
438.952580	2409.038874
439.328670	2410.760428
439.704700	2410.583987
440.080670	2410.445356
440.456580	2410.820922
440.832429	2414.584143
441.208218	2408.398647
441.583947	2411.824111
441.959616	2412.769328
442.335224	2409.880746
442.710773	2413.316293
443.086261	2411.607342
443.461689	2411.501477
443.837057	2409.106929
444.212365	2413.200346
444.587612	2411.408216
444.962800	2411.836714
445.337927	2412.963412
445.712995	2411.990469
446.088002	2414.306879
446.462949	2414.800912
446.837837	2413.417116
447.212664	2413.961560
447.587431	2416.078845
447.962139	2421.392221
448.336786	2423.620411
448.711374	2422.783580
449.085901	2419.015317
449.460369	2414.561458
449.834776	2414.914338
450.209124	2418.735533
450.583412	2420.091603
450.957640	2421.780390
451.331808	2421.127561
451.705917	2418.117992
452.079965	2419.491706
452.453954	2416.971129
452.827883	2418.546490
453.201752	2418.576737
453.575562	2418.609504
453.949311	2418.496078
454.323001	2417.026582
454.696632	2419.121181
455.070202	2421.926583
455.443713	2420.326017
455.817164	2421.813158
456.190556	2420.046233
456.563888	2420.131933
456.937160	2416.703948
457.310373	2419.811819
457.683526	2419.693352
458.056619	2422.218970
458.429653	2418.949782
458.802628	2420.005904
459.175542	2423.635535
459.548398	2422.534042
459.921194	2427.484456
460.293930	2430.748603
460.666607	2428.558221
461.039224	2432.331525
461.411782	2432.051741
461.784280	2432.301278
462.156719	2429.342121
462.529099	2428.099476
462.901419	2427.938159
463.273680	2429.430341
463.645882	2426.183838
464.018024	2428.535536
464.390106	2426.483787
464.762130	2430.962852
465.134094	2435.293203
465.505999	2445.809050
465.877845	2446.103957
466.249631	2450.993877
466.621358	2445.998093
466.993026	2449.410954
467.364634	2444.268977
467.736184	2435.426793
468.107674	2436.286310
468.479105	2438.794284
468.850477	2436.954263
469.221790	2435.323450
469.593043	2431.421597
469.964238	2431.144333
470.335373	2431.887903
470.706449	2429.972265
471.077467	2437.672627
471.448425	2441.574481
471.819324	2440.775458
472.190164	2441.645057
472.560945	2438.711105
472.931667	2432.245825
473.302330	2430.191555
473.672934	2434.118614
474.043479	2429.712646
474.413965	2427.292892
474.784393	2426.289702
475.154761	2431.005702
475.525070	2426.004877
475.895321	2428.853129
476.265513	2426.209044
476.635645	2435.114242
477.005719	2429.750454
477.375734	2429.004363
477.745691	2433.306988
478.115588	2434.083326
478.485427	2437.299582
478.855207	2440.394851
479.224928	2442.499532
479.594591	2447.175202
479.964194	2446.663525
480.333739	2445.428443
480.703226	2444.833587
481.072653	2444.798298
481.442022	2441.335026
481.811333	2443.911055
482.180584	2446.519853
482.549777	2444.112702
482.918912	2443.003648
483.287988	2443.510284
483.657005	2441.403081
484.025964	2441.332505
484.394864	2440.248657
484.763706	2436.591300
485.132489	2437.463420
485.501213	2439.013574
485.869879	2437.324788
486.238487	2439.941147
486.607036	2438.025508
486.975527	2438.890066
487.343959	2438.338060
487.712333	2437.881835
488.080648	2435.625919
488.448905	2435.502411
488.817104	2436.956784
489.185244	2440.362083
489.553326	2440.936775
489.921350	2443.164965
490.289315	2445.299893
490.657222	2445.700665
491.025070	2449.138732
491.392861	2450.126798
491.760593	2444.357198
492.128267	2441.619851
492.495883	2439.847885
492.863440	2440.349480
493.230939	2435.802359
493.598380	2439.031218
493.965763	2434.678182
494.333088	2436.276228
494.700354	2433.869077
495.067563	2432.414704
495.434713	2432.165167
495.801805	2438.267484
496.168839	2432.828079
496.535815	2436.961825
496.902733	2436.336722
497.269593	2434.703388
497.636395	2437.337391
498.003139	2436.825714
498.369825	2434.965528
498.736453	2440.457865
499.103023	2440.462906
499.469535	2437.717998
499.835989	2439.149686
500.202385	2438.610282
500.568723	2439.983997
500.935003	2441.990376
501.301226	2437.231527
501.667390	2444.964657
502.033497	2445.468772
502.399546	2446.214863
502.765537	2446.058587
503.131470	2448.145625
503.497345	2451.046809
503.863163	2446.086313
504.228923	2451.629062
504.594625	2452.589402
504.960269	2453.716100
505.325856	2454.578137
505.691385	2456.345061
506.056856	2459.861266
506.422270	2458.757253
506.787625	2459.347068
507.152924	2463.579117
507.518164	2464.887297
507.883347	2462.863273
508.248472	2466.533233
508.613540	2468.519448
508.978550	2468.826958
509.343503	2470.530868
509.708398	2476.905407
510.073236	2474.914152
510.438016	2478.074955
510.802738	2476.023205
511.167403	2480.338433
511.532010	2477.260809
511.896561	2482.150728
512.261053	2483.509319
512.625488	2478.730305
512.989866	2477.260809
513.354186	2479.536890
513.718449	2477.979173
514.082655	2483.973105
514.446803	2480.615697
514.810894	2484.303301
515.174927	2481.661736
515.538904	2482.037302
515.902822	2483.930255
516.266684	2484.512508
516.630488	2480.411530
516.994235	2478.800881
517.357925	2479.945223
517.721558	2479.277270
518.085133	2476.862558
518.448651	2477.311220
518.812112	2473.225365
519.175516	2472.862402
519.538863	2472.607824
519.902152	2466.321505
520.265385	2471.208903
520.628560	2466.755044
520.991678	2464.776391
521.354739	2462.911164
521.717743	2460.325052
522.080690	2461.355968
522.443580	2457.738940
522.806413	2456.612243
523.169189	2453.325410
523.531908	2455.551080
523.894569	2451.896243
524.257174	2449.105964
524.619722	2450.653599
524.982213	2450.013372
525.344647	2446.729060
525.707025	2442.802002
526.069345	2444.367280
526.431608	2442.522217
526.793815	2439.719336
527.155964	2439.613472
527.518057	2435.693975
527.880093	2438.408636
528.242072	2435.724222
528.603995	2433.420414
528.965860	2430.216761
529.327669	2433.611978
529.689421	2429.596699
530.051117	2432.757503
530.412755	2431.111566
530.774337	2431.497214
531.135862	2430.189035
531.497331	2425.893972
531.858743	2424.858014
532.220098	2427.371030
532.581396	2422.735689
532.942638	2424.394228
533.303824	2425.936821
533.664953	2425.594023
534.026025	2423.484300
534.387040	2425.130237
534.747999	2423.169228
535.108902	2425.596543
535.469748	2423.038158
535.830537	2425.339445
536.191270	2422.584454
536.551947	2424.583272
536.912567	2424.497572
537.273131	2422.783580
537.633638	2422.292067
537.994089	2422.723086
538.354483	2423.685946
538.714821	2422.450863
539.075103	2421.082190
539.435328	2421.417427
539.795497	2419.143867
540.155609	2423.257448
540.515665	2421.082190
540.875665	2421.508168
541.235609	2422.171079
541.595496	2420.358785
541.955328	2419.705955
542.315102	2420.434402
542.674821	2420.555390
543.034483	2420.489855
543.394090	2421.956830
543.753640	2424.747109
544.113134	2420.668816
544.472571	2419.423651
544.831953	2423.237283
545.191278	2419.358116
545.550548	2419.579926
545.909761	2422.279464
546.268918	2418.760739
546.628019	2423.184351
546.987064	2420.532704
547.346053	2422.284505
547.704986	2419.441295
548.063863	2420.562951
548.422684	2422.776018
548.781449	2420.590678
549.140158	2419.816861
549.498811	2421.319124
549.857408	2419.544638
550.215949	2416.595563
550.574434	2415.166396
550.932864	2417.755029
551.291237	2413.744791
551.649555	2419.080852
552.007817	2419.781573
552.366022	2420.658733
552.724173	2420.623445
553.082267	2417.928948
553.440305	2420.434402
553.798288	2420.010945
554.156215	2421.798034
554.514086	2420.827612
554.871902	2418.848959
555.229661	2417.989442
555.587365	2415.819226
555.945014	2419.834505
556.302606	2421.707293
556.660143	2418.629669
557.017625	2419.305183
557.375050	2420.257962
557.732421	2416.817374
558.089735	2420.883065
558.446994	2417.729823
558.804197	2418.957344
559.161345	2416.721592
559.518437	2420.351223
559.875474	2419.864752
560.232455	2418.133115
560.589381	2419.990780
560.946251	2420.124371
561.303065	2420.084042
561.659825	2419.106058
562.016528	2418.848959
562.373177	2418.861562
562.729770	2417.558424
563.086307	2420.935997
563.442789	2417.971798
563.799216	2419.307704
564.155587	2415.103382
564.511904	2420.139494
564.868164	2419.496747
565.224370	2420.421799
565.580520	2418.092786
565.936615	2418.301994
566.292654	2417.618918
566.648638	2418.047416
567.004567	2419.484144
567.360441	2417.162693
567.716260	2417.621438
568.072023	2415.912487
568.427732	2413.056673
568.783385	2417.170255
569.138982	2411.909811
569.494525	2413.752353
569.850013	2413.064235
570.205445	2419.721079
570.560823	2415.947775
570.916145	2420.731830
571.271412	2416.151942
571.626625	2417.228228
571.981782	2416.371232
572.336884	2415.524318
572.691931	2419.484144
573.046923	2418.024730
573.401860	2417.238310
573.756743	2414.294277
574.111570	2416.945923
574.466342	2416.240162
574.821059	2417.346695
575.175722	2416.363670
575.530330	2415.007600
575.884882	2417.029102
576.239380	2415.506674
576.593823	2418.007086
576.948211	2415.080697
577.302544	2419.481624
577.656823	2417.865934
578.011047	2415.778896
578.365216	2418.107909
578.719330	2416.784607
579.073389	2415.110943
579.427394	2416.628331
579.781344	2415.161355
580.135239	2417.366860
580.489080	2417.276119
580.842866	2415.357960
581.196597	2415.720923
581.550273	2415.037847
581.903895	2416.502302
582.257463	2416.441808
582.610975	2414.327044
582.964434	2417.870975
583.317837	2416.121695
583.671186	2413.764955
584.024481	2415.705800
584.377721	2414.258988
584.730906	2416.041036
585.084037	2415.249575
585.437113	2415.211767
585.790135	2414.609349
586.143103	2414.942065
586.496016	2413.550706
586.848874	2411.851837
587.201679	2412.492064
587.554428	2409.369069
587.907124	2412.582805
588.259765	2411.463669
588.612352	2416.472055
588.964884	2412.991138
589.317362	2413.991807
589.669786	2415.282343
590.022155	2416.088927
590.374470	2415.342837
590.726731	2415.390728
591.078937	2412.381159
591.431090	2414.392579
591.783188	2415.985584
592.135232	2413.757394
592.487222	2413.701941
592.839157	2415.027764
593.191038	2411.884605
593.542866	2416.013310
593.894639	2412.398803
594.246358	2414.115316
594.598022	2415.141190
594.949633	2412.560120
595.301190	2412.749163
595.652692	2410.589028
596.004141	2412.913000
596.355535	2414.425347
596.706876	2412.797054
597.058162	2410.425191
597.409395	2412.434091
597.760573	2415.521797
598.111698	2412.056004
598.462768	2413.081879
598.813785	2414.145563
599.164748	2412.628175
599.515657	2412.086251
599.866511	2410.397465
600.217312	2409.358987
600.568060	2413.543145
600.918753	2414.014492
601.269392	2413.414595
601.619978	2416.146901
601.970510	2412.834862
602.320988	2413.880902
602.671412	2413.376787
603.021783	2413.205387
603.372100	2412.640778
603.722363	2410.614234
604.072572	2412.950809
604.422728	2414.042219
604.772830	2411.226734
605.122878	2409.117012
605.472872	2409.638771
605.822813	2408.454100
606.172701	2412.618093
606.522534	2413.079358
606.872314	2412.628175
607.222041	2411.292269
607.571714	2415.446180
607.921333	2415.254616
608.270899	2414.964750
608.620411	2413.767476
608.969870	2412.260171
609.319276	2414.029616
609.668627	2411.395613
610.017926	2411.690521
610.367171	2413.938875
610.716362	2414.206056
611.065500	2411.496436
611.414585	2411.819070
611.763616	2412.456776
612.112594	2412.671025
612.461518	2410.964594
612.810389	2416.262847
613.159207	2413.641447
613.507971	2412.837383
613.856682	2411.836714
614.205340	2409.497619
614.553945	2412.182033
614.902496	2413.109605
615.250994	2412.174471
615.599439	2413.033988
615.947830	2411.055335
616.296169	2414.400141
616.644454	2412.605490
616.992686	2411.418298
617.340864	2410.606673
617.688990	2411.703123
618.037063	2413.154976
618.385082	2411.680438
618.733048	2412.487023
619.080961	2412.920562
619.428821	2414.581622
619.776628	2411.778741
620.124382	2412.839904
620.472083	2410.760428
620.819731	2413.182702
621.167326	2411.564492
621.514868	2416.824936
621.862357	2414.833680
622.209793	2412.776889
622.557176	2411.624986
622.904506	2409.379152
623.251783	2407.932340
623.599007	2410.077351
623.946179	2407.571898
624.293297	2409.540468
624.640363	2410.962074
624.987376	2410.243709
625.334336	2410.609193
625.681243	2410.914183
626.028097	2410.417629
626.374899	2413.737229
626.721647	2410.843607
627.068343	2409.331261
627.414987	2410.389903
627.761577	2410.004255
628.108115	2411.284708
628.454600	2412.890315
628.801032	2412.872671
629.147412	2409.822773
629.493739	2408.060890
629.840014	2410.410067
630.186236	2410.460479
630.532405	2407.771023
630.878521	2410.619275
631.224585	2410.730181
631.570597	2406.931671
631.916556	2407.670200
632.262462	2409.830335
632.608316	2409.802608
632.954117	2409.621127
633.299866	2409.719429
633.645562	2411.796385
633.991206	2411.141035
634.336797	2408.910324
634.682336	2411.902249
635.027823	2410.009296
635.373257	2408.136507
635.718639	2410.697413
636.063968	2410.941909
636.409245	2404.746331
636.754470	2409.832855
637.099642	2407.075344
637.444762	2408.559964
637.789829	2405.721794
638.134845	2409.043915
638.479808	2409.618606
638.824719	2405.878070
639.169577	2408.035684
639.514383	2407.856723
639.859137	2409.361508
640.203839	2408.938051
640.548489	2407.352608
640.893086	2406.319171
641.237632	2403.700292
641.582125	2404.839593
641.926566	2404.945457
642.270955	2406.107443
642.615292	2407.375293
642.959576	2406.684655
643.303809	2407.700447
643.647990	2404.947977
643.992118	2404.264901
644.336195	2407.531569
