Dividing Wavelength (nm)	Counts (n)	Blue Motor Position (mm): 0.000000	Red Motor Position (mm): 40.200000	
326.493990	1994.003198
326.888308	1994.003198
327.282561	1994.003198
327.676750	1970.942440
328.070874	1972.981587
328.464933	1976.903604
328.858929	1987.492548
329.252859	2001.287665
329.646726	2014.961795
330.040528	2027.791532
330.434265	2050.474203
330.827938	2068.024981
331.221547	2089.306212
331.615091	2106.922524
332.008571	2126.648559
332.401986	2150.326858
332.795338	2171.658501
333.188625	2189.531912
333.581847	2209.142000
333.975006	2227.852243
334.368100	2245.002248
334.761129	2263.709970
335.154095	2276.146497
335.546996	2306.693368
335.939833	2352.487210
336.332606	2364.026411
336.725315	2374.943030
337.117960	2386.845194
337.510540	2392.980278
337.903056	2403.733059
338.295508	2410.314286
338.687896	2415.725964
339.080220	2425.410021
339.472480	2431.257759
339.864676	2435.257915
340.256807	2436.084664
340.648875	2437.589448
341.040879	2439.830241
341.432818	2439.195056
341.824694	2441.345108
342.216506	2439.610951
342.608253	2443.391817
342.999937	2438.711105
343.391557	2440.788061
343.783113	2437.675148
344.174605	2436.261104
344.566033	2437.541557
344.957397	2433.186001
345.348697	2431.235074
345.739934	2431.834971
346.131106	2429.072419
346.522215	2427.376071
346.913260	2425.079825
347.304241	2425.072263
347.695159	2424.411872
348.086012	2425.205854
348.476802	2420.678898
348.867528	2419.469021
349.258191	2418.599422
349.648789	2417.697055
350.039324	2415.927610
350.429796	2417.278640
350.820203	2416.469534
351.210548	2414.700089
351.600828	2413.868299
351.991045	2414.080028
352.381198	2413.603638
352.771288	2414.949627
353.161314	2415.257137
353.551276	2414.044739
353.941175	2411.864440
354.331010	2416.381314
354.720782	2412.696231
355.110490	2415.809143
355.500135	2416.638413
355.889717	2416.353588
356.279235	2414.258988
356.668689	2416.794689
357.058080	2416.761921
357.447408	2416.479617
357.836672	2413.611200
358.225873	2415.153793
358.615010	2420.946079
359.004084	2424.043868
359.393095	2421.062026
359.782043	2421.198137
360.170927	2423.481779
360.559748	2426.902202
360.948505	2424.358940
361.337199	2426.637542
361.725830	2428.054106
362.114398	2428.588468
362.502903	2428.706935
362.891344	2430.083170
363.279722	2428.573345
363.668037	2431.048551
364.056289	2429.276586
364.444478	2432.888573
364.832603	2433.402770
365.220665	2434.267328
365.608665	2436.016608
365.996601	2434.234561
366.384474	2437.289500
366.772284	2441.123297
367.160031	2438.789243
367.547715	2440.460386
367.935336	2442.489450
368.322893	2441.365273
368.710388	2441.065324
369.097820	2445.985490
369.485189	2445.438525
369.872495	2448.286777
370.259738	2449.655450
370.646918	2450.333485
371.034035	2450.739298
371.421090	2457.136523
371.808081	2459.846143
372.195010	2464.920064
372.581875	2471.949953
372.968678	2478.594194
373.355418	2485.868579
373.742096	2497.826196
374.128710	2508.994872
374.515262	2519.906450
374.901751	2534.820703
375.288177	2553.127653
375.674540	2573.718246
376.060841	2595.589292
376.447079	2619.549897
376.833254	2648.597025
377.219367	2671.443534
377.605417	2707.611292
377.991404	2733.147257
378.377329	2776.942281
378.763191	2811.174237
379.148991	2857.245342
379.534727	2906.615882
379.920402	2956.379632
380.306013	3007.819566
380.691563	3074.403126
381.077049	3130.609471
381.462474	3187.884540
381.847835	3263.852208
382.233134	3337.747962
382.618371	3398.148546
383.003545	3488.382680
383.388657	3572.073395
383.773706	3664.628980
384.158693	3741.284765
384.543618	3836.219774
384.928480	3919.124070
385.313280	4024.930327
385.698017	4133.927635
386.082692	4255.729474
386.467305	4321.342612
386.851856	4446.239719
387.236344	4610.903968
387.620770	4679.420811
388.005133	4798.054284
388.389435	4951.098674
388.773674	5035.185120
389.157851	5173.864742
389.541965	5308.307274
389.926018	5332.280481
390.310008	5518.856105
390.693936	5642.334127
391.077802	5764.153610
391.461606	5902.745012
391.845348	6018.283217
392.229027	6135.008613
392.612645	6367.393203
392.996200	6488.080947
393.379694	6668.592063
393.763125	6897.377268
394.146494	6989.068295
394.529801	7130.956611
394.913047	7385.353399
395.296230	7376.652368
395.679351	7438.570340
396.062410	7713.192237
396.445408	7601.815504
396.828343	7756.553721
397.211217	7904.866988
397.594028	7778.931403
397.976778	7994.314701
398.359466	8165.827358
398.742092	8136.104715
399.124656	8290.459805
399.507158	8474.761869
399.889598	8500.106270
400.271977	8706.934730
400.654294	8749.782017
401.036549	8948.234600
401.418742	8972.117066
401.800874	9287.975601
402.182944	9365.427889
402.564952	9743.897555
402.946898	9561.647241
403.328783	9613.684551
403.710606	9816.336415
404.092367	10079.905583
404.474067	10450.521131
404.855705	10235.271423
405.237282	10192.000679
405.618797	10625.471855
406.000250	10883.785619
406.381642	11256.276477
406.762972	11206.106913
407.144240	10995.555561
407.525447	11260.629513
407.906593	11195.981756
408.287677	11462.615945
408.668700	11619.557146
409.049661	11593.010430
409.430560	11751.428690
409.811399	11728.020092
410.192176	11893.750545
410.572891	11967.399282
410.953545	12473.155562
411.334138	11931.299579
411.714669	12548.969475
412.095139	11835.497492
412.475547	12357.619878
412.855894	12197.782533
413.236180	12536.351467
413.616405	12209.140253
413.996568	12505.592867
414.376670	12473.291673
414.756711	12340.984070
415.136691	12632.214048
415.516609	12820.307060
415.896466	12892.375396
416.276262	13183.870034
416.655997	13627.219351
417.035670	13659.875945
417.415283	14326.553418
417.794834	14420.618828
418.174324	14166.673224
418.553753	14060.272110
418.933121	14571.493001
419.312428	14365.627401
419.691674	14282.710503
420.070859	14745.952212
420.449983	14397.013625
420.829045	14957.199243
421.208047	14697.831878
421.586988	15159.518391
421.965867	15426.114771
422.344686	15418.729481
422.723444	15995.112327
423.102141	14656.814530
423.480777	15879.294338
423.859352	15363.246542
424.237866	16510.575348
424.616319	16204.100921
424.994712	16873.170421
425.373044	16655.049777
425.751314	17353.587342
426.129524	16446.857684
426.507673	17582.707784
426.885762	17267.028209
427.263789	17475.026217
427.641756	17639.990415
428.019662	17700.219601
428.397508	17746.489831
428.775292	18065.942709
429.153016	18014.182662
429.530679	18107.837218
429.908282	18122.630484
430.285824	17829.711719
430.663305	18563.396209
431.040726	18153.822624
431.418086	17968.819839
431.795385	18635.819946
432.172624	19058.558504
432.549802	18608.791799
432.926920	18802.994690
433.303977	18682.463222
433.680974	18943.542059
434.057910	19234.212469
434.434786	19259.796325
434.811601	19171.230813
435.188355	20232.451671
435.565050	19867.333501
435.941683	19820.163425
436.318257	20715.668953
436.694770	20520.195692
437.071222	21130.389556
437.447614	20178.886891
437.823946	20199.432114
438.200218	20369.709688
438.576429	20137.841817
438.952580	20424.829664
439.328670	20379.668487
439.704700	20803.180863
440.080670	20362.442864
440.456580	20969.405349
440.832429	21156.187661
441.208218	20116.633682
441.583947	20577.153168
441.959616	20685.474962
442.335224	20929.532343
442.710773	21059.873896
443.086261	21597.391966
443.461689	20960.235490
443.837057	21094.075604
444.212365	21733.694684
444.587612	21731.932801
444.962800	21300.021862
445.337927	21736.316084
445.712995	20443.602921
446.088002	22344.213703
446.462949	22524.646681
446.837837	22713.826062
447.212664	22675.772912
447.587431	25561.662089
447.962139	28547.129179
448.336786	30950.998349
448.711374	29364.890033
449.085901	25629.074919
449.460369	25572.188019
449.834776	25490.720452
450.209124	28021.057049
450.583412	27543.107773
450.957640	28075.083095
451.331808	26694.011108
451.705917	25312.402237
452.079965	25360.681368
452.453954	25726.152419
452.827883	25593.854898
453.201752	25399.556226
453.575562	25569.059983
453.949311	26716.595477
454.323001	26770.465247
454.696632	26536.699381
455.070202	28122.817780
455.443713	28252.534231
455.817164	28859.685759
456.190556	29382.287054
456.563888	28812.795466
456.937160	29260.828014
457.310373	27565.722389
457.683526	28034.884934
458.056619	28008.068516
458.429653	27952.099105
458.802628	28540.225319
459.175542	28660.597990
459.548398	29959.373141
459.921194	31558.197768
460.293930	32226.143091
460.666607	34282.701967
461.039224	36055.728707
461.411782	36471.097099
461.784280	35267.998007
462.156719	34783.875839
462.529099	34221.930858
462.901419	32921.250151
463.273680	31840.686386
463.645882	31941.199432
464.018024	31919.318304
464.390106	32760.616304
464.762130	35496.168192
465.134094	39576.795708
465.505999	44902.126958
465.877845	49525.142298
466.249631	50696.966072
466.621358	49026.216782
466.993026	46944.520192
467.364634	44855.534094
467.736184	42855.279865
468.107674	41589.630136
468.479105	40798.524384
468.850477	40088.505591
469.221790	38634.107500
469.593043	36872.914869
469.964238	35971.806099
470.335373	35902.402013
470.706449	37649.227356
471.077467	40252.333008
471.448425	44855.312283
471.819324	47674.663271
472.190164	45822.205591
472.560945	42235.679207
472.931667	39104.968914
473.302330	37971.407498
473.672934	37143.481158
474.043479	37654.664240
474.413965	36841.281629
474.784393	36473.899981
475.154761	37377.287353
475.525070	37403.395488
475.895321	36942.044212
476.265513	37543.353043
476.635645	38529.256542
477.005719	38350.409006
477.375734	38826.719907
477.745691	39518.681286
478.115588	40867.910825
478.485427	42863.827141
478.855207	46253.191477
479.224928	48876.892764
479.594591	50506.990189
479.964194	49525.674140
480.333739	49691.603719
480.703226	49735.492004
481.072653	50364.842253
481.442022	50838.148626
481.811333	51100.313832
482.180584	49802.390637
482.549777	49312.803857
482.918912	48754.294423
483.287988	48475.803440
483.657005	47633.313207
484.025964	47004.194851
484.394864	47026.615382
484.763706	46591.498270
485.132489	45720.918727
485.501213	45538.905347
485.869879	45690.394541
486.238487	45288.954857
486.607036	45481.582387
486.975527	44939.348317
487.343959	45128.762112
487.712333	45213.375358
488.080648	45131.965765
488.448905	45584.482419
488.817104	45403.273103
489.185244	46370.617594
489.553326	48058.025377
489.921350	50767.494335
490.289315	53619.466629
490.657222	54186.165418
491.025070	54470.123532
491.392861	53590.069141
491.760593	52370.964385
492.128267	50725.660319
492.495883	49201.926199
492.863440	47810.807192
493.230939	46441.130733
493.598380	45341.866808
493.965763	44988.217263
494.333088	44182.131722
494.700354	43692.310529
495.067563	43386.483890
495.434713	43259.885393
495.801805	43320.401924
496.168839	42924.986420
496.535815	42586.432610
496.902733	42622.418886
497.269593	42205.558313
497.636395	42129.971252
498.003139	42547.857700
498.369825	41990.308606
498.736453	42313.396156
499.103023	41823.743841
499.469535	41693.394726
499.835989	41790.033646
500.202385	41433.233379
500.568723	41465.194295
500.935003	41641.407827
501.301226	41433.724892
501.667390	42075.841863
502.033497	42320.499141
502.399546	41745.091759
502.765537	41056.684393
503.131470	41441.573968
503.497345	41799.778196
503.863163	40442.654210
504.228923	41058.166492
504.594625	41475.584113
504.960269	40763.516091
505.325856	41460.374952
505.691385	40807.222895
506.056856	40947.505603
506.422270	41381.790925
506.787625	40975.231949
507.152924	41174.775942
507.518164	41255.895669
507.883347	40452.234923
508.248472	40721.551006
508.613540	41203.525642
508.978550	41494.380055
509.343503	41240.003432
509.708398	41443.721500
510.073236	41989.814572
510.438016	41969.667601
510.802738	41422.115114
511.167403	42048.904457
511.532010	42280.036320
511.896561	42576.307452
512.261053	43461.468532
512.625488	42979.327538
512.989866	42858.012170
513.354186	42687.346427
513.718449	42683.091693
514.082655	43364.451527
514.446803	43034.669324
514.810894	43547.652099
515.174927	43472.692662
515.538904	43366.089902
515.902822	44047.805136
516.266684	43479.014268
516.630488	43915.530301
516.994235	43769.523362
517.357925	44349.697155
517.721558	44508.160785
518.085133	44818.852138
518.448651	44964.639786
518.812112	44731.312501
519.175516	44821.723075
519.538863	45162.462225
519.902152	45121.301204
520.265385	45575.400781
520.628560	45602.824658
520.991678	45416.717860
521.354739	45649.505742
521.717743	45969.049361
522.080690	45859.870572
522.443580	46418.821107
522.806413	46448.185828
523.169189	46398.389311
523.531908	46572.069663
523.894569	46434.481452
524.257174	46605.719365
524.619722	46889.087664
524.982213	46904.942093
525.344647	46791.410267
525.707025	46827.063828
526.069345	47213.664875
526.431608	47146.985533
526.793815	47465.704923
527.155964	46990.699682
527.518057	47143.320614
527.880093	46932.895291
528.242072	47447.682798
528.603995	47167.089655
528.965860	47171.558638
529.327669	47257.238088
529.689421	47150.910072
530.051117	47101.496682
530.412755	47232.687669
530.774337	47303.657033
531.135862	47103.893750
531.497331	47306.230542
531.858743	47193.822894
532.220098	47541.798620
532.581396	47245.441788
532.942638	46925.757017
533.303824	47217.392808
533.664953	47163.918769
534.026025	46871.657875
534.387040	47361.436218
534.747999	47292.145558
535.108902	47462.937330
535.469748	46962.436453
535.830537	47075.328052
536.191270	47272.389276
536.551947	46923.216276
536.912567	47239.281498
537.273131	47356.538737
537.633638	46833.128336
537.994089	47179.811007
538.354483	46789.045966
538.714821	47336.948813
539.075103	47673.438271
539.435328	47437.295501
539.795497	47330.049994
540.155609	47301.232238
540.515665	47772.723796
540.875665	47223.026298
541.235609	47534.131025
541.595496	47510.220833
541.955328	48191.910861
542.315102	47545.700473
542.674821	47328.141917
543.034483	47383.697953
543.394090	47341.931994
543.753640	47296.526321
544.113134	48295.012540
544.472571	47310.855801
544.831953	48572.575950
545.191278	47751.777801
545.550548	47469.881519
545.909761	47948.637380
546.268918	48150.928801
546.628019	48434.269374
546.987064	47997.196294
547.346053	47261.192874
547.704986	48161.316099
548.063863	47672.868620
548.422684	47880.138181
548.781449	47735.184843
549.140158	48120.497876
549.498811	47959.455696
549.857408	47394.856547
550.215949	48226.026870
550.574434	48149.545004
550.932864	47900.670801
551.291237	48629.828334
551.649555	48213.900374
552.007817	48438.642575
552.366022	48084.957741
552.724173	48254.693391
553.082267	48648.233587
553.440305	48944.600501
553.798288	48243.696114
554.156215	48541.595539
554.514086	48747.796375
554.871902	48496.280607
555.229661	48493.558384
555.587365	48302.334816
555.945014	48376.399448
556.302606	48288.222106
556.660143	48494.062499
557.017625	48574.002597
557.375050	48361.744814
557.732421	48692.222695
558.089735	48667.185805
558.446994	48549.313546
558.804197	49024.596051
559.161345	48951.458991
559.518437	48178.105662
559.875474	48462.482191
560.232455	48594.305844
560.589381	48753.306357
560.946251	48443.477041
561.303065	49122.354106
561.659825	48892.595958
562.016528	48548.955624
562.373177	48255.812528
562.729770	48713.534173
563.086307	48194.665852
563.442789	48618.284092
563.799216	48634.367893
564.155587	48406.974046
564.511904	48411.685004
564.868164	48467.699785
565.224370	48695.456596
565.580520	48393.476357
565.936615	48558.574145
566.292654	48259.048948
566.648638	48463.268611
567.004567	48383.696518
567.360441	48404.798788
567.716260	48216.685612
568.072023	48451.832754
568.427732	48399.316533
568.783385	47915.123789
569.138982	48254.219523
569.494525	48180.548101
569.850013	47916.583203
570.205445	47834.064556
570.560823	47752.743182
570.916145	47574.671984
571.271412	47555.964262
571.626625	47278.138712
571.981782	47272.411962
572.336884	46918.344001
572.691931	47183.342335
573.046923	46738.934376
573.401860	46536.211936
573.756743	46454.663711
574.111570	46509.902154
574.466342	46311.182390
574.821059	46369.369908
575.175722	45833.046592
575.530330	45789.833821
575.884882	45448.512418
576.239380	45359.725096
576.593823	45277.128310
576.948211	45129.407379
577.302544	44592.103558
577.656823	44542.861567
578.011047	44694.612901
578.365216	44358.385584
578.719330	44082.465590
579.073389	43863.876118
579.427394	43865.499369
579.781344	43749.595681
580.135239	43358.379457
580.489080	43362.465312
580.842866	42775.221301
581.196597	43133.758244
581.550273	42979.708145
581.903895	42779.818833
582.257463	43076.783124
582.610975	42383.664799
582.964434	42566.676328
583.317837	42123.959676
583.671186	41894.690520
584.024481	42023.428986
584.377721	41497.225786
584.730906	41675.143229
585.084037	41640.833136
585.437113	41264.543769
585.790135	41202.141846
586.143103	40730.234393
586.496016	40755.886304
586.848874	40689.148989
587.201679	40610.075971
587.554428	40024.656857
587.907124	40086.126166
588.259765	39755.776834
588.612352	39889.793388
588.964884	39235.323070
589.317362	39401.560159
589.669786	39231.574972
590.022155	38912.142258
590.374470	39206.533040
590.726731	38683.720016
591.078937	38161.085953
591.431090	38135.968404
591.783188	37737.631550
592.135232	37361.490897
592.487222	37459.876576
592.839157	37442.693803
593.191038	37043.807464
593.542866	36716.543318
593.894639	36108.494465
594.246358	36230.747487
594.598022	36126.395602
594.949633	35685.539136
595.301190	35533.928955
595.652692	35271.960354
596.004141	35442.663906
596.355535	34511.716546
596.706876	34381.140579
597.058162	34138.396418
597.409395	34433.808033
597.760573	34396.001900
598.111698	33917.452727
598.462768	33833.550283
598.813785	33749.431070
599.164748	33174.411856
599.515657	33387.632499
599.866511	32822.430933
600.217312	33236.239088
600.568060	32253.756012
600.918753	32748.958636
601.269392	32602.850874
601.619978	32220.290312
601.970510	32266.588269
602.320988	32299.398618
602.671412	32411.062697
603.021783	32090.810796
603.372100	31708.252754
603.722363	31681.073373
604.072572	31638.566364
604.422728	31526.854394
604.772830	31249.669071
605.122878	31195.539681
605.472872	31026.461902
605.822813	31125.041665
606.172701	30860.943177
606.522534	30935.637954
606.872314	31005.611690
607.222041	30675.015341
607.571714	30855.322291
607.921333	30301.359977
608.270899	30392.390612
608.620411	30518.996671
608.969870	30235.789689
609.319276	30097.354563
609.668627	30004.869554
610.017926	30224.792412
610.367171	30220.976258
610.716362	30139.155811
611.065500	29950.694795
611.414585	29959.395826
611.763616	30027.201866
612.112594	29816.416100
612.461518	29843.098927
612.810389	29905.843649
613.159207	29667.520580
613.507971	29568.076259
613.856682	29762.518604
614.205340	29540.644820
614.553945	29877.603105
614.902496	29348.024852
615.250994	29525.362562
615.599439	29414.570604
615.947830	29400.354550
616.296169	29276.742937
616.644454	29208.425220
616.992686	29170.493058
617.340864	29345.055613
617.688990	28983.904831
618.037063	29242.238759
618.385082	29042.556135
618.733048	29094.021275
619.080961	28941.894375
619.428821	28791.693196
619.776628	28721.623678
620.124382	28472.963724
620.472083	28411.794363
620.819731	28354.922586
621.167326	28008.300409
621.514868	27865.779428
621.862357	27460.112737
622.209793	27325.397983
622.557176	27001.387902
622.904506	26724.368936
623.251783	26391.098255
623.599007	26126.009180
623.946179	25846.751942
624.293297	25701.145775
624.640363	25197.436203
624.987376	25055.089142
625.334336	24785.873883
625.681243	24448.482059
626.028097	24291.969355
626.374899	24075.000614
626.721647	23915.927005
627.068343	23705.693245
627.414987	23448.642290
627.761577	23180.402494
628.108115	23240.538418
628.454600	22797.622641
628.801032	22758.883895
629.147412	22607.258590
629.493739	22479.987099
629.840014	22163.269047
630.186236	22194.113347
630.532405	21864.878110
630.878521	21840.826765
631.224585	21645.401395
631.570597	21376.400384
631.916556	21333.653920
632.262462	21176.347235
632.608316	21071.574414
632.954117	20886.191023
633.299866	20770.360431
633.645562	20622.674788
633.991206	20252.376832
634.336797	19935.013512
634.682336	19829.534930
635.027823	19591.254711
