Dividing Wavelength (nm)	Counts (n)	Blue Motor Position (mm): 0.000000	Red Motor Position (mm): 43.000000	
326.493990	1996.657366
326.888308	1996.657366
327.282561	1996.657366
327.676750	1971.557461
328.070874	1974.103243
328.464933	1978.799078
328.858929	1987.003556
329.252859	2001.945536
329.646726	2016.562362
330.040528	2031.048117
330.434265	2051.837836
330.827938	2071.011864
331.221547	2090.947107
331.615091	2110.166506
332.008571	2131.921606
332.401986	2152.378608
332.795338	2171.560198
333.188625	2192.017201
333.581847	2210.760211
333.975006	2228.303426
334.368100	2247.174985
334.761129	2263.934301
335.154095	2277.121960
335.546996	2312.349543
335.939833	2371.479757
336.332606	2385.867210
336.725315	2397.882800
337.117960	2407.723132
337.510540	2415.902405
337.903056	2427.532347
338.295508	2430.249528
338.687896	2440.044490
339.080220	2447.581015
339.472480	2449.380707
339.864676	2456.216512
340.256807	2455.528394
340.648875	2460.735906
341.040879	2460.617439
341.432818	2464.340331
341.824694	2465.406535
342.216506	2461.393777
342.608253	2462.578448
342.999937	2461.880248
343.391557	2462.079374
343.783113	2459.861266
344.174605	2458.094342
344.566033	2458.769856
344.957397	2457.146605
345.348697	2454.401697
345.739934	2453.033023
346.131106	2453.827005
346.522215	2449.932714
346.913260	2446.897939
347.304241	2453.690894
347.695159	2445.831735
348.086012	2447.807867
348.476802	2440.805705
348.867528	2442.249995
349.258191	2440.762855
349.648789	2438.511980
350.039324	2437.312185
350.429796	2441.604728
350.820203	2436.677000
351.210548	2437.465940
351.600828	2435.877977
351.991045	2436.561053
352.381198	2436.102308
352.771288	2435.381423
353.161314	2434.305137
353.551276	2438.146496
353.941175	2433.957297
354.331010	2437.927206
354.720782	2437.380241
355.110490	2439.583225
355.500135	2436.601382
355.889717	2436.172884
356.279235	2436.523244
356.668689	2437.168512
357.058080	2436.888728
357.447408	2438.590117
357.836672	2435.010898
358.225873	2439.807556
358.615010	2439.794953
359.004084	2443.815273
359.393095	2445.478854
359.782043	2447.487754
360.170927	2444.561364
360.559748	2445.614965
360.948505	2447.361725
361.337199	2446.595470
361.725830	2451.193002
362.114398	2450.315841
362.502903	2452.226439
362.891344	2453.486727
363.279722	2452.778445
363.668037	2452.934721
364.056289	2455.909002
364.444478	2455.130143
364.832603	2454.376491
365.220665	2456.733230
365.608665	2459.795731
365.996601	2460.062912
366.384474	2461.509723
366.772284	2460.193982
367.160031	2463.344703
367.547715	2461.870166
367.935336	2461.439147
368.322893	2465.693881
368.710388	2467.004581
369.097820	2467.387709
369.485189	2469.041207
369.872495	2471.544140
370.259738	2470.283852
370.646918	2474.631847
371.034035	2478.145531
371.421090	2476.542444
371.808081	2484.757004
372.195010	2489.621718
372.581875	2493.417707
372.968678	2501.332318
373.355418	2508.422701
373.742096	2517.801768
374.128710	2529.310722
374.515262	2546.604400
374.901751	2558.181410
375.288177	2576.926941
375.674540	2593.174580
376.060841	2616.593260
376.447079	2642.658546
376.833254	2668.202072
377.219367	2690.163859
377.605417	2728.574931
377.991404	2754.894795
378.377329	2796.945580
378.763191	2828.165446
379.148991	2879.819628
379.534727	2931.690581
379.920402	2978.951398
380.306013	3031.702032
380.691563	3095.240735
381.077049	3151.873058
381.462474	3207.817262
381.847835	3287.081845
382.233134	3358.532639
382.618371	3421.027823
383.003545	3507.750793
383.388657	3592.603494
383.773706	3685.035571
384.158693	3758.028958
384.543618	3857.294318
384.928480	3940.730455
385.313280	4047.255077
385.698017	4151.909431
386.082692	4277.136734
386.467305	4343.705170
386.851856	4475.657372
387.236344	4632.359119
387.620770	4696.233059
388.005133	4820.452131
388.389435	4974.242611
388.773674	5056.627668
389.157851	5196.859965
389.541965	5332.961037
389.926018	5356.914079
390.310008	5541.881575
390.693936	5668.149876
391.077802	5791.358197
391.461606	5923.045738
391.845348	6040.028234
392.229027	6165.444580
392.612645	6390.317850
392.996200	6513.770667
393.379694	6692.255239
393.763125	6920.808552
394.146494	7014.775659
394.529801	7160.878380
394.913047	7413.616628
395.296230	7411.151504
395.679351	7461.510110
396.062410	7738.604693
396.445408	7627.482539
396.828343	7793.696943
397.211217	7930.110566
397.594028	7810.667987
397.976778	8016.548710
398.359466	8190.181172
398.742092	8156.566758
399.124656	8314.211201
399.507158	8502.130293
399.889598	8528.757668
400.271977	8743.949402
400.654294	8778.294783
401.036549	8974.672931
401.418742	9004.070420
401.800874	9320.473400
402.182944	9400.809227
402.564952	9774.187328
402.946898	9588.453576
403.328783	9647.109922
403.710606	9851.453093
404.092367	10115.753228
404.474067	10489.733746
404.855705	10272.545715
405.237282	10226.212470
405.618797	10669.670171
406.000250	10920.475137
406.381642	11292.156889
406.762972	11244.396998
407.144240	11032.958402
407.525447	11295.952878
407.906593	11234.445760
408.287677	11496.242961
408.668700	11659.664566
409.049661	11627.088630
409.430560	11795.271605
409.811399	11762.930082
410.192176	11924.231882
410.572891	11997.641164
410.953545	12512.673167
411.334138	11969.839201
411.714669	12592.635950
412.095139	11873.555683
412.475547	12401.626630
412.855894	12237.713513
413.236180	12574.956623
413.616405	12249.698856
413.996568	12534.004810
414.376670	12500.609686
414.756711	12373.635624
415.136691	12672.961695
415.516609	12860.240560
415.896466	12930.942743
416.276262	13224.836971
416.655997	13665.320391
417.035670	13692.935832
417.415283	14366.202093
417.794834	14466.949552
418.174324	14208.560171
418.553753	14100.195528
418.933121	14609.009268
419.312428	14411.562395
419.691674	14320.289784
420.070859	14794.317042
420.449983	14438.600624
420.829045	14998.695501
421.208047	14736.396705
421.586988	15207.532861
421.965867	15466.428879
422.344686	15469.735876
422.723444	16042.720983
423.102141	14700.770871
423.480777	15911.865232
423.859352	15408.811011
424.237866	16556.558233
424.616319	16243.721870
424.994712	16928.630675
425.373044	16716.352728
425.751314	17400.316317
426.129524	16503.537898
426.507673	17622.053990
426.885762	17305.635886
427.263789	17523.418773
427.641756	17682.633535
428.019662	17754.729597
428.397508	17794.068241
428.775292	18110.796376
429.153016	18072.725582
429.530679	18147.904309
429.908282	18171.529677
430.285824	17879.198206
430.663305	18619.942832
431.040726	18196.261577
431.418086	18022.737500
431.795385	18683.191668
432.172624	19101.425956
432.549802	18664.763731
432.926920	18841.723354
433.303977	18730.787722
433.680974	18994.130038
434.057910	19287.245408
434.434786	19305.660742
434.811601	19227.603516
435.188355	20277.277611
435.565050	19926.899775
435.941683	19871.351301
436.318257	20769.077457
436.694770	20568.154709
437.071222	21183.697238
437.447614	20245.258723
437.823946	20270.199831
438.200218	20415.092675
438.576429	20199.331291
438.952580	20472.892025
439.328670	20432.557753
439.704700	20861.733865
440.080670	20415.959754
440.456580	21022.382835
440.832429	21204.670958
441.208218	20166.135293
441.583947	20621.033892
441.959616	20735.221068
442.335224	20989.196919
442.710773	21116.027309
443.086261	21661.094507
443.461689	21021.319152
443.837057	21135.387860
444.212365	21791.418416
444.587612	21798.972585
444.962800	21360.619052
445.337927	21795.153911
445.712995	20500.625933
446.088002	22393.806054
446.462949	22588.623965
446.837837	22768.605760
447.212664	22729.214184
447.587431	25638.338039
447.962139	28616.402195
448.336786	31020.415038
448.711374	29436.542473
449.085901	25680.169534
449.460369	25647.147456
449.834776	25568.543264
450.209124	28098.905067
450.583412	27586.305421
450.957640	28138.609195
451.331808	26762.507785
451.705917	25379.779779
452.079965	25428.560504
452.453954	25781.796675
452.827883	25653.776573
453.201752	25469.751772
453.575562	25635.693954
453.949311	26782.896732
454.323001	26839.876894
454.696632	26602.322601
455.070202	28184.692903
455.443713	28313.242326
455.817164	28928.220245
456.190556	29466.035743
456.563888	28890.530058
456.937160	29328.563478
457.310373	27639.555129
457.683526	28102.756509
458.056619	28083.489219
458.429653	28016.318364
458.802628	28602.778476
459.175542	28726.748011
459.548398	30048.667099
459.921194	31638.732722
460.293930	32296.620943
460.666607	34374.100607
461.039224	36141.090565
461.411782	36562.989772
461.784280	35356.056883
462.156719	34876.872524
462.529099	34312.805218
462.901419	33005.545805
463.273680	31934.290531
463.645882	32008.324916
464.018024	31985.133088
464.390106	32833.173632
464.762130	35575.720120
465.134094	39664.675622
465.505999	45001.251166
465.877845	49606.015009
466.249631	50783.293311
466.621358	49121.792018
466.993026	47015.040893
467.364634	44953.277026
467.736184	42974.563647
468.107674	41701.856303
468.479105	40881.826930
468.850477	40201.505575
469.221790	38736.173222
469.593043	36961.608930
469.964238	36083.162667
470.335373	35992.837793
470.706449	37748.341482
471.077467	40370.404393
471.448425	44955.124608
471.819324	47760.282228
472.190164	45894.304173
472.560945	42328.159175
472.931667	39195.089621
473.302330	38073.153106
473.672934	37243.240551
474.043479	37765.398226
474.413965	36944.862217
474.784393	36575.080979
475.154761	37470.470561
475.525070	37502.396188
475.895321	37027.239712
476.265513	37636.387537
476.635645	38623.281622
477.005719	38445.119684
477.375734	38901.407121
477.745691	39632.618925
478.115588	40991.489671
478.485427	42946.103813
478.855207	46352.517331
479.224928	48953.296491
479.594591	50615.359873
479.964194	49630.424276
480.333739	49797.309153
480.703226	49835.838692
481.072653	50472.309571
481.442022	50941.588062
481.811333	51199.619522
482.180584	49927.446540
482.549777	49401.573535
482.918912	48867.438080
483.287988	48575.474613
483.657005	47745.632635
484.025964	47093.786237
484.394864	47137.175448
484.763706	46691.146758
485.132489	45835.128588
485.501213	45665.823957
485.869879	45817.456824
486.238487	45392.356484
486.607036	45594.607577
486.975527	45047.125666
487.343959	45232.635087
487.712333	45336.767681
488.080648	45244.539771
488.448905	45702.649586
488.817104	45499.541498
489.185244	46481.659090
489.553326	48171.136266
489.921350	50885.676625
490.289315	53722.805242
490.657222	54295.054341
491.025070	54573.754532
491.392861	53702.559968
491.760593	52488.052745
492.128267	50844.318999
492.495883	49331.085602
492.863440	47927.451931
493.230939	46582.451920
493.598380	45468.112424
493.965763	45141.669986
494.333088	44319.629193
494.700354	43837.062220
495.067563	43547.011872
495.434713	43390.796597
495.801805	43471.704595
496.168839	43081.930142
496.535815	42747.847835
496.902733	42767.883901
497.269593	42348.283461
497.636395	42280.439612
498.003139	42691.207951
498.369825	42138.805874
498.736453	42457.792446
499.103023	41963.290542
499.469535	41843.200175
499.835989	41934.646705
500.202385	41588.505959
500.568723	41621.301185
500.935003	41812.796976
501.301226	41597.272525
501.667390	42234.139135
502.033497	42496.609330
502.399546	41922.870570
502.765537	41234.112843
503.131470	41616.338169
503.497345	41976.715134
503.863163	40615.724583
504.228923	41239.174162
504.594625	41660.821311
504.960269	40944.448143
505.325856	41654.058603
505.691385	40995.996462
506.056856	41142.086580
506.422270	41578.905081
506.787625	41151.226192
507.152924	41349.202386
507.518164	41447.199896
507.883347	40646.067288
508.248472	40908.877762
508.613540	41387.265618
508.978550	41691.219468
509.343503	41437.145315
509.708398	41639.401448
510.073236	42184.506455
510.438016	42181.945548
510.802738	41619.814045
511.167403	42261.767178
511.532010	42492.062210
511.896561	42793.780308
512.261053	43651.300742
512.625488	43184.646172
512.989866	43061.621853
513.354186	42899.460537
513.718449	42894.883169
514.082655	43573.203187
514.446803	43237.376641
514.810894	43760.061116
515.174927	43672.070296
515.538904	43580.432202
515.902822	44265.978713
516.266684	43690.450343
516.630488	44133.461902
516.994235	43985.211650
517.357925	44575.046814
517.721558	44736.300723
518.085133	45043.798505
518.448651	45181.033836
518.812112	44935.880004
519.175516	45058.024641
519.538863	45380.960956
519.902152	45359.205857
520.265385	45810.275700
520.628560	45843.869949
520.991678	45646.992727
521.354739	45883.097688
521.717743	46204.672892
522.080690	46085.099243
522.443580	46635.318500
522.806413	46678.795932
523.169189	46623.096223
523.531908	46799.098027
523.894569	46657.343301
524.257174	46846.928495
524.619722	47146.005029
524.982213	47134.314593
525.344647	47037.635345
525.707025	47065.969150
526.069345	47459.015312
526.431608	47394.554078
526.793815	47716.063747
527.155964	47252.388498
527.518057	47387.375475
527.880093	47174.164914
528.242072	47696.191518
528.603995	47393.112308
528.965860	47400.807629
529.327669	47495.188112
529.689421	47388.950836
530.051117	47324.446752
530.412755	47481.640011
530.774337	47549.914878
531.135862	47340.608691
531.497331	47535.693783
531.858743	47444.776573
532.220098	47781.543294
532.581396	47497.449069
532.942638	47162.149324
533.303824	47451.100701
533.664953	47405.052281
534.026025	47116.373127
534.387040	47606.917725
534.747999	47548.982264
535.108902	47713.129795
535.469748	47219.747027
535.830537	47332.280705
536.191270	47508.337962
536.551947	47182.402160
536.912567	47475.522571
537.273131	47604.041747
537.633638	47071.590036
537.994089	47431.387269
538.354483	47020.901234
538.714821	47596.119573
539.075103	47937.259495
539.435328	47710.374805
539.795497	47586.853933
540.155609	47553.451247
540.515665	48023.501035
540.875665	47473.110378
541.235609	47807.706883
541.595496	47769.048794
541.955328	48456.581521
542.315102	47808.962130
542.674821	47590.705374
543.034483	47629.234913
543.394090	47602.002600
543.753640	47551.331442
544.113134	48571.482020
544.472571	47564.370387
544.831953	48819.242128
545.191278	48039.622645
545.550548	47761.280376
545.909761	48215.652175
546.268918	48433.949260
546.628019	48720.455677
546.987064	48294.095050
547.346053	47541.070173
547.704986	48449.617167
548.063863	47979.363212
548.422684	48191.928505
548.781449	48031.287097
549.140158	48433.152758
549.498811	48280.476373
549.857408	47699.949699
550.215949	48537.938182
550.574434	48466.860433
550.932864	48237.765197
551.291237	48950.571748
551.649555	48560.520031
552.007817	48793.837233
552.366022	48431.474054
552.724173	48625.936563
553.082267	49024.452378
553.440305	49312.761008
553.798288	48626.639804
554.156215	48937.724367
554.514086	49162.350621
554.871902	48909.509029
555.229661	48917.340462
555.587365	48730.986648
555.945014	48848.203557
556.302606	48744.317979
556.660143	48986.227829
557.017625	49063.579293
557.375050	48851.780256
557.732421	49198.891424
558.089735	49191.261638
558.446994	49105.085634
558.804197	49586.558676
559.161345	49525.041475
559.518437	48763.101318
559.875474	49082.758363
560.232455	49223.076360
560.589381	49423.242935
560.946251	49122.240680
561.303065	49809.062604
561.659825	49596.784656
562.016528	49278.897057
562.373177	48993.267800
562.729770	49469.941664
563.086307	48995.556484
563.442789	49453.348706
563.799216	49516.078304
564.155587	49299.419594
564.511904	49307.387138
564.868164	49396.948277
565.224370	49653.278347
565.580520	49375.659484
565.936615	49604.323702
566.292654	49313.507098
566.648638	49582.155228
567.004567	49515.175937
567.360441	49576.609959
567.716260	49420.818140
568.072023	49702.606037
568.427732	49691.951559
568.783385	49224.830682
569.138982	49627.626436
569.494525	49585.137070
569.850013	49354.017811
570.205445	49311.906532
570.560823	49279.801944
570.916145	49166.209624
571.271412	49205.175223
571.626625	48948.696438
571.981782	48997.073871
572.336884	48688.023414
572.691931	49022.546822
573.046923	48614.599008
573.401860	48457.355338
573.756743	48448.142629
574.111570	48556.275379
574.466342	48413.638452
574.821059	48510.065642
575.175722	48040.492244
575.530330	48037.775062
575.884882	47761.217362
576.239380	47733.521263
576.593823	47704.219556
576.948211	47626.590828
577.302544	47138.224008
577.656823	47151.930905
578.011047	47367.843524
578.365216	47096.165661
578.719330	46900.596618
579.073389	46740.252638
579.427394	46820.056624
579.781344	46780.546581
580.135239	46420.174657
580.489080	46519.891201
580.842866	45971.035576
581.196597	46438.423634
581.550273	46368.225567
581.903895	46224.867754
582.257463	46629.468241
582.610975	46009.544950
582.964434	46277.260466
583.317837	45917.637153
583.671186	45749.242450
584.024481	45969.450133
584.377721	45501.673906
584.730906	45800.276571
585.084037	45821.399006
585.437113	45511.602458
585.790135	45533.778494
586.143103	45142.383309
586.496016	45255.327841
586.848874	45283.528055
587.201679	45277.047652
587.554428	44769.005208
587.907124	44935.070898
588.259765	44650.301159
588.612352	44920.469196
588.964884	44293.442919
589.317362	44579.722484
589.669786	44506.799673
590.022155	44272.174291
590.374470	44695.548035
590.726731	44204.920258
591.078937	43692.053430
591.431090	43795.550839
591.783188	43448.215339
592.135232	43102.558543
592.487222	43337.582177
592.839157	43420.297429
593.191038	43076.379831
593.542866	42824.962366
593.894639	42205.560834
594.246358	42463.778816
594.598022	42451.594347
594.949633	42029.803525
595.301190	41981.955414
595.652692	41786.519961
596.004141	42099.694082
596.355535	41112.099276
596.706876	41057.611965
597.058162	40887.778013
597.409395	41356.837213
597.760573	41419.501276
598.111698	40963.009672
598.462768	40959.057407
598.813785	40998.721206
599.164748	40427.200553
599.515657	40796.336523
599.866511	40267.217015
600.217312	40860.094516
600.568060	39812.628447
600.918753	40522.054904
601.269392	40465.104989
601.619978	40106.043765
601.970510	40297.421088
602.320988	40471.784518
602.671412	40740.435168
603.021783	40483.227937
603.372100	40121.767124
603.722363	40206.519002
604.072572	40280.175301
604.422728	40268.235328
604.772830	40074.750802
605.122878	40128.965892
605.472872	40058.651878
605.822813	40317.830200
606.172701	40110.351431
606.522534	40331.569865
606.872314	40569.492162
607.222041	40286.665787
607.571714	40641.996557
607.921333	40070.906923
608.270899	40337.773004
608.620411	40669.627121
608.969870	40452.371034
609.319276	40400.220298
609.668627	40422.804667
610.017926	40887.664587
610.367171	41024.342870
610.716362	41066.519684
611.065500	40976.509882
611.414585	41125.160906
611.763616	41399.356825
612.112594	41269.791610
612.461518	41462.993831
612.810389	41707.063815
613.159207	41545.809906
613.507971	41569.868813
613.856682	42022.612319
614.205340	41887.189283
614.553945	42523.471119
614.902496	41949.124899
615.250994	42353.352341
615.599439	42383.369892
615.947830	42559.018815
616.296169	42537.568705
616.644454	42611.391362
616.992686	42747.646189
617.340864	43201.632340
617.688990	42863.539795
618.037063	43416.042695
618.385082	43311.426150
618.733048	43569.805449
619.080961	43534.492167
619.428821	43491.259231
619.776628	43587.850259
620.124382	43372.797157
620.472083	43476.710461
620.819731	43563.761106
621.167326	43217.552304
621.514868	43154.926049
621.862357	42732.593304
622.209793	42692.304402
622.557176	42367.301214
622.904506	42105.075514
623.251783	41749.699374
623.599007	41523.354087
623.946179	41251.184711
624.293297	41188.097191
624.640363	40560.864227
624.987376	40525.354339
625.334336	40254.924162
625.681243	39876.777129
626.028097	39786.784971
626.374899	39588.191236
626.721647	39524.841576
627.068343	39363.779232
627.414987	39091.670350
627.761577	38840.426804
628.108115	39103.635528
628.454600	38525.412662
628.801032	38656.855707
629.147412	38550.346209
629.493739	38518.496199
629.840014	38104.816593
630.186236	38385.871003
630.532405	37946.836914
630.878521	38091.306301
631.224585	37918.145187
631.570597	37602.369831
631.916556	37713.655822
632.262462	37595.193748
632.608316	37552.769918
632.954117	37417.576254
633.299866	37363.038531
633.645562	37259.329394
633.991206	36766.808663
634.336797	36325.579152
634.682336	36289.197145
635.027823	36030.560747
