Dividing Wavelength (nm)	Counts (n)	Blue Motor Position (mm): 0.000000	Red Motor Position (mm): 0.000000	
326.493990	1972.800105
326.888308	1972.800105
327.282561	1972.800105
327.676750	1948.784048
328.070874	1948.741198
328.464933	1955.965172
328.858929	1967.101081
329.252859	1977.261526
329.646726	1992.236274
330.040528	2004.428304
330.434265	2027.224402
330.827938	2046.773997
331.221547	2065.688406
331.615091	2087.249421
332.008571	2106.836824
332.401986	2127.114865
332.795338	2146.727474
333.188625	2166.650114
333.581847	2186.262723
333.975006	2203.695033
334.368100	2220.842518
334.761129	2237.397668
335.154095	2254.154463
335.546996	2266.318767
335.939833	2281.999276
336.332606	2293.054527
336.725315	2306.514407
337.117960	2312.301652
337.510540	2321.176603
337.903056	2329.509631
338.295508	2336.579849
338.687896	2341.346260
339.080220	2349.989318
339.472480	2354.952334
339.864676	2357.954341
340.256807	2361.851153
340.648875	2364.414580
341.040879	2367.335928
341.432818	2365.387523
341.824694	2367.608151
342.216506	2365.571525
342.608253	2365.256453
342.999937	2365.143027
343.391557	2362.609847
343.783113	2361.803262
344.174605	2361.730165
344.566033	2360.290916
344.957397	2357.780421
345.348697	2356.293281
345.739934	2353.891171
346.131106	2352.149453
346.522215	2352.194823
346.913260	2347.665346
347.304241	2346.263905
347.695159	2346.316838
348.086012	2344.370952
348.476802	2346.069821
348.867528	2342.477999
349.258191	2340.572443
349.648789	2341.394151
350.039324	2339.939778
350.429796	2338.639160
350.820203	2338.117401
351.210548	2335.082626
351.600828	2335.874087
351.991045	2336.143789
352.381198	2335.526248
352.771288	2336.403408
353.161314	2335.289313
353.551276	2334.790239
353.941175	2334.545743
354.331010	2337.545230
354.720782	2334.487770
355.110490	2334.790239
355.500135	2334.865857
355.889717	2337.560353
356.279235	2334.427276
356.668689	2335.009529
357.058080	2335.745538
357.447408	2334.419714
357.836672	2334.495332
358.225873	2337.998934
358.615010	2332.715804
359.004084	2337.817452
359.393095	2338.510611
359.782043	2342.026816
360.170927	2341.149655
360.559748	2340.534634
360.948505	2341.822649
361.337199	2342.362052
361.725830	2341.885663
362.114398	2343.168637
362.502903	2341.275684
362.891344	2342.677124
363.279722	2342.104953
363.668037	2344.275170
364.056289	2343.035046
364.444478	2345.172496
364.832603	2345.154852
365.220665	2346.079903
365.608665	2345.406909
365.996601	2348.227435
366.384474	2348.204750
366.772284	2348.855058
367.160031	2347.025120
367.547715	2349.596108
367.935336	2345.212825
368.322893	2347.877075
368.710388	2347.927486
369.097820	2352.129288
369.485189	2346.352126
369.872495	2349.336489
370.259738	2346.253823
370.646918	2349.641478
371.034035	2348.545028
371.421090	2352.651047
371.808081	2349.223063
372.195010	2349.283557
372.581875	2349.994359
372.968678	2351.816736
373.355418	2348.071159
373.742096	2351.521829
374.128710	2350.485872
374.515262	2351.277333
374.901751	2351.841942
375.288177	2349.288598
375.674540	2348.968484
376.060841	2351.763804
376.447079	2354.775894
376.833254	2352.666171
377.219367	2350.770697
377.605417	2352.454442
377.991404	2347.506550
378.377329	2350.879082
378.763191	2347.289780
379.148991	2353.712210
379.534727	2353.729854
379.920402	2353.734895
380.306013	2354.707838
380.691563	2354.927128
381.077049	2355.574917
381.462474	2353.974350
381.847835	2356.857890
382.233134	2356.043744
382.618371	2354.632221
383.003545	2353.508043
383.388657	2355.451408
383.773706	2357.533405
384.158693	2356.245390
384.543618	2358.324866
384.928480	2356.787314
385.313280	2358.980216
385.698017	2354.808661
386.082692	2356.187417
386.467305	2357.301512
386.851856	2359.166739
387.236344	2358.879393
387.620770	2360.686647
388.005133	2360.331245
388.389435	2360.527850
388.773674	2355.501820
389.157851	2361.364682
389.541965	2359.088601
389.926018	2360.608509
390.310008	2359.290247
390.693936	2359.748992
391.077802	2359.827130
391.461606	2361.152953
391.845348	2359.998529
392.229027	2360.875690
392.612645	2362.304857
392.996200	2360.434589
393.379694	2361.246215
393.763125	2363.623119
394.146494	2363.688654
394.529801	2362.219157
394.913047	2361.019363
395.296230	2364.333921
395.679351	2362.592203
396.062410	2362.120855
396.445408	2363.333252
396.828343	2361.790659
397.211217	2358.077849
397.594028	2360.979033
397.976778	2359.534743
398.359466	2361.619260
398.742092	2357.573734
399.124656	2363.413911
399.507158	2364.563294
399.889598	2364.540609
400.271977	2363.315608
400.654294	2366.015146
401.036549	2363.129086
401.418742	2365.740403
401.800874	2364.938860
402.182944	2364.338963
402.564952	2365.150588
402.946898	2365.934488
403.328783	2364.535568
403.710606	2365.768130
404.092367	2367.265352
404.474067	2366.839375
404.855705	2365.841226
405.237282	2365.853829
405.618797	2366.000023
406.000250	2366.776360
406.381642	2367.005733
406.762972	2367.585466
407.144240	2367.403984
407.525447	2368.876001
407.906593	2364.860722
408.287677	2368.344159
408.668700	2369.485981
409.049661	2366.831813
409.430560	2369.624612
409.811399	2367.593027
410.192176	2368.749972
410.572891	2368.182842
410.953545	2370.486650
411.334138	2368.628984
411.714669	2366.327698
412.095139	2370.373224
412.475547	2371.247864
412.855894	2369.241485
413.236180	2371.361290
413.616405	2370.572349
413.996568	2370.080837
414.376670	2370.201824
414.756711	2372.571167
415.136691	2372.248533
415.516609	2372.399768
415.896466	2369.584283
416.276262	2371.668800
416.655997	2370.196783
417.035670	2364.059178
417.415283	2370.108563
417.794834	2366.715867
418.174324	2374.582587
418.553753	2375.565612
418.933121	2370.320292
419.312428	2373.400437
419.691674	2369.836341
420.070859	2371.560415
420.449983	2373.609644
420.829045	2372.908924
421.208047	2374.035622
421.586988	2371.177288
421.965867	2374.116280
422.344686	2374.688451
422.723444	2374.373379
423.102141	2374.285159
423.480777	2371.449510
423.859352	2374.196939
424.237866	2372.646784
424.616319	2373.627288
424.994712	2371.928420
425.373044	2372.992103
425.751314	2372.692154
426.129524	2373.629809
426.507673	2375.742053
426.885762	2374.552340
427.263789	2374.212062
427.641756	2377.370345
428.019662	2371.104191
428.397508	2374.242309
428.775292	2374.738863
429.153016	2372.898842
429.530679	2374.116280
429.908282	2376.629296
430.285824	2375.091744
430.663305	2375.202649
431.040726	2376.354553
431.418086	2373.841538
431.795385	2375.989069
432.172624	2376.823380
432.549802	2375.421939
432.926920	2377.115767
433.303977	2378.144162
433.680974	2377.476209
434.057910	2378.146683
434.434786	2376.099974
434.811601	2378.484440
435.188355	2378.098792
435.565050	2380.919318
435.941683	2377.297248
436.318257	2373.173585
436.694770	2372.629140
437.071222	2375.185005
437.447614	2375.331198
437.823946	2374.585108
438.200218	2379.732126
438.576429	2379.681714
438.952580	2375.061497
439.328670	2379.941334
439.704700	2377.811446
440.080670	2379.525438
440.456580	2377.887063
440.832429	2379.285984
441.208218	2380.521066
441.583947	2380.095089
441.959616	2376.674666
442.335224	2380.621889
442.710773	2378.902856
443.086261	2379.943854
443.461689	2378.459234
443.837057	2381.037785
444.212365	2378.907897
444.587612	2380.503422
444.962800	2380.682383
445.337927	2378.890253
445.712995	2377.201467
446.088002	2378.376055
446.462949	2376.919162
446.837837	2378.486961
447.212664	2379.205325
447.587431	2380.233721
447.962139	2381.637682
448.336786	2381.131046
448.711374	2381.241951
449.085901	2378.575181
449.460369	2381.655326
449.834776	2379.873278
450.209124	2380.211035
450.583412	2381.798999
450.957640	2380.269009
451.331808	2383.066849
451.705917	2380.427805
452.079965	2378.933103
452.453954	2378.560058
452.827883	2381.015099
453.201752	2383.424771
453.575562	2380.389996
453.949311	2381.012579
454.323001	2378.635675
454.696632	2382.968547
455.070202	2382.877806
455.443713	2383.076931
455.817164	2378.590304
456.190556	2379.434698
456.563888	2377.796323
456.937160	2377.473689
457.310373	2382.436705
457.683526	2381.304966
458.056619	2382.834956
458.429653	2380.677342
458.802628	2381.418392
459.175542	2379.326313
459.548398	2384.962323
459.921194	2382.005686
460.293930	2385.020296
460.666607	2382.872765
461.039224	2382.920656
461.411782	2381.113402
461.784280	2383.578526
462.156719	2383.560882
462.529099	2384.853938
462.901419	2384.256561
463.273680	2382.449308
463.645882	2382.368649
464.018024	2383.238248
464.390106	2383.507950
464.762130	2386.323434
465.134094	2384.191026
465.505999	2382.174565
465.877845	2386.164638
466.249631	2383.918804
466.621358	2383.412168
466.993026	2386.827550
467.364634	2388.271840
467.736184	2383.109699
468.107674	2383.581047
468.479105	2385.385780
468.850477	2386.162117
469.221790	2386.247817
469.593043	2382.489637
469.964238	2385.600029
470.335373	2384.465769
470.706449	2384.919473
471.077467	2384.795965
471.448425	2383.581047
471.819324	2389.784187
472.190164	2384.596839
472.560945	2385.751263
472.931667	2384.488454
473.302330	2384.627086
473.672934	2384.458208
474.043479	2382.870244
474.413965	2383.669267
474.784393	2380.904194
475.154761	2380.697507
475.525070	2379.593494
475.895321	2383.512991
476.265513	2380.251365
476.635645	2387.311501
477.005719	2385.426109
477.375734	2385.816798
477.745691	2385.516850
478.115588	2386.232694
478.485427	2385.012734
478.855207	2387.067005
479.224928	2385.607591
479.594591	2387.230842
479.964194	2386.038609
480.333739	2387.356871
480.703226	2385.925183
481.072653	2387.155225
481.442022	2385.872251
481.811333	2383.152549
482.180584	2386.366284
482.549777	2385.897457
482.918912	2387.606408
483.287988	2387.349309
483.657005	2387.467776
484.025964	2387.447612
484.394864	2386.252858
484.763706	2385.136243
485.132489	2388.465925
485.501213	2386.083980
485.869879	2388.876779
486.238487	2390.101779
486.607036	2387.936604
486.975527	2387.251007
487.343959	2386.830070
487.712333	2387.404762
488.080648	2388.352499
488.448905	2387.440050
488.817104	2386.885523
489.185244	2388.097921
489.553326	2387.346789
489.921350	2388.125647
490.289315	2389.448950
490.657222	2387.319062
491.025070	2387.034237
491.392861	2387.787890
491.760593	2388.445760
492.128267	2387.840822
492.495883	2389.080946
492.863440	2387.099772
493.230939	2387.898795
493.598380	2389.257386
493.965763	2384.712786
494.333088	2385.138763
494.700354	2385.476521
495.067563	2385.572303
495.434713	2384.712786
495.801805	2385.048023
496.168839	2388.163456
496.535815	2389.678322
496.902733	2389.461553
497.269593	2389.771584
497.636395	2389.277551
498.003139	2386.250338
498.369825	2389.360730
498.736453	2388.526419
499.103023	2384.735471
499.469535	2388.113044
499.835989	2389.927859
500.202385	2387.545914
500.568723	2389.106151
500.935003	2388.695297
501.301226	2388.425596
501.667390	2388.720503
502.033497	2386.822509
502.399546	2386.938455
502.765537	2390.379043
503.131470	2391.450288
503.497345	2388.274361
503.863163	2388.050030
504.228923	2388.055071
504.594625	2388.493651
504.960269	2387.024155
505.325856	2387.399721
505.691385	2389.766543
506.056856	2391.578837
506.422270	2387.634134
506.787625	2385.957951
507.152924	2390.578168
507.518164	2388.864176
507.883347	2389.189330
508.248472	2390.058929
508.613540	2388.382746
508.978550	2388.072715
509.343503	2390.704197
509.708398	2390.623539
510.073236	2389.333003
510.438016	2392.214023
510.802738	2388.554145
511.167403	2390.021121
511.532010	2387.172869
511.896561	2389.431306
512.261053	2391.828374
512.625488	2385.773949
512.989866	2389.136398
513.354186	2388.710421
513.718449	2383.747405
514.082655	2389.217057
514.446803	2388.914588
514.810894	2389.106151
515.174927	2388.536501
515.538904	2390.953734
515.902822	2388.412993
516.266684	2389.234701
516.630488	2387.911398
516.994235	2390.179917
517.357925	2389.769063
517.721558	2389.569938
518.085133	2391.755278
518.448651	2389.897613
518.812112	2389.222098
519.175516	2387.916439
519.538863	2389.965668
519.902152	2391.634290
520.265385	2391.974568
520.628560	2390.431975
520.991678	2389.050699
521.354739	2390.573127
521.717743	2388.846532
522.080690	2390.288302
522.443580	2388.838970
522.806413	2391.946842
523.169189	2390.288302
523.531908	2390.149670
523.894569	2388.702859
524.257174	2389.695966
524.619722	2393.965824
524.982213	2392.418189
525.344647	2391.503220
525.707025	2390.862993
526.069345	2389.948024
526.431608	2391.803169
526.793815	2390.822664
527.155964	2390.195041
527.518057	2389.524567
527.880093	2389.227139
528.242072	2390.026162
528.603995	2390.517674
528.965860	2391.677140
529.327669	2391.810730
529.689421	2388.899464
530.051117	2393.401214
530.412755	2390.454660
530.774337	2391.992212
531.135862	2389.113713
531.497331	2386.799823
531.858743	2387.251007
532.220098	2389.060781
532.581396	2386.502395
532.942638	2385.292518
533.303824	2392.085473
533.664953	2391.541029
534.026025	2391.009187
534.387040	2391.001625
534.747999	2390.459701
535.108902	2390.636142
535.469748	2389.779145
535.830537	2391.868704
536.191270	2391.561193
536.551947	2391.357027
536.912567	2390.343755
537.273131	2391.851060
537.633638	2391.588920
537.994089	2391.493138
538.354483	2389.436347
538.714821	2392.438354
539.075103	2390.069012
539.435328	2389.466594
539.795497	2390.502551
540.155609	2393.633108
540.515665	2389.567417
540.875665	2391.868704
541.235609	2390.031203
541.595496	2390.608415
541.955328	2391.765360
542.315102	2390.898282
542.674821	2390.018600
543.034483	2392.093035
543.394090	2391.783004
543.753640	2392.645041
544.113134	2391.742675
544.472571	2390.812582
544.831953	2394.454816
545.191278	2392.392984
545.550548	2392.950031
545.909761	2393.892727
546.268918	2391.513302
546.628019	2392.392984
546.987064	2391.808210
547.346053	2392.093035
547.704986	2392.864332
548.063863	2392.743344
548.422684	2390.862993
548.781449	2389.567417
549.140158	2394.081770
549.498811	2393.360885
549.857408	2390.547921
550.215949	2390.933570
550.574434	2386.638507
550.932864	2389.491800
551.291237	2387.941645
551.649555	2391.498179
552.007817	2391.248642
552.366022	2392.458519
552.724173	2390.016080
553.082267	2395.546225
553.440305	2394.144785
553.798288	2391.541029
554.156215	2391.218395
554.514086	2392.634959
554.871902	2390.351316
555.229661	2392.314846
555.587365	2390.502551
555.945014	2392.024979
556.302606	2392.355175
556.660143	2394.114538
557.017625	2392.655124
557.375050	2391.566234
557.732421	2391.440206
558.089735	2392.095556
558.446994	2391.682181
558.804197	2394.389281
559.161345	2388.768394
559.518437	2389.920298
559.875474	2391.072201
560.232455	2391.846018
560.589381	2391.094887
560.946251	2396.597306
561.303065	2392.680329
561.659825	2393.103786
562.016528	2392.791235
562.373177	2393.638149
562.729770	2393.560011
563.086307	2392.135885
563.442789	2395.122768
563.799216	2392.244270
564.155587	2391.835936
564.511904	2392.660165
564.868164	2392.133364
565.224370	2392.665206
565.580520	2393.370968
565.936615	2393.509599
566.292654	2394.810217
566.648638	2393.454147
567.004567	2392.950031
567.360441	2392.740823
567.716260	2391.104969
568.072023	2392.362737
568.427732	2388.150853
568.783385	2392.203940
569.138982	2387.997098
569.494525	2389.640514
569.850013	2386.482231
570.205445	2392.944990
570.560823	2392.740823
570.916145	2392.345093
571.271412	2392.806358
571.626625	2392.148488
571.981782	2392.090514
572.336884	2390.406769
572.691931	2390.333672
573.046923	2393.930536
573.401860	2391.730072
573.756743	2390.363919
574.111570	2395.780639
574.466342	2391.082284
574.821059	2393.514640
575.175722	2392.846687
575.530330	2393.741492
575.884882	2393.779301
576.239380	2394.606050
576.593823	2392.697973
576.948211	2393.691081
577.302544	2394.071688
577.656823	2392.234187
578.011047	2391.057078
578.365216	2392.360216
578.719330	2394.537995
579.073389	2392.357696
579.427394	2393.431461
579.781344	2390.991543
580.135239	2391.563714
580.489080	2390.918446
580.842866	2392.944990
581.196597	2394.863149
581.550273	2393.257542
581.903895	2391.719990
582.257463	2392.413148
582.610975	2392.813920
582.964434	2392.193858
583.317837	2392.670247
583.671186	2393.280227
584.024481	2390.515154
584.377721	2390.575648
584.730906	2391.435164
585.084037	2392.899620
585.437113	2393.237377
585.790135	2392.216543
586.143103	2390.724362
586.496016	2391.367109
586.848874	2387.011552
587.201679	2390.341234
587.554428	2389.096069
587.907124	2390.648744
588.259765	2387.170348
588.612352	2392.992881
588.964884	2391.808210
589.317362	2394.164949
589.669786	2392.607233
590.022155	2393.706204
590.374470	2389.310318
590.726731	2391.185627
591.078937	2391.034393
591.431090	2391.808210
591.783188	2392.183776
592.135232	2392.685371
592.487222	2393.312994
592.839157	2388.710421
593.191038	2391.351985
593.542866	2389.743857
593.894639	2393.179404
594.246358	2392.153529
594.598022	2390.174876
594.949633	2390.172355
595.301190	2394.318704
595.652692	2392.650083
596.004141	2391.079763
596.355535	2391.840977
596.706876	2391.049516
597.058162	2391.102448
597.409395	2393.592778
597.760573	2390.114382
598.111698	2391.306615
598.462768	2393.302912
598.813785	2393.529764
599.164748	2394.359034
599.515657	2388.493651
599.866511	2391.112531
600.217312	2391.223436
600.568060	2394.159908
600.918753	2394.495145
601.269392	2390.676471
601.619978	2393.255021
601.970510	2392.067829
602.320988	2390.008518
602.671412	2390.225288
603.021783	2390.920967
603.372100	2390.908364
603.722363	2391.518343
604.072572	2393.154198
604.422728	2394.379198
604.772830	2389.287633
605.122878	2387.538353
605.472872	2391.707387
605.822813	2387.729916
606.172701	2390.739485
606.522534	2392.655124
606.872314	2391.425082
607.222041	2393.560011
607.571714	2393.224774
607.921333	2392.526574
608.270899	2393.146636
608.620411	2392.123282
608.969870	2394.641338
609.319276	2394.706873
609.668627	2393.134033
610.017926	2391.964486
610.367171	2392.163611
610.716362	2393.870042
611.065500	2391.258724
611.414585	2391.747716
611.763616	2389.774104
612.112594	2390.437016
612.461518	2391.737634
612.810389	2393.035731
613.159207	2390.747047
613.507971	2393.534805
613.856682	2393.832233
614.205340	2391.215874
614.553945	2393.791904
614.902496	2391.183107
615.250994	2392.753426
615.599439	2391.228477
615.947830	2389.748898
616.296169	2390.255534
616.644454	2394.414486
616.992686	2392.151008
617.340864	2394.212840
617.688990	2390.237890
618.037063	2390.522716
618.385082	2388.105482
618.733048	2392.138405
619.080961	2389.096069
619.428821	2391.601523
619.776628	2390.767212
620.124382	2392.783673
620.472083	2391.372150
620.819731	2393.653272
621.167326	2395.780639
621.514868	2393.524723
621.862357	2391.422562
622.209793	2392.425751
622.557176	2389.600184
622.904506	2391.205792
623.251783	2387.876110
623.599007	2389.610267
623.946179	2386.973743
624.293297	2388.665050
624.640363	2391.530946
624.987376	2391.160422
625.334336	2392.050185
625.681243	2392.304763
626.028097	2392.498848
626.374899	2391.810730
626.721647	2392.395504
627.068343	2393.365926
627.414987	2389.844680
627.761577	2393.688560
628.108115	2388.617159
628.454600	2391.737634
628.801032	2390.074053
629.147412	2392.324928
629.493739	2392.876934
629.840014	2391.404918
630.186236	2389.569937
630.532405	2393.272665
630.878521	2391.682181
631.224585	2392.440875
631.570597	2392.932387
631.916556	2393.370968
632.262462	2390.142108
632.608316	2391.510782
632.954117	2392.735782
633.299866	2390.028683
633.645562	2393.018087
633.991206	2392.766029
634.336797	2392.007335
634.682336	2391.175545
635.027823	2391.145298
635.373257	2391.566234
635.718639	2392.103117
636.063968	2393.562531
636.409245	2391.679660
636.754470	2393.970865
637.099642	2392.955072
637.444762	2392.173693
637.789829	2391.294012
638.134845	2391.223436
638.479808	2389.375853
638.824719	2389.494320
639.169577	2392.851729
639.514383	2390.883158
639.859137	2391.911553
640.203839	2394.311143
640.548489	2391.644372
640.893086	2392.670247
641.237632	2386.920811
641.582125	2389.143960
641.926566	2387.225801
642.270955	2390.890720
642.615292	2393.703684
642.959576	2392.060268
643.303809	2392.703015
643.647990	2393.396173
643.992118	2392.826523
644.336195	2389.640514
