Dividing Wavelength (nm)	Counts (n)	Blue Motor Position (mm): 0.000000	Red Motor Position (mm): 2.200000	
326.493990	1973.604169
326.888308	1973.604169
327.282561	1973.604169
327.676750	1948.731116
328.070874	1950.765222
328.464933	1952.804368
328.858929	1967.680813
329.252859	1979.865282
329.646726	1994.129227
330.040528	2007.873933
330.434265	2027.360513
330.827938	2046.378266
331.221547	2067.024312
331.615091	2087.856880
332.008571	2106.592328
332.401986	2128.720473
332.795338	2146.961888
333.188625	2168.643891
333.581847	2185.400686
333.975006	2204.466330
334.368100	2224.762015
334.761129	2239.593090
335.154095	2253.804103
335.546996	2266.865732
335.939833	2284.250151
336.332606	2296.432100
336.725315	2307.754531
337.117960	2314.411375
337.510540	2318.013279
337.903056	2328.934939
338.295508	2339.460868
338.687896	2343.844152
339.080220	2350.581654
339.472480	2356.247911
339.864676	2360.245546
340.256807	2360.381657
340.648875	2364.898531
341.040879	2365.402646
341.432818	2369.294417
341.824694	2367.769468
342.216506	2366.017667
342.608253	2366.811648
342.999937	2367.658562
343.391557	2365.979858
343.783113	2363.237470
344.174605	2365.082533
344.566033	2362.811493
344.957397	2359.244877
345.348697	2356.900740
345.739934	2357.914012
346.131106	2353.573578
346.522215	2355.516943
346.913260	2350.180882
347.304241	2349.434791
347.695159	2350.276664
348.086012	2346.833556
348.476802	2344.708709
348.867528	2341.807525
349.258191	2339.352483
349.648789	2341.494974
350.039324	2337.119252
350.429796	2339.329798
350.820203	2338.429952
351.210548	2338.190498
351.600828	2336.297544
351.991045	2338.447596
352.381198	2338.228306
352.771288	2340.275015
353.161314	2336.108501
353.551276	2335.405260
353.941175	2337.431804
354.331010	2335.800991
354.720782	2335.072544
355.110490	2336.738645
355.500135	2337.749397
355.889717	2338.712257
356.279235	2337.691423
356.668689	2336.605055
357.058080	2337.015909
357.447408	2338.969356
357.836672	2335.894252
358.225873	2338.891218
358.615010	2332.526761
359.004084	2339.733091
359.393095	2338.964315
359.782043	2341.684017
360.170927	2340.620334
360.559748	2342.107474
360.948505	2340.580004
361.337199	2342.195694
361.725830	2341.575632
362.114398	2345.028823
362.502903	2343.193843
362.891344	2343.844152
363.279722	2346.853720
363.668037	2342.788030
364.056289	2347.471262
364.444478	2346.163082
364.832603	2346.899091
365.220665	2345.245592
365.608665	2347.093175
365.996601	2347.582167
366.384474	2349.117198
366.772284	2348.391272
367.160031	2349.187775
367.547715	2347.481344
367.935336	2349.144925
368.322893	2347.435974
368.710388	2347.861951
369.097820	2354.211284
369.485189	2350.548886
369.872495	2353.071984
370.259738	2353.339165
370.646918	2355.088445
371.034035	2351.078207
371.421090	2356.966275
371.808081	2355.398476
372.195010	2358.229084
372.581875	2358.113138
372.968678	2359.290247
373.355418	2363.814682
373.742096	2365.816021
374.128710	2366.673017
374.515262	2372.369521
374.901751	2372.094778
375.288177	2376.352032
375.674540	2384.760677
376.060841	2387.326624
376.447079	2391.223436
376.833254	2392.478683
377.219367	2393.416338
377.605417	2400.491597
377.991404	2404.133831
378.377329	2410.253792
378.763191	2411.839235
379.148991	2421.157808
379.534727	2424.706780
379.920402	2428.593509
380.306013	2435.247833
380.691563	2442.678493
381.077049	2443.122115
381.462474	2446.718978
381.847835	2453.494289
382.233134	2459.069805
382.618371	2461.890331
383.003545	2466.283696
383.388657	2468.716053
383.773706	2475.292238
384.158693	2480.086375
384.543618	2481.969246
384.928480	2484.804895
385.313280	2486.896974
385.698017	2488.414362
386.082692	2497.869046
386.467305	2492.553149
386.851856	2498.476505
387.236344	2501.521362
387.620770	2502.141423
388.005133	2501.581855
388.389435	2502.829541
388.773674	2499.499859
389.157851	2503.744510
389.541965	2501.975065
389.926018	2496.901144
390.310008	2496.911226
390.693936	2496.457523
391.077802	2493.800834
391.461606	2490.844198
391.845348	2489.848570
392.229027	2484.585605
392.612645	2486.019813
392.996200	2480.298104
393.379694	2478.720223
393.763125	2478.836169
394.146494	2473.016157
394.529801	2470.707309
394.913047	2465.285548
395.296230	2457.164249
395.679351	2450.532611
396.062410	2445.302414
396.445408	2440.926692
396.828343	2434.214396
397.211217	2423.685946
397.594028	2420.751995
397.976778	2416.504822
398.359466	2412.920562
398.742092	2403.049983
399.124656	2405.726836
399.507158	2402.573594
399.889598	2400.771381
400.271977	2396.882131
400.654294	2393.842315
401.036549	2390.469783
401.418742	2387.210677
401.800874	2383.354195
402.182944	2384.687580
402.564952	2384.362426
402.946898	2380.707589
403.328783	2379.061652
403.710606	2379.059132
404.092367	2377.161137
404.474067	2376.651981
404.855705	2376.737680
405.237282	2374.297762
405.618797	2377.332537
406.000250	2375.593338
406.381642	2373.828935
406.762972	2374.093595
407.144240	2373.186188
407.525447	2374.741383
407.906593	2373.781044
408.287677	2375.416898
408.668700	2374.723739
409.049661	2372.009078
409.430560	2373.670138
409.811399	2373.407998
410.192176	2374.869933
410.572891	2371.565457
410.953545	2371.187370
411.334138	2373.108050
411.714669	2371.041177
412.095139	2372.387165
412.475547	2374.839686
412.855894	2373.259284
413.236180	2374.451517
413.616405	2374.832124
413.996568	2373.546630
414.376670	2375.870602
414.756711	2373.808770
415.136691	2376.079810
415.516609	2372.223327
415.896466	2374.267515
416.276262	2374.010416
416.655997	2374.315406
417.035670	2371.149561
417.415283	2375.787423
417.794834	2370.796681
418.174324	2374.716178
418.553753	2374.174254
418.933121	2374.688451
419.312428	2376.583925
419.691674	2375.595859
420.070859	2376.309182
420.449983	2377.478730
420.829045	2376.780530
421.208047	2376.853627
421.586988	2377.062835
421.965867	2375.293390
422.344686	2377.483771
422.723444	2377.561909
423.102141	2374.837165
423.480777	2372.959336
423.859352	2377.072917
424.237866	2378.376055
424.616319	2378.101313
424.994712	2378.113915
425.373044	2377.829090
425.751314	2378.912938
426.129524	2379.253216
426.507673	2378.232383
426.885762	2375.885725
427.263789	2378.925541
427.641756	2380.158103
428.019662	2379.384286
428.397508	2375.283308
428.775292	2378.590304
429.153016	2380.473175
429.530679	2377.695500
429.908282	2377.708103
430.285824	2377.997969
430.663305	2379.656508
431.040726	2380.412682
431.418086	2379.306148
431.795385	2381.428474
432.172624	2378.910418
432.549802	2378.421426
432.926920	2381.511653
433.303977	2381.226828
433.680974	2380.243803
434.057910	2381.919987
434.434786	2381.652805
434.811601	2382.696324
435.188355	2380.717671
435.565050	2382.635830
435.941683	2379.671632
436.318257	2379.958978
436.694770	2377.778679
437.071222	2379.389327
437.447614	2379.273381
437.823946	2379.326313
438.200218	2381.254554
438.576429	2382.550131
438.952580	2382.721530
439.328670	2380.001828
439.704700	2381.458721
440.080670	2382.315717
440.456580	2381.733464
440.832429	2381.725902
441.208218	2383.399565
441.583947	2383.525594
441.959616	2381.771273
442.335224	2379.676673
442.710773	2384.518701
443.086261	2382.240100
443.461689	2382.265306
443.837057	2384.712786
444.212365	2383.376880
444.587612	2383.147507
444.962800	2384.811088
445.337927	2385.927704
445.712995	2385.131202
446.088002	2386.230173
446.462949	2383.830584
446.837837	2384.501057
447.212664	2383.449977
447.587431	2384.594319
447.962139	2384.236397
448.336786	2387.452653
448.711374	2386.716644
449.085901	2384.112888
449.460369	2386.245297
449.834776	2383.137425
450.209124	2387.500544
450.583412	2383.626417
450.957640	2386.003321
451.331808	2383.976777
451.705917	2387.361912
452.079965	2387.145143
452.453954	2382.764380
452.827883	2386.053733
453.201752	2385.970554
453.575562	2384.128012
453.949311	2385.410986
454.323001	2387.624052
454.696632	2384.163300
455.070202	2386.290667
455.443713	2387.326624
455.817164	2384.629607
456.190556	2382.824874
456.563888	2383.422250
456.937160	2382.650954
457.310373	2386.560369
457.683526	2383.797816
458.056619	2385.872251
458.429653	2386.295708
458.802628	2387.518188
459.175542	2385.970554
459.548398	2386.613301
459.921194	2388.367622
460.293930	2390.164794
460.666607	2388.324773
461.039224	2390.179917
461.411782	2387.601367
461.784280	2389.650596
462.156719	2387.760163
462.529099	2388.801162
462.901419	2388.735627
463.273680	2387.886192
463.645882	2389.365771
464.018024	2389.191851
464.390106	2388.637324
464.762130	2386.746891
465.134094	2388.269320
465.505999	2390.615977
465.877845	2390.124464
466.249631	2392.057747
466.621358	2391.157901
466.993026	2393.086142
467.364634	2395.165618
467.736184	2389.758981
468.107674	2391.324259
468.479105	2391.311656
468.850477	2388.460884
469.221790	2388.596995
469.593043	2390.714279
469.964238	2388.670092
470.335373	2392.813920
470.706449	2389.859804
471.077467	2389.806872
471.448425	2392.466080
471.819324	2391.195710
472.190164	2389.816954
472.560945	2388.478528
472.931667	2390.996584
473.302330	2390.404248
473.672934	2389.580020
474.043479	2388.402910
474.413965	2390.114382
474.784393	2383.470141
475.154761	2386.948538
475.525070	2385.390821
475.895321	2386.560369
476.265513	2385.375697
476.635645	2392.201420
477.005719	2390.482386
477.375734	2389.179248
477.745691	2391.319218
478.115588	2390.578168
478.485427	2390.734444
478.855207	2392.786194
479.224928	2390.492469
479.594591	2391.689743
479.964194	2391.498179
480.333739	2391.624208
480.703226	2391.719990
481.072653	2392.574465
481.442022	2390.099259
481.811333	2391.742675
482.180584	2391.223436
482.549777	2392.468601
482.918912	2393.358365
483.287988	2390.810061
483.657005	2392.072870
484.025964	2389.859804
484.394864	2392.692932
484.763706	2395.042110
485.132489	2393.282747
485.501213	2392.740823
485.869879	2393.076060
486.238487	2392.612274
486.607036	2393.229815
486.975527	2391.478014
487.343959	2390.298384
487.712333	2392.201420
488.080648	2391.500699
488.448905	2391.742675
488.817104	2392.904661
489.185244	2394.394322
489.553326	2393.149157
489.921350	2392.806358
490.289315	2392.128323
490.657222	2390.666388
491.025070	2395.503376
491.392861	2390.091697
491.760593	2393.325597
492.128267	2391.851060
492.495883	2394.036400
492.863440	2390.162273
493.230939	2393.297871
493.598380	2394.222923
493.965763	2389.224618
494.333088	2390.303425
494.700354	2390.353837
495.067563	2391.846018
495.434713	2387.031717
495.801805	2392.576986
496.168839	2392.634959
496.535815	2390.598333
496.902733	2393.043292
497.269593	2393.323077
497.636395	2391.750237
498.003139	2395.679816
498.369825	2390.452139
498.736453	2390.951214
499.103023	2392.803838
499.469535	2395.349620
499.835989	2393.668396
500.202385	2394.863149
500.568723	2394.540515
500.935003	2395.604199
501.301226	2394.437172
501.667390	2392.763508
502.033497	2395.208468
502.399546	2397.668551
502.765537	2394.994219
503.131470	2399.029663
503.497345	2395.268962
503.863163	2395.213509
504.228923	2395.175701
504.594625	2396.652759
504.960269	2394.480021
505.325856	2397.141751
505.691385	2393.945659
506.056856	2398.691905
506.422270	2397.292985
506.787625	2396.597306
507.152924	2396.995557
507.518164	2398.144940
507.883347	2395.883983
508.248472	2397.197203
508.613540	2398.472615
508.978550	2396.751061
509.343503	2398.407080
509.708398	2401.698954
510.073236	2397.313150
510.438016	2399.816083
510.802738	2399.243912
511.167403	2400.224416
511.532010	2393.504558
511.896561	2396.163767
512.261053	2398.008829
512.625488	2396.859446
512.989866	2394.101935
513.354186	2394.537995
513.718449	2392.279558
514.082655	2397.217368
514.446803	2396.393139
514.810894	2397.265259
515.174927	2398.235681
515.538904	2398.293654
515.902822	2393.572614
516.266684	2397.381205
516.630488	2395.818448
516.994235	2395.142933
517.357925	2394.346431
517.721558	2397.229971
518.085133	2396.148643
518.448651	2394.837943
518.812112	2393.111348
519.175516	2394.167470
519.538863	2392.944990
519.902152	2393.050854
520.265385	2396.471277
520.628560	2395.034548
520.991678	2395.042110
521.354739	2397.882800
521.717743	2392.322408
522.080690	2392.743344
522.443580	2395.838612
522.806413	2395.858777
523.169189	2393.277706
523.531908	2395.621843
523.894569	2393.466749
524.257174	2394.414486
524.619722	2394.301060
524.982213	2395.770557
525.344647	2393.071019
525.707025	2394.457336
526.069345	2393.239897
526.431608	2394.706873
526.793815	2394.311143
527.155964	2395.274003
527.518057	2391.853580
527.880093	2397.371123
528.242072	2395.026987
528.603995	2394.792573
528.965860	2394.028838
529.327669	2393.867521
529.689421	2396.599827
530.051117	2396.125958
530.412755	2391.964486
530.774337	2393.214692
531.135862	2394.956410
531.497331	2392.219064
531.858743	2391.253683
532.220098	2394.202758
532.581396	2389.814433
532.942638	2392.576986
533.303824	2393.693601
533.664953	2393.983468
534.026025	2395.042110
534.387040	2393.209651
534.747999	2394.795093
535.108902	2396.451112
535.469748	2398.036555
535.830537	2394.356513
536.191270	2392.244270
536.551947	2396.640156
536.912567	2392.587068
537.273131	2393.287788
537.633638	2394.313663
537.994089	2392.869373
538.354483	2393.859959
538.714821	2394.863149
539.075103	2396.251987
539.435328	2394.590927
539.795497	2392.032541
540.155609	2396.259549
540.515665	2395.989847
540.875665	2394.943808
541.235609	2394.169990
541.595496	2395.137892
541.955328	2393.812068
542.315102	2393.439023
542.674821	2396.458674
543.034483	2393.496996
543.394090	2394.394322
543.753640	2392.561862
544.113134	2394.283416
544.472571	2393.691081
544.831953	2395.495814
545.191278	2395.636966
545.550548	2396.017573
545.909761	2395.112686
546.268918	2394.238046
546.628019	2394.739641
546.987064	2395.939435
547.346053	2394.275855
547.704986	2395.347100
548.063863	2392.740823
548.422684	2393.098745
548.781449	2395.090001
549.140158	2393.416338
549.498811	2397.063613
549.857408	2395.049672
550.215949	2392.637480
550.574434	2395.102604
550.932864	2394.212840
551.291237	2389.907695
551.649555	2396.529250
552.007817	2397.174518
552.366022	2395.135371
552.724173	2395.016904
553.082267	2395.463046
553.440305	2395.881462
553.798288	2397.013201
554.156215	2395.200906
554.514086	2396.390619
554.871902	2393.686040
555.229661	2393.315515
555.587365	2393.849877
555.945014	2393.512120
556.302606	2395.916750
556.660143	2394.013715
557.017625	2395.042110
557.375050	2392.740823
557.732421	2393.933056
558.089735	2396.909857
558.446994	2394.669065
558.804197	2397.527399
559.161345	2394.666544
559.518437	2393.575134
559.875474	2393.381050
560.232455	2396.176370
560.589381	2395.546225
560.946251	2396.909858
561.303065	2395.853736
561.659825	2393.751575
562.016528	2394.911040
562.373177	2398.172667
562.729770	2394.537995
563.086307	2395.571431
563.442789	2392.531615
563.799216	2394.046482
564.155587	2395.591596
564.511904	2395.654610
564.868164	2394.525392
565.224370	2395.919271
565.580520	2393.247459
565.936615	2396.375495
566.292654	2395.402552
566.648638	2392.803838
567.004567	2394.790052
567.360441	2394.250649
567.716260	2394.182593
568.072023	2391.107489
568.427732	2391.346944
568.783385	2392.435833
569.138982	2390.419372
569.494525	2392.697973
569.850013	2392.755947
570.205445	2394.391801
570.560823	2394.769888
570.916145	2395.798283
571.271412	2393.232336
571.626625	2395.649569
571.981782	2394.774929
572.336884	2392.816441
572.691931	2396.181411
573.046923	2395.400032
573.401860	2394.066647
573.756743	2395.218550
574.111570	2392.957593
574.466342	2395.863818
574.821059	2397.146792
575.175722	2395.306771
575.530330	2394.258211
575.884882	2392.045144
576.239380	2396.045300
576.593823	2397.408932
576.948211	2392.680329
577.302544	2395.425238
577.656823	2394.233005
578.011047	2392.894578
578.365216	2393.423900
578.719330	2394.676626
579.073389	2392.098076
579.427394	2395.846174
579.781344	2394.739641
580.135239	2394.848026
580.489080	2395.473129
580.842866	2396.519168
581.196597	2391.493138
581.550273	2393.015566
581.903895	2395.236194
582.257463	2395.639487
582.610975	2394.787532
582.964434	2394.502707
583.317837	2394.570762
583.671186	2396.499003
584.024481	2392.816441
584.377721	2395.092522
584.730906	2395.314332
585.084037	2394.250649
585.437113	2394.280896
585.790135	2394.172511
586.143103	2393.428941
586.496016	2393.050854
586.848874	2389.380894
587.201679	2393.234856
587.554428	2393.910371
587.907124	2391.687222
588.259765	2392.894578
588.612352	2390.943652
588.964884	2395.800804
589.317362	2399.304406
589.669786	2394.520351
590.022155	2397.489590
590.374470	2393.582696
590.726731	2397.852553
591.078937	2394.059085
591.431090	2396.168808
591.783188	2394.505227
592.135232	2394.903478
592.487222	2394.059085
592.839157	2393.376009
593.191038	2394.371637
593.542866	2396.143602
593.894639	2395.934394
594.246358	2395.868859
594.598022	2394.167470
594.949633	2395.876421
595.301190	2393.970865
595.652692	2395.150495
596.004141	2396.219219
596.355535	2395.846174
596.706876	2396.120917
597.058162	2396.491442
597.409395	2395.896586
597.760573	2393.005484
598.111698	2395.294168
598.462768	2396.720814
598.813785	2395.256359
599.164748	2392.682850
599.515657	2393.635628
599.866511	2399.495969
600.217312	2393.038251
600.568060	2393.675957
600.918753	2399.440517
601.269392	2392.120761
601.619978	2394.096894
601.970510	2395.032028
602.320988	2395.495814
602.671412	2397.645866
603.021783	2394.480021
603.372100	2395.465567
603.722363	2392.844167
604.072572	2395.354662
604.422728	2396.017573
604.772830	2394.754764
605.122878	2392.254352
605.472872	2393.988509
605.822813	2388.521378
606.172701	2396.521689
606.522534	2393.713766
606.872314	2394.769888
607.222041	2395.077398
607.571714	2392.637480
607.921333	2395.528581
608.270899	2395.127810
608.620411	2394.810217
608.969870	2393.912892
609.319276	2393.759136
609.668627	2394.893396
610.017926	2394.112017
610.367171	2395.228633
610.716362	2395.473129
611.065500	2394.694270
611.414585	2394.041441
611.763616	2394.026318
612.112594	2394.454816
612.461518	2394.285937
612.810389	2396.176370
613.159207	2394.545556
613.507971	2393.340721
613.856682	2396.738458
614.205340	2392.841646
614.553945	2395.629404
614.902496	2393.350803
615.250994	2392.004815
615.599439	2396.456154
615.947830	2395.944477
616.296169	2395.369785
616.644454	2395.160577
616.992686	2393.784342
617.340864	2394.802655
617.688990	2397.408932
618.037063	2396.163767
618.385082	2392.743344
618.733048	2395.810886
619.080961	2392.589589
619.428821	2393.650752
619.776628	2394.273334
620.124382	2396.380536
620.472083	2394.061606
620.819731	2394.099414
621.167326	2395.473129
621.514868	2394.162429
621.862357	2396.055382
622.209793	2397.557646
622.557176	2393.590258
622.904506	2391.931718
623.251783	2390.484907
623.599007	2393.098745
623.946179	2388.425596
624.293297	2390.883158
624.640363	2392.549259
624.987376	2394.021276
625.334336	2393.897768
625.681243	2393.408776
626.028097	2394.974054
626.374899	2395.042110
626.721647	2394.386760
627.068343	2395.853736
627.414987	2394.664023
627.761577	2392.889537
628.108115	2392.413148
628.454600	2394.444733
628.801032	2389.728734
629.147412	2393.706204
629.493739	2395.218550
629.840014	2396.909858
630.186236	2394.923643
630.532405	2392.178735
630.878521	2395.344579
631.224585	2392.307284
631.570597	2392.579506
631.916556	2393.292830
632.262462	2395.722666
632.608316	2395.490773
632.954117	2394.346431
633.299866	2395.029507
633.645562	2392.486245
633.991206	2394.275855
634.336797	2391.266286
634.682336	2391.868704
635.027823	2392.072870
635.373257	2392.536657
635.718639	2394.878272
636.063968	2395.054713
636.409245	2392.410628
636.754470	2393.930536
637.099642	2393.154198
637.444762	2393.859959
637.789829	2394.550597
638.134845	2391.765360
638.479808	2393.421379
638.824719	2394.124620
639.169577	2394.545556
639.514383	2391.069681
639.859137	2395.609240
640.203839	2395.614281
640.548489	2393.469270
640.893086	2391.667058
641.237632	2390.046327
641.582125	2391.130175
641.926566	2388.964999
642.270955	2394.515309
642.615292	2392.622356
642.959576	2392.662685
643.303809	2395.294168
643.647990	2394.817779
643.992118	2394.462377
644.336195	2396.020094
