Dividing Wavelength (nm)	Counts (n)	Blue Motor Position (mm): 0.000000	Red Motor Position (mm): 9.600000	
326.493990	1977.692545
326.888308	1977.692545
327.282561	1977.692545
327.676750	1955.957610
328.070874	1956.030707
328.464933	1960.235029
328.858929	1969.404888
329.252859	1983.053812
329.646726	2000.007212
330.040528	2013.759480
330.434265	2034.234126
330.827938	2052.193237
331.221547	2069.456668
331.615091	2090.803434
332.008571	2113.604573
332.401986	2131.117542
332.795338	2151.355254
333.188625	2174.226969
333.581847	2190.512416
333.975006	2211.284491
334.368100	2228.948694
334.761129	2244.324213
335.154095	2262.197624
335.546996	2273.772113
335.939833	2289.659309
336.332606	2301.919396
336.725315	2311.910963
337.117960	2320.206181
337.510540	2327.765391
337.903056	2337.167143
338.295508	2341.527741
338.687896	2351.504185
339.080220	2359.418796
339.472480	2365.460619
339.864676	2367.081350
340.256807	2369.309540
340.648875	2373.158461
341.040879	2371.774664
341.432818	2374.829604
341.824694	2374.970756
342.216506	2374.791795
342.608253	2371.968749
342.999937	2371.878008
343.391557	2372.767772
343.783113	2369.511186
344.174605	2372.117463
344.566033	2367.608151
344.957397	2365.211082
345.348697	2366.657893
345.739934	2362.201513
346.131106	2360.611029
346.522215	2360.268231
346.913260	2359.559949
347.304241	2356.986440
347.695159	2356.668847
348.086012	2353.525688
348.476802	2353.966788
348.867528	2350.780779
349.258191	2350.851355
349.648789	2350.730368
350.039324	2349.515450
350.429796	2350.017044
350.820203	2348.156859
351.210548	2346.412619
351.600828	2344.875068
351.991045	2345.404389
352.381198	2345.122084
352.771288	2346.412619
353.161314	2345.822804
353.551276	2345.109481
353.941175	2344.096209
354.331010	2344.229800
354.720782	2347.682990
355.110490	2342.742659
355.500135	2344.559995
355.889717	2346.223576
356.279235	2345.784996
356.668689	2346.813391
357.058080	2347.367918
357.447408	2345.487568
357.836672	2344.073524
358.225873	2345.986642
358.615010	2344.766683
359.004084	2349.155007
359.393095	2351.932683
359.782043	2348.902949
360.170927	2352.857735
360.559748	2351.884792
360.948505	2354.642303
361.337199	2355.126254
361.725830	2353.376973
362.114398	2354.145749
362.502903	2354.443178
362.891344	2355.312777
363.279722	2356.550380
363.668037	2357.160359
364.056289	2355.053157
364.444478	2358.965093
364.832603	2359.600278
365.220665	2360.706811
365.608665	2359.285206
365.996601	2362.677902
366.384474	2360.406863
366.772284	2361.765453
367.160031	2361.659589
367.547715	2362.839219
367.935336	2362.337624
368.322893	2363.562625
368.710388	2362.665299
369.097820	2364.666637
369.485189	2365.750486
369.872495	2369.669983
370.259738	2369.226361
370.646918	2370.262318
371.034035	2372.964377
371.421090	2374.716178
371.808081	2377.730788
372.195010	2382.232538
372.581875	2387.472817
372.968678	2392.597150
373.355418	2401.000754
373.742096	2410.188257
374.128710	2416.363670
374.515262	2433.281783
374.901751	2443.167485
375.288177	2458.873200
375.674540	2478.780717
376.060841	2501.286948
376.447079	2520.181193
376.833254	2548.719164
377.219367	2573.304872
377.605417	2606.326950
377.991404	2629.959879
378.377329	2671.511590
378.763191	2703.432176
379.148991	2748.200143
379.534727	2793.971299
379.920402	2841.673217
380.306013	2889.904457
380.691563	2950.569702
381.077049	3001.505521
381.462474	3061.528019
381.847835	3130.662403
382.233134	3200.023638
382.618371	3257.555807
383.003545	3341.390195
383.388657	3418.023295
383.773706	3506.598889
384.158693	3577.220413
384.543618	3665.019669
384.928480	3745.347935
385.313280	3841.744879
385.698017	3940.664920
386.082692	4052.727250
386.467305	4109.137761
386.851856	4226.992377
387.236344	4365.243500
387.620770	4421.686779
388.005133	4527.414899
388.389435	4657.580012
388.773674	4727.268922
389.157851	4840.354606
389.541965	4945.031645
389.926018	4949.941729
390.310008	5096.256178
390.693936	5182.500238
391.077802	5261.051498
391.461606	5350.874777
391.845348	5422.234830
392.229027	5493.274770
392.612645	5642.150125
392.996200	5705.109096
393.379694	5807.888140
393.763125	5946.025838
394.146494	5966.286235
394.529801	6024.758579
394.913047	6158.455020
395.296230	6091.412715
395.679351	6071.953861
396.062410	6196.951791
396.445408	6054.088012
396.828343	6084.864256
397.211217	6104.683553
397.594028	5945.551970
397.976778	6004.160424
398.359466	6032.476585
398.742092	5929.059835
399.124656	5931.603097
399.507158	5957.665862
399.889598	5880.647114
400.271977	5904.741309
400.654294	5828.277087
401.036549	5833.978632
401.418742	5746.854891
401.800874	5805.034847
402.182944	5745.438327
402.564952	5810.065919
402.946898	5617.594665
403.328783	5538.509043
403.710606	5513.207492
404.092367	5516.675806
404.474067	5545.861566
404.855705	5351.053738
405.237282	5216.490218
405.618797	5262.556282
406.000250	5235.893619
406.381642	5237.718517
406.762972	5107.296305
407.144240	4930.926497
407.525447	4887.444024
407.906593	4760.296042
408.287677	4724.314806
408.668700	4653.784023
409.049661	4538.533164
409.430560	4472.564624
409.811399	4360.580433
410.192176	4295.700783
410.572891	4207.289027
410.953545	4191.028785
411.334138	4006.038603
411.714669	4007.102287
412.095139	3812.856547
412.475547	3793.644710
412.855894	3690.293494
413.236180	3648.429232
413.616405	3536.369423
413.996568	3489.595077
414.376670	3415.976587
414.756711	3333.795697
415.136691	3290.035961
415.516609	3246.208169
415.896466	3189.482586
416.276262	3150.975732
416.655997	3122.410034
417.035670	3069.490521
417.415283	3057.568193
417.794834	3007.582632
418.174324	2947.154320
418.553753	2896.914181
418.933121	2875.171685
419.312428	2831.830364
419.691674	2791.314611
420.070859	2770.403905
420.449983	2726.598798
420.829045	2715.009186
421.208047	2680.394103
421.586988	2666.916578
421.965867	2648.501243
422.344686	2625.226236
422.723444	2614.024792
423.102141	2573.680438
423.480777	2576.896694
423.859352	2553.110009
424.237866	2555.093703
424.616319	2538.926723
424.994712	2531.871628
425.373044	2520.786131
425.751314	2517.108609
426.129524	2500.755106
426.507673	2502.854747
426.885762	2491.900319
427.263789	2490.955103
427.641756	2483.905049
428.019662	2479.473875
428.397508	2476.791981
428.775292	2473.963894
429.153016	2468.211937
429.530679	2468.375775
429.908282	2461.998715
430.285824	2462.361678
430.663305	2461.260186
431.040726	2456.166100
431.418086	2451.336675
431.795385	2453.161573
432.172624	2453.915225
432.549802	2449.945317
432.926920	2447.626386
433.303977	2443.966508
433.680974	2444.347115
434.057910	2446.129163
434.434786	2441.392999
434.811601	2445.544389
435.188355	2445.118412
435.565050	2445.090685
435.941683	2440.044490
436.318257	2440.387289
436.694770	2438.832093
437.071222	2440.951898
437.447614	2435.018460
437.823946	2436.482915
438.200218	2437.339911
438.576429	2434.269849
438.952580	2436.326639
439.328670	2433.637184
439.704700	2435.477205
440.080670	2436.331681
440.456580	2437.536516
440.832429	2437.801177
441.208218	2435.431835
441.583947	2433.664910
441.959616	2433.342276
442.335224	2436.520724
442.710773	2432.066864
443.086261	2436.175405
443.461689	2433.896803
443.837057	2435.086516
444.212365	2435.068872
444.587612	2433.801021
444.962800	2434.779005
445.337927	2434.589962
445.712995	2430.940167
446.088002	2435.109201
446.462949	2437.697833
446.837837	2437.566763
447.212664	2439.510128
447.587431	2440.546085
447.962139	2447.029009
448.336786	2455.072170
448.711374	2450.336006
449.085901	2444.853751
449.460369	2439.956270
449.834776	2443.154882
450.209124	2444.326951
450.583412	2447.822991
450.957640	2447.409616
451.331808	2446.537497
451.705917	2439.174891
452.079965	2440.059614
452.453954	2443.399378
452.827883	2443.548092
453.201752	2441.612289
453.575562	2442.131528
453.949311	2445.093206
454.323001	2444.533638
454.696632	2446.343412
455.070202	2447.417178
455.443713	2445.614965
455.817164	2448.201077
456.190556	2444.944492
456.563888	2447.223093
456.937160	2445.045315
457.310373	2444.357198
457.683526	2449.045471
458.056619	2446.913062
458.429653	2445.173864
458.802628	2448.390121
459.175542	2445.766200
459.548398	2452.513784
459.921194	2453.390945
460.293930	2455.213322
460.666607	2459.425206
461.039224	2461.865125
461.411782	2462.477625
461.784280	2463.226236
462.156719	2458.986626
462.529099	2458.472428
462.901419	2455.160390
463.273680	2454.915894
463.645882	2453.718620
464.018024	2454.757098
464.390106	2452.281891
464.762130	2461.610547
465.134094	2467.775878
465.505999	2478.430356
465.877845	2487.842191
466.249631	2489.868734
466.621358	2485.752632
466.993026	2483.342961
467.364634	2483.537045
467.736184	2475.871971
468.107674	2469.560446
468.479105	2469.661269
468.850477	2469.016002
469.221790	2462.573407
469.593043	2460.693057
469.964238	2459.054682
470.335373	2459.578962
470.706449	2465.368727
471.077467	2466.545836
471.448425	2477.885912
471.819324	2481.195429
472.190164	2479.688124
472.560945	2471.791157
472.931667	2465.802266
473.302330	2461.638273
473.672934	2460.980402
474.043479	2465.293109
474.413965	2460.756071
474.784393	2456.294650
475.154761	2457.585185
475.525070	2457.532253
475.895321	2457.733899
476.265513	2458.091821
476.635645	2464.234467
477.005719	2460.027624
477.375734	2463.747996
477.745691	2464.952832
478.115588	2465.799745
478.485427	2470.866105
478.855207	2475.884574
479.224928	2481.513022
479.594591	2485.498054
479.964194	2482.337251
480.333739	2481.689462
480.703226	2479.869606
481.072653	2482.639720
481.442022	2484.368836
481.811333	2485.840852
482.180584	2482.823722
482.549777	2481.568475
482.918912	2482.337251
483.287988	2482.007055
483.657005	2478.591673
484.025964	2478.354739
484.394864	2475.269553
484.763706	2479.791468
485.132489	2476.819708
485.501213	2474.984728
485.869879	2474.115129
486.238487	2475.942547
486.607036	2472.852320
486.975527	2473.802577
487.343959	2473.406847
487.712333	2474.498256
488.080648	2472.449027
488.448905	2472.156640
488.817104	2474.447845
489.185244	2478.291725
489.553326	2479.504122
489.921350	2485.210708
490.289315	2489.576348
490.657222	2491.486945
491.025070	2492.532984
491.392861	2489.256234
491.760593	2486.627273
492.128267	2484.441932
492.495883	2479.791468
492.863440	2478.337095
493.230939	2476.086220
493.598380	2471.226547
493.965763	2466.465178
494.333088	2468.920220
494.700354	2466.500466
495.067563	2469.867957
495.434713	2465.582976
495.801805	2472.204531
496.168839	2468.216979
496.535815	2469.716722
496.902733	2469.348718
497.269593	2469.822586
497.636395	2469.809983
498.003139	2472.645632
498.369825	2472.638071
498.736453	2472.010447
499.103023	2469.779736
499.469535	2473.076651
499.835989	2473.295941
500.202385	2475.750983
500.568723	2472.799388
500.935003	2474.261322
501.301226	2475.239306
501.667390	2476.754173
502.033497	2479.511684
502.399546	2481.182826
502.765537	2480.774493
503.131470	2479.960347
503.497345	2482.380100
503.863163	2481.878506
504.228923	2486.234063
504.594625	2486.483600
504.960269	2486.198774
505.325856	2490.670278
505.691385	2491.572644
506.056856	2493.032058
506.422270	2494.481390
506.787625	2498.378202
507.152924	2501.821310
507.518164	2504.157885
507.883347	2500.124962
508.248472	2502.673265
508.613540	2509.481343
508.978550	2509.972856
509.343503	2510.850017
509.708398	2516.375121
510.073236	2520.685308
510.438016	2518.610873
510.802738	2517.514422
511.167403	2522.916018
511.532010	2524.052799
511.896561	2525.481966
512.261053	2533.782226
512.625488	2529.963552
512.989866	2529.721576
513.354186	2533.295754
513.718449	2531.130579
514.082655	2541.505273
514.446803	2537.348842
514.810894	2541.517876
515.174927	2543.103319
515.538904	2543.274718
515.902822	2543.950233
516.266684	2543.297403
516.630488	2546.317055
516.994235	2542.629451
517.357925	2546.402754
517.721558	2546.380069
518.085133	2549.981973
518.448651	2549.445091
518.812112	2542.102650
519.175516	2546.511139
519.538863	2548.492313
519.902152	2544.177085
520.265385	2545.180274
520.628560	2541.147351
520.991678	2540.222300
521.354739	2541.122146
521.717743	2539.902186
522.080690	2536.907741
522.443580	2538.457896
522.806413	2532.637884
523.169189	2534.818183
523.531908	2532.345497
523.894569	2528.383150
524.257174	2528.247039
524.619722	2526.785104
524.982213	2523.803262
525.344647	2519.336799
525.707025	2520.231604
526.069345	2517.635410
526.431608	2511.263391
526.793815	2512.407733
527.155964	2510.466889
527.518057	2507.258195
527.880093	2501.952380
528.242072	2500.029180
528.603995	2501.037411
528.965860	2498.156391
529.327669	2496.197903
529.689421	2493.132882
530.051117	2491.537356
530.412755	2486.113075
530.774337	2484.961171
531.135862	2482.065028
531.497331	2478.838690
531.858743	2474.425160
532.220098	2475.758545
532.581396	2468.426187
532.942638	2469.936012
533.303824	2469.850313
533.664953	2468.002730
534.026025	2464.431072
534.387040	2467.808645
534.747999	2464.751185
535.108902	2462.412090
535.469748	2461.476956
535.830537	2461.943263
536.191270	2459.057202
536.551947	2459.911678
536.912567	2457.496965
537.273131	2456.186265
537.633638	2453.126285
537.994089	2454.512602
538.354483	2448.702672
538.714821	2452.304577
539.075103	2451.341716
539.435328	2451.054370
539.795497	2449.405913
540.155609	2450.429267
540.515665	2446.761828
540.875665	2448.803495
541.235609	2450.479679
541.595496	2449.879782
541.955328	2447.525563
542.315102	2445.332661
542.674821	2444.440377
543.034483	2445.627568
543.394090	2445.493978
543.753640	2445.252002
544.113134	2445.294852
544.472571	2446.000614
544.831953	2446.204780
545.191278	2445.425922
545.550548	2441.753442
545.909761	2445.302414
546.268918	2445.814091
546.628019	2441.657660
546.987064	2441.324943
547.346053	2443.359049
547.704986	2445.811570
548.063863	2440.654470
548.422684	2442.688576
548.781449	2442.915427
549.140158	2443.885850
549.498811	2443.817794
549.857408	2445.052877
550.215949	2437.977617
550.574434	2437.917123
550.932864	2438.469130
551.291237	2436.782864
551.649555	2444.354677
552.007817	2441.088009
552.366022	2440.495674
552.724173	2439.696651
553.082267	2439.731939
553.440305	2444.568926
553.798288	2443.810232
554.156215	2443.154882
554.514086	2439.610951
554.871902	2443.043977
555.229661	2438.345622
555.587365	2439.414346
555.945014	2441.047680
556.302606	2440.034408
556.660143	2438.307813
557.017625	2441.934923
557.375050	2436.893769
557.732421	2440.629264
558.089735	2440.387289
558.446994	2438.116249
558.804197	2441.864347
559.161345	2440.019285
559.518437	2436.797987
559.875474	2440.102464
560.232455	2438.867381
560.589381	2441.052721
560.946251	2438.632967
561.303065	2438.930395
561.659825	2440.543565
562.016528	2438.355704
562.373177	2438.731270
562.729770	2438.703543
563.086307	2438.522062
563.442789	2437.690272
563.799216	2437.937288
564.155587	2436.964345
564.511904	2439.971394
564.868164	2439.913420
565.224370	2439.137083
565.580520	2438.307813
565.936615	2437.644901
566.292654	2440.299069
566.648638	2439.525252
567.004567	2436.223296
567.360441	2439.507608
567.716260	2437.193718
568.072023	2438.549788
568.427732	2431.903027
568.783385	2438.000303
569.138982	2431.930753
569.494525	2436.117432
569.850013	2432.518048
570.205445	2436.200611
570.560823	2438.370827
570.916145	2435.628440
571.271412	2434.431166
571.626625	2434.998295
571.981782	2437.453337
572.336884	2436.447627
572.691931	2436.888728
573.046923	2436.616506
573.401860	2435.754468
573.756743	2438.093564
574.111570	2434.552153
574.466342	2436.316557
574.821059	2434.670620
575.175722	2434.262287
575.530330	2434.663059
575.884882	2431.850095
576.239380	2433.876639
576.593823	2435.628440
576.948211	2434.897472
577.302544	2436.303954
577.656823	2435.877977
578.011047	2436.828234
578.365216	2434.176587
578.719330	2435.376382
579.073389	2432.507965
579.427394	2435.114242
579.781344	2432.865887
580.135239	2433.475867
580.489080	2435.230188
580.842866	2435.996444
581.196597	2431.603078
581.550273	2434.665579
581.903895	2428.971596
582.257463	2432.732297
582.610975	2429.594178
582.964434	2434.012750
583.317837	2433.052410
583.671186	2434.542071
584.024481	2432.278593
584.377721	2431.325815
584.730906	2432.656679
585.084037	2432.394539
585.437113	2432.051741
585.790135	2431.565270
586.143103	2432.482760
586.496016	2431.734148
586.848874	2425.899013
587.201679	2428.570824
587.554428	2429.543767
587.907124	2431.020825
588.259765	2427.824733
588.612352	2431.247677
588.964884	2428.810279
589.317362	2429.568973
589.669786	2428.956472
590.022155	2431.177101
590.374470	2431.595517
590.726731	2431.227512
591.078937	2434.290013
591.431090	2429.969744
591.783188	2430.577203
592.135232	2430.887234
592.487222	2429.453026
592.839157	2430.733479
593.191038	2430.531833
593.542866	2429.072419
593.894639	2430.937646
594.246358	2430.788932
594.598022	2429.397573
594.949633	2429.024528
595.301190	2427.363468
595.652692	2429.296750
596.004141	2428.470001
596.355535	2429.543767
596.706876	2426.445978
597.058162	2429.074940
597.409395	2426.793817
597.760573	2427.862542
598.111698	2427.582758
598.462768	2427.786925
598.813785	2428.114600
599.164748	2427.610484
599.515657	2426.317428
599.866511	2428.076791
600.217312	2427.040834
600.568060	2426.665268
600.918753	2429.737851
601.269392	2425.115113
601.619978	2426.582089
601.970510	2428.631318
602.320988	2426.607295
602.671412	2429.425300
603.021783	2428.079312
603.372100	2426.635021
603.722363	2427.330700
604.072572	2426.259455
604.422728	2427.983530
604.772830	2424.875658
605.122878	2423.859866
605.472872	2425.142840
605.822813	2422.012283
606.172701	2425.546132
606.522534	2425.173087
606.872314	2428.165011
607.222041	2427.030752
607.571714	2425.175607
607.921333	2426.856832
608.270899	2429.458067
608.620411	2429.425300
608.969870	2427.562593
609.319276	2425.594023
609.668627	2427.318097
610.017926	2425.505803
610.367171	2426.267017
610.716362	2425.089908
611.065500	2427.706266
611.414585	2425.503282
611.763616	2427.547470
612.112594	2427.943201
612.461518	2428.011256
612.810389	2427.098807
613.159207	2426.380443
613.507971	2425.732655
613.856682	2426.491348
614.205340	2424.905905
614.553945	2430.357913
614.902496	2427.469332
615.250994	2427.983530
615.599439	2429.218613
615.947830	2430.514189
616.296169	2427.144178
616.644454	2430.577203
616.992686	2427.741554
617.340864	2427.446647
617.688990	2429.700043
618.037063	2427.408838
618.385082	2429.810948
618.733048	2427.499579
619.080961	2429.763057
619.428821	2428.447316
619.776628	2428.293561
620.124382	2424.152253
620.472083	2427.683581
620.819731	2426.619898
621.167326	2425.082346
621.514868	2429.112748
621.862357	2424.389187
622.209793	2428.260793
622.557176	2425.223498
622.904506	2426.057809
623.251783	2421.881213
623.599007	2422.344999
623.946179	2423.254927
624.293297	2423.078487
624.640363	2424.578230
624.987376	2424.119485
625.334336	2424.225350
625.681243	2425.989753
626.028097	2426.156112
626.374899	2424.399269
626.721647	2426.534198
627.068343	2421.823240
627.414987	2422.886923
627.761577	2423.136460
628.108115	2423.002870
628.454600	2424.250555
628.801032	2424.379105
629.147412	2424.938673
629.493739	2423.431368
629.840014	2423.622932
630.186236	2419.413568
630.532405	2423.922880
630.878521	2421.556059
631.224585	2422.430699
631.570597	2425.082346
631.916556	2422.579413
632.262462	2421.301480
632.608316	2423.809454
632.954117	2421.203178
633.299866	2425.626790
633.645562	2425.142840
633.991206	2422.594536
634.336797	2421.316604
634.682336	2422.705442
635.027823	2420.721748
635.373257	2421.850966
635.718639	2421.246028
636.063968	2421.349371
636.409245	2421.732499
636.754470	2419.486665
637.099642	2419.287539
637.444762	2421.044382
637.789829	2419.602612
638.134845	2420.567993
638.479808	2417.192940
638.824719	2419.348033
639.169577	2421.140163
639.514383	2419.043043
639.859137	2418.543969
640.203839	2420.663774
640.548489	2418.463311
640.893086	2420.268044
641.237632	2412.381159
641.582125	2416.315779
641.926566	2415.710841
642.270955	2418.803589
642.615292	2417.155131
642.959576	2418.438105
643.303809	2417.286201
643.647990	2420.477252
643.992118	2419.887437
644.336195	2420.414237
