Dividing Wavelength (nm)	Counts (n)	Blue Motor Position (mm): 0.000000	Red Motor Position (mm): 29.000000	
326.493990	1987.038844
326.888308	1987.038844
327.282561	1987.038844
327.676750	1964.227623
328.070874	1965.056893
328.464933	1971.295321
328.858929	1983.850314
329.252859	1994.587972
329.646726	2009.547596
330.040528	2023.002436
330.434265	2041.349715
330.827938	2062.888045
331.221547	2081.961250
331.615091	2101.649477
332.008571	2120.906684
332.401986	2145.005920
332.795338	2164.638694
333.188625	2182.499502
333.581847	2202.666638
333.975006	2221.500389
334.368100	2240.545868
334.761129	2253.675553
335.154095	2270.089550
335.546996	2290.294495
335.939833	2320.024700
336.332606	2332.975424
336.725315	2343.975222
337.117960	2350.148114
337.510540	2360.553056
337.903056	2371.872967
338.295508	2375.553009
338.687896	2384.538866
339.080220	2391.694784
339.472480	2394.220402
339.864676	2399.647204
340.256807	2403.538975
340.648875	2400.678120
341.040879	2405.174829
341.432818	2409.968967
341.824694	2408.738925
342.216506	2408.678431
342.608253	2407.213976
342.999937	2408.625499
343.391557	2405.873029
343.783113	2404.249777
344.174605	2404.133831
344.566033	2403.508728
344.957397	2400.342883
345.348697	2399.133006
345.739934	2396.103273
346.131106	2393.527243
346.522215	2393.328118
346.913260	2392.145967
347.304241	2392.909702
347.695159	2389.063302
348.086012	2385.942827
348.476802	2387.021634
348.867528	2385.849566
349.258191	2383.452497
349.648789	2382.789586
350.039324	2379.568288
350.429796	2382.383773
350.820203	2379.142311
351.210548	2381.055429
351.600828	2377.657691
351.991045	2380.344626
352.381198	2378.572660
352.771288	2381.612476
353.161314	2381.889740
353.551276	2379.182640
353.941175	2379.948895
354.331010	2381.264637
354.720782	2378.008051
355.110490	2383.878475
355.500135	2378.885212
355.889717	2382.411499
356.279235	2380.952085
356.668689	2384.145656
357.058080	2382.580378
357.447408	2382.960985
357.836672	2379.107023
358.225873	2382.905532
358.615010	2377.871940
359.004084	2385.297560
359.393095	2385.622714
359.782043	2388.009700
360.170927	2386.822509
360.559748	2387.992056
360.948505	2390.174876
361.337199	2389.212016
361.725830	2393.139074
362.114398	2393.106307
362.502903	2394.069167
362.891344	2393.665875
363.279722	2396.645197
363.668037	2397.338356
364.056289	2397.678633
364.444478	2400.574776
364.832603	2398.825496
365.220665	2399.889179
365.608665	2399.062430
365.996601	2402.843296
366.384474	2402.495456
366.772284	2405.061403
367.160031	2403.695251
367.547715	2404.630385
367.935336	2405.305899
368.322893	2407.024933
368.710388	2407.677762
369.097820	2410.609193
369.485189	2408.559964
369.872495	2415.539442
370.259738	2412.504667
370.646918	2417.649164
371.034035	2417.578588
371.421090	2421.414906
371.808081	2425.440268
372.195010	2430.796494
372.581875	2433.228850
372.968678	2439.426949
373.355418	2447.071859
373.742096	2456.793724
374.128710	2471.526496
374.515262	2479.617548
374.901751	2496.288644
375.288177	2514.411592
375.674540	2532.998326
376.060841	2554.103117
376.447079	2580.034812
376.833254	2606.158071
377.219367	2631.131947
377.605417	2665.101763
377.991404	2693.430527
378.377329	2733.890827
378.763191	2764.992226
379.148991	2812.777323
379.534727	2865.243132
379.920402	2913.093764
380.306013	2960.173100
380.691563	3025.327493
381.077049	3083.429312
381.462474	3139.139103
381.847835	3212.714743
382.233134	3286.512194
382.618371	3350.529807
383.003545	3435.571552
383.388657	3514.573994
383.773706	3608.881380
384.158693	3684.453317
384.543618	3775.534364
384.928480	3854.539328
385.313280	3962.591419
385.698017	4066.119075
386.082692	4186.035522
386.467305	4250.973145
386.851856	4381.786047
387.236344	4536.831774
387.620770	4602.969192
388.005133	4721.277511
388.389435	4875.327611
388.773674	4957.281649
389.157851	5086.955249
389.541965	5223.089088
389.926018	5250.800311
390.310008	5429.088279
390.693936	5555.154933
391.077802	5675.124313
391.461606	5811.001053
391.845348	5922.720584
392.229027	6044.784563
392.612645	6269.758656
392.996200	6382.004987
393.379694	6565.182874
393.763125	6788.314426
394.146494	6884.706328
394.529801	7027.691095
394.913047	7269.971470
395.296230	7267.705471
395.679351	7320.841753
396.062410	7591.425686
396.445408	7482.493913
396.828343	7642.023747
397.211217	7785.986498
397.594028	7657.656365
397.976778	7864.958694
398.359466	8031.775516
398.742092	8005.811053
399.124656	8161.154208
399.507158	8341.995520
399.889598	8369.147175
400.271977	8577.170388
400.654294	8612.289587
401.036549	8806.081623
401.418742	8835.126231
401.800874	9139.506059
402.182944	9218.130415
402.564952	9588.251930
402.946898	9408.166791
403.328783	9477.061720
403.710606	9665.467284
404.092367	9929.830433
404.474067	10286.701275
404.855705	10075.330735
405.237282	10028.125371
405.618797	10461.087389
406.000250	10708.129134
406.381642	11083.062430
406.762972	11031.917404
407.144240	10821.993676
407.525447	11086.850858
407.906593	11016.602379
408.287677	11280.564756
408.668700	11436.270875
409.049661	11414.934191
409.430560	11577.138357
409.811399	11542.084694
410.192176	11710.860004
410.572891	11779.301229
410.953545	12264.308120
411.334138	11744.756722
411.714669	12348.908764
412.095139	11647.696867
412.475547	12150.073053
412.855894	12005.265909
413.236180	12329.212976
413.616405	12017.740244
413.996568	12293.466154
414.376670	12269.576126
414.756711	12141.709779
415.136691	12420.964497
415.516609	12604.437291
415.896466	12670.524297
416.276262	12967.294503
416.655997	13406.200043
417.035670	13444.411989
417.415283	14094.814096
417.794834	14186.923539
418.174324	13929.716308
418.553753	13832.064117
418.933121	14330.223378
419.312428	14131.571669
419.691674	14044.891550
420.070859	14502.151930
420.449983	14159.469415
420.829045	14709.479464
421.208047	14450.838025
421.586988	14910.979424
421.965867	15168.083312
422.344686	15171.128169
422.723444	15730.481997
423.102141	14413.220935
423.480777	15610.096722
423.859352	15110.377224
424.237866	16223.922738
424.616319	15917.544092
424.994712	16589.275322
425.373044	16370.511930
425.751314	17050.810600
426.129524	16169.400138
426.507673	17267.723889
426.885762	16967.056870
427.263789	17168.496337
427.641756	17329.911562
428.019662	17393.261222
428.397508	17437.946010
428.775292	17737.430878
429.153016	17697.441925
429.530679	17783.713711
429.908282	17795.328530
430.285824	17523.988424
430.663305	18226.936998
431.040726	17830.755238
431.418086	17650.980130
431.795385	18307.131674
432.172624	18725.131548
432.549802	18281.467160
432.926920	18472.297518
433.303977	18350.097428
433.680974	18608.559906
434.057910	18890.499038
434.434786	18916.791176
434.811601	18831.474688
435.188355	19880.697600
435.565050	19523.531850
435.941683	19474.935127
436.318257	20358.316680
436.694770	20178.947385
437.071222	20759.675705
437.447614	19828.483849
437.823946	19850.470842
438.200218	20009.801550
438.576429	19778.803278
438.952580	20066.544778
439.328670	20026.092039
439.704700	20441.803229
440.080670	20011.782723
440.456580	20599.046900
440.832429	20771.494690
441.208218	19764.914899
441.583947	20205.849502
441.959616	20316.931328
442.335224	20555.075435
442.710773	20680.660660
443.086261	21221.095037
443.461689	20580.566030
443.837057	20704.449865
444.212365	21351.658401
444.587612	21348.953822
444.962800	20930.472518
445.337927	21349.243689
445.712995	20076.039791
446.088002	21924.638468
446.462949	22123.333026
446.837837	22298.450108
447.212664	22248.920772
447.587431	25090.016777
447.962139	28014.929526
448.336786	30416.305846
448.711374	28866.919814
449.085901	25175.683625
449.460369	25112.858245
449.834776	25016.844429
450.209124	27505.994799
450.583412	27036.166822
450.957640	27580.203104
451.331808	26225.309829
451.705917	24856.792835
452.079965	24875.755135
452.453954	25254.988536
452.827883	25128.795853
453.201752	24927.318577
453.575562	25088.007877
453.949311	26220.162811
454.323001	26258.427689
454.696632	26026.121237
455.070202	27573.495849
455.443713	27724.929590
455.817164	28310.333580
456.190556	28835.488220
456.563888	28277.717315
456.937160	28707.319404
457.310373	27042.425414
457.683526	27496.598088
458.056619	27471.712432
458.429653	27403.603923
458.802628	27981.708322
459.175542	28099.499923
459.548398	29384.069102
459.921194	30960.042179
460.293930	31625.829888
460.666607	33632.950169
461.039224	35401.732257
461.411782	35781.936080
461.784280	34593.040439
462.156719	34108.625884
462.529099	33546.476736
462.901419	32266.167332
463.273680	31192.527592
463.645882	31262.665165
464.018024	31234.449827
464.390106	32064.516137
464.762130	34736.262141
465.134094	38768.867625
465.505999	44014.682235
465.877845	48596.100494
466.249631	49757.010170
466.621358	48042.347388
466.993026	45936.274299
467.364634	43850.963202
467.736184	41871.009700
468.107674	40600.913673
468.479105	39819.582718
468.850477	39107.562587
469.221790	37645.350708
469.593043	35915.163694
469.964238	35016.532651
470.335373	34908.432668
470.706449	36587.716632
471.077467	39086.165410
471.448425	43554.256010
471.819324	46354.193515
472.190164	44506.204817
472.560945	40958.371810
472.931667	37851.846452
473.302330	36715.116672
473.672934	35881.617336
474.043479	36318.229150
474.413965	35495.157441
474.784393	35102.501968
475.154761	35920.169560
475.525070	35917.618736
475.895321	35399.756125
476.265513	35928.767248
476.635645	36821.227919
477.005719	36578.806392
477.375734	36959.789073
477.745691	37564.898934
478.115588	38789.034761
478.485427	40609.100507
478.855207	43734.996499
479.224928	46182.625405
479.594591	47706.770380
479.964194	46642.098852
480.333739	46694.915021
480.703226	46614.377547
481.072653	47088.472861
481.442022	47434.041436
481.811333	47569.144359
482.180584	46173.710125
482.549777	45562.235807
482.918912	44913.913176
483.287988	44482.516435
483.657005	43545.600349
484.025964	42784.643217
484.394864	42669.513346
484.763706	42124.448668
485.132489	41137.937710
485.501213	40830.472696
485.869879	40821.212097
486.238487	40265.813054
486.607036	40273.823447
486.975527	39590.522770
487.343959	39598.810427
487.712333	39491.045681
488.080648	39225.041637
488.448905	39421.996997
488.817104	39060.039630
489.185244	39699.676353
489.553326	40924.800246
489.921350	43095.752986
490.289315	45566.959368
490.657222	45892.083545
491.025070	45939.419979
491.392861	44804.689016
491.760593	43375.617682
492.128267	41605.426592
492.495883	40023.205004
492.863440	38562.210564
493.230939	37155.958014
493.598380	35979.458570
493.965763	35450.918795
494.333088	34507.912995
494.700354	33854.932337
495.067563	33366.139540
495.434713	32991.365039
495.801805	32760.228136
496.168839	32216.181771
496.535815	31675.707065
496.902733	31416.785841
497.269593	30825.642497
497.636395	30486.009880
498.003139	30507.139877
498.369825	29823.536730
498.736453	29747.180893
499.103023	29111.808986
499.469535	28730.949813
499.835989	28494.035747
500.202385	27948.905534
500.568723	27681.721860
500.935003	27480.330284
501.301226	27040.557667
501.667390	27142.832596
502.033497	27002.948139
502.399546	26333.850912
502.765537	25591.667037
503.131470	25520.589288
503.497345	25418.367291
503.863163	24305.305728
504.228923	24355.543347
504.594625	24273.743064
504.960269	23549.946797
505.325856	23624.301296
505.691385	22948.542185
506.056856	22714.002502
506.422270	22624.567392
506.787625	22080.301737
507.152924	21859.935258
507.518164	21619.595728
507.883347	20878.185670
508.248472	20705.546316
508.613540	20616.315372
508.978550	20454.295208
509.343503	20008.740387
509.708398	19785.742426
510.073236	19718.417817
510.438016	19418.007897
510.802738	18854.633749
511.167403	18821.770467
511.532010	18607.619731
511.896561	18427.176670
512.261053	18465.267629
512.625488	17951.881562
512.989866	17589.914113
513.354186	17228.019761
513.718449	16920.252278
514.082655	16865.427209
514.446803	16464.325282
514.810894	16356.605907
515.174927	16048.160388
515.538904	15724.838425
515.902822	15676.322360
516.266684	15209.645105
516.630488	15063.698660
516.994235	14747.850207
517.357925	14655.080373
517.721558	14438.749338
518.085133	14264.978244
518.448651	14048.198547
518.812112	13720.213516
519.175516	13490.493176
519.538863	13338.865351
519.902152	13077.042943
520.265385	12935.920882
520.628560	12714.304198
520.991678	12413.536356
521.354739	12231.177657
521.717743	12072.366187
522.080690	11825.344608
522.443580	11724.700492
522.806413	11517.866991
523.169189	11290.324430
523.531908	11118.295055
523.894569	10879.666996
524.257174	10707.597292
524.619722	10563.730323
524.982213	10365.098779
525.344647	10151.046346
525.707025	9965.955341
526.069345	9845.887659
526.431608	9651.725098
526.793815	9528.179020
527.155964	9276.688458
527.518057	9118.623079
527.880093	8919.500023
528.242072	8837.732507
528.603995	8627.977657
528.965860	8467.293399
529.327669	8329.397677
529.689421	8164.559508
530.051117	8009.274325
530.412755	7885.244297
530.774337	7748.896209
531.135862	7579.009324
531.497331	7470.465720
531.858743	7323.758061
532.220098	7228.969245
532.581396	7073.910914
532.942638	6920.503562
533.303824	6830.831517
533.664953	6710.078238
534.026025	6573.914153
534.387040	6504.575602
534.747999	6387.341049
535.108902	6297.260671
535.469748	6156.856974
535.830537	6063.691410
536.191270	5981.951621
536.551947	5859.464185
536.912567	5788.651097
537.273131	5713.527823
537.633638	5584.670889
537.994089	5524.605541
538.354483	5414.630249
538.714821	5373.335638
539.075103	5318.011495
539.435328	5223.580601
539.795497	5139.610101
540.155609	5068.066046
540.515665	5023.875291
540.875665	4922.704375
541.235609	4870.210840
541.595496	4803.526457
541.955328	4775.706849
542.315102	4681.495246
542.674821	4612.597796
543.034483	4555.186615
543.394090	4491.400896
543.753640	4435.582720
544.113134	4426.869085
544.472571	4331.646730
544.831953	4333.022965
545.191278	4252.361983
545.550548	4193.443498
545.909761	4164.023324
546.268918	4123.116881
546.628019	4093.421964
546.987064	4031.554404
547.346053	3969.046617
547.704986	3958.916418
548.063863	3906.480856
548.422684	3876.133110
548.781449	3835.335052
549.140158	3812.276814
549.498811	3777.210548
549.857408	3727.179617
550.215949	3720.497567
550.574434	3685.673277
550.932864	3655.844769
551.291237	3642.170639
551.649555	3614.356073
552.007817	3593.757918
552.366022	3561.005542
552.724173	3542.920403
553.082267	3527.761653
553.440305	3511.113242
553.798288	3477.806339
554.156215	3462.748412
554.514086	3452.958492
554.871902	3427.861107
555.229661	3410.937954
555.587365	3388.439284
555.945014	3377.242881
556.302606	3360.044985
556.660143	3348.951926
557.017625	3340.868436
557.375050	3322.528718
557.732421	3311.521359
558.089735	3303.054741
558.446994	3288.440436
558.804197	3283.512708
559.161345	3273.435441
559.518437	3251.045157
559.875474	3242.157602
560.232455	3234.008577
560.589381	3228.654872
560.946251	3214.514435
561.303065	3211.391440
561.659825	3206.670400
562.016528	3190.921835
562.373177	3175.977335
562.729770	3172.204031
563.086307	3158.976043
563.442789	3156.586536
563.799216	3149.158396
564.155587	3142.436017
564.511904	3133.535860
564.868164	3131.058133
565.224370	3127.284830
565.580520	3118.886267
565.936615	3112.942747
566.292654	3103.258690
566.648638	3098.202413
567.004567	3094.237546
567.360441	3086.723706
567.716260	3078.448652
568.072023	3077.185843
568.427732	3070.866756
568.783385	3057.038871
569.138982	3057.815209
569.494525	3050.871020
569.850013	3044.897252
570.205445	3039.997251
570.560823	3034.714122
570.916145	3029.965355
571.271412	3022.728778
571.626625	3018.645444
571.981782	3015.008251
572.336884	3006.203876
572.691931	3003.451406
573.046923	2995.688029
573.401860	2989.752070
573.756743	2986.059425
574.111570	2983.133035
574.466342	2976.322437
574.821059	2976.138434
575.175722	2964.097638
575.530330	2958.549849
575.884882	2955.051288
576.239380	2948.951492
576.593823	2949.498457
576.948211	2942.211469
577.302544	2936.237702
577.656823	2927.602205
578.011047	2932.184614
578.365216	2924.423758
578.719330	2919.589291
579.073389	2913.759197
579.427394	2913.285328
579.781344	2907.424987
580.135239	2902.691343
580.489080	2899.505334
580.842866	2891.527708
581.196597	2892.057029
581.550273	2889.685167
581.903895	2884.424723
582.257463	2885.929507
582.610975	2878.806357
582.964434	2880.651419
583.317837	2869.170191
583.671186	2865.069212
584.024481	2867.047865
584.377721	2860.403624
584.730906	2859.055116
585.084037	2857.870445
585.437113	2851.314424
585.790135	2849.557582
586.143103	2842.487364
586.496016	2845.234792
586.848874	2835.356652
587.201679	2835.404542
587.554428	2827.936073
587.907124	2830.388594
588.259765	2820.351657
588.612352	2823.966164
588.964884	2820.034064
589.317362	2817.238745
589.669786	2813.614155
590.022155	2808.762044
590.374470	2809.762713
590.726731	2806.372537
591.078937	2798.830971
591.431090	2798.591517
591.783188	2791.077677
592.135232	2785.993673
592.487222	2785.504681
592.839157	2787.821091
593.191038	2781.824639
593.542866	2775.835748
593.894639	2769.572114
594.246358	2770.033380
594.598022	2764.619181
594.949633	2762.627925
595.301190	2757.286822
595.652692	2757.916967
596.004141	2757.990063
596.355535	2745.656881
596.706876	2746.909607
597.058162	2742.647312
597.409395	2742.390213
597.760573	2742.024729
598.111698	2734.205900
598.462768	2735.135992
598.813785	2730.641804
599.164748	2728.403532
599.515657	2727.541494
599.866511	2724.231977
600.217312	2724.839436
600.568060	2717.675956
600.918753	2719.193343
601.269392	2717.076059
601.619978	2711.208156
601.970510	2713.149000
602.320988	2711.213197
602.671412	2713.080944
603.021783	2704.732794
603.372100	2704.228678
603.722363	2702.381095
604.072572	2702.986034
604.422728	2701.753472
604.772830	2695.532688
605.122878	2691.451874
605.472872	2692.767615
605.822813	2690.279806
606.172701	2693.377595
606.522534	2692.611339
606.872314	2692.611339
607.222041	2690.552028
607.571714	2690.552028
607.921333	2685.069773
608.270899	2687.096317
608.620411	2687.406348
608.969870	2682.574402
609.319276	2682.105575
609.668627	2682.070287
610.017926	2686.390555
610.367171	2685.747808
610.716362	2683.806964
611.065500	2681.730009
611.414585	2682.077848
611.763616	2682.571881
612.112594	2680.477282
612.461518	2682.213959
612.810389	2682.211439
613.159207	2679.819411
613.507971	2677.497960
613.856682	2680.129442
614.205340	2676.484688
614.553945	2681.624144
614.902496	2676.956036
615.250994	2681.407375
615.599439	2678.722960
615.947830	2679.174144
616.296169	2676.640964
616.644454	2678.410409
616.992686	2677.568536
617.340864	2675.635254
617.688990	2676.877898
618.037063	2675.347908
618.385082	2678.659946
618.733048	2680.449556
619.080961	2675.778927
619.428821	2676.383865
619.776628	2675.468896
620.124382	2673.707012
620.472083	2675.453772
620.819731	2672.076199
621.167326	2668.950684
621.514868	2670.581497
621.862357	2667.675272
622.209793	2666.238543
622.557176	2664.353151
622.904506	2661.368788
623.251783	2653.237407
623.599007	2655.337048
623.946179	2649.108702
624.293297	2649.454021
624.640363	2650.868065
624.987376	2650.348826
625.334336	2646.716675
625.681243	2646.421767
626.028097	2644.095275
626.374899	2643.986890
626.721647	2641.975469
627.068343	2640.130407
627.414987	2640.430356
627.761577	2637.602268
628.108115	2637.372896
628.454600	2635.137144
628.801032	2633.980199
629.147412	2636.263842
629.493739	2633.770992
629.840014	2633.720580
630.186236	2633.254273
630.532405	2631.280662
630.878521	2627.424179
631.224585	2632.024232
631.570597	2627.288068
631.916556	2627.824951
632.262462	2628.984416
632.608316	2627.726648
632.954117	2627.867800
633.299866	2627.635907
633.645562	2627.835033
633.991206	2621.679784
634.336797	2618.944958
634.682336	2620.258179
635.027823	2616.386572
635.373257	2616.759618
635.718639	2615.199381
636.063968	2612.759462
636.409245	2610.947167
636.754470	2609.351642
637.099642	2609.180243
637.444762	2606.889039
637.789829	2607.027670
638.134845	2606.296703
638.479808	2601.245467
638.824719	2602.934253
639.169577	2601.230343
639.514383	2599.528954
