Dividing Wavelength (nm)	Counts (n)	Blue Motor Position (mm): 0.000000	Red Motor Position (mm): 39.000000	
326.493990	1992.667292
326.888308	1992.667292
327.282561	1992.667292
327.676750	1969.414970
328.070874	1969.717439
328.464933	1975.277832
328.858929	1986.030613
329.252859	1999.737511
329.646726	2013.192350
330.040528	2027.418486
330.434265	2049.839018
330.827938	2066.469785
331.221547	2086.994843
331.615091	2104.752307
332.008571	2128.405401
332.401986	2149.989101
332.795338	2170.733449
333.188625	2189.383198
333.581847	2208.494212
333.975006	2225.397201
334.368100	2245.818915
334.761129	2260.612181
335.154095	2274.397216
335.546996	2302.116001
335.939833	2345.217866
336.332606	2359.020545
336.725315	2372.210724
337.117960	2379.036447
337.510540	2388.528939
337.903056	2398.570918
338.295508	2404.060734
338.687896	2411.793864
339.080220	2420.547828
339.472480	2423.794331
339.864676	2425.450350
340.256807	2428.631318
340.648875	2434.106011
341.040879	2435.396547
341.432818	2435.187339
341.824694	2434.342945
342.216506	2433.473346
342.608253	2435.358738
342.999937	2434.640373
343.391557	2435.933429
343.783113	2432.749941
344.174605	2431.018304
344.566033	2428.636359
344.957397	2429.601740
345.348697	2428.719538
345.739934	2426.037644
346.131106	2423.385998
346.522215	2422.430699
346.913260	2419.627817
347.304241	2421.457756
347.695159	2420.179824
348.086012	2415.627662
348.476802	2415.423495
348.867528	2416.676222
349.258191	2412.739081
349.648789	2411.123391
350.039324	2411.927455
350.429796	2411.814029
350.820203	2409.069121
351.210548	2411.365366
351.600828	2408.421332
351.991045	2411.788823
352.381198	2409.059038
352.771288	2410.883936
353.161314	2407.239182
353.551276	2410.722619
353.941175	2410.402506
354.331010	2408.625499
354.720782	2408.174316
355.110490	2409.744635
355.500135	2412.597928
355.889717	2411.907290
356.279235	2411.342681
356.668689	2412.345871
357.058080	2410.967115
357.447408	2411.688000
357.836672	2409.530386
358.225873	2410.836045
358.615010	2414.334606
359.004084	2414.629513
359.393095	2419.075811
359.782043	2417.145049
360.170927	2417.016500
360.559748	2417.901222
360.948505	2419.816861
361.337199	2420.119330
361.725830	2421.651841
362.114398	2424.069074
362.502903	2421.177972
362.891344	2425.324321
363.279722	2427.807089
363.668037	2427.267686
364.056289	2423.892633
364.444478	2427.731472
364.832603	2430.395722
365.220665	2429.251380
365.608665	2430.433531
365.996601	2431.340938
366.384474	2433.433017
366.772284	2433.642225
367.160031	2434.433686
367.547715	2435.570466
367.935336	2434.431166
368.322893	2441.287135
368.710388	2440.253698
369.097820	2443.442228
369.485189	2439.273194
369.872495	2445.002465
370.259738	2446.058587
370.646918	2446.726540
371.034035	2446.477003
371.421090	2453.995884
371.808081	2454.787345
372.195010	2460.486369
372.581875	2465.865280
372.968678	2471.788636
373.355418	2480.008237
373.742096	2491.439054
374.128710	2503.371465
374.515262	2515.840759
374.901751	2527.682429
375.288177	2545.749925
375.674540	2564.054354
376.060841	2589.580237
376.447079	2613.281222
376.833254	2638.623102
377.219367	2663.387770
377.605417	2700.432689
377.991404	2729.222719
378.377329	2771.298710
378.763191	2806.692651
379.148991	2855.276771
379.534727	2904.347363
379.920402	2952.434929
380.306013	3004.290758
380.691563	3069.624112
381.077049	3124.207205
381.462474	3182.659384
381.847835	3258.362391
382.233134	3334.778722
382.618371	3394.511354
383.003545	3481.975373
383.388657	3568.161460
383.773706	3661.518588
384.158693	3737.309815
384.543618	3832.756502
384.928480	3913.195673
385.313280	4026.561141
385.698017	4130.721462
386.082692	4254.441459
386.467305	4317.138290
386.851856	4451.721974
387.236344	4611.171149
387.620770	4673.683978
388.005133	4797.058656
388.389435	4949.044404
388.773674	5039.250811
389.157851	5172.543959
389.541965	5309.005473
389.926018	5329.933824
390.310008	5517.419376
390.693936	5644.048120
391.077802	5763.447849
391.461606	5901.262913
391.845348	6016.115521
392.229027	6139.220498
392.612645	6368.736670
392.996200	6487.647407
393.379694	6667.417474
393.763125	6894.589510
394.146494	6997.653380
394.529801	7133.978783
394.913047	7386.570838
395.296230	7387.523616
395.679351	7445.615352
396.062410	7715.526291
396.445408	7601.790298
396.828343	7773.136597
397.211217	7906.391937
397.594028	7786.455325
397.976778	7992.278075
398.359466	8163.090012
398.742092	8129.455433
399.124656	8290.053992
399.507158	8475.520562
399.889598	8502.828493
400.271977	8716.976708
400.654294	8756.600177
401.036549	8951.050084
401.418742	8981.297007
401.800874	9289.026682
402.182944	9374.176812
402.564952	9745.178008
402.946898	9564.114886
403.328783	9628.810533
403.710606	9829.824022
404.092367	10086.746428
404.474067	10464.684253
404.855705	10253.371686
405.237282	10198.866731
405.618797	10636.816971
406.000250	10886.560774
406.381642	11264.284349
406.762972	11218.258615
407.144240	11007.172900
407.525447	11272.655185
407.906593	11212.262162
408.287677	11474.956689
408.668700	11634.385700
409.049661	11605.154570
409.430560	11767.532656
409.811399	11742.710014
410.192176	11911.581106
410.572891	11977.325314
410.953545	12486.686019
411.334138	11941.946496
411.714669	12577.028537
412.095139	11850.119358
412.475547	12371.662012
412.855894	12208.822660
413.236180	12544.281202
413.616405	12217.891696
413.996568	12516.209537
414.376670	12480.989515
414.756711	12355.066533
415.136691	12647.216522
415.516609	12834.387003
415.896466	12909.127150
416.276262	13201.045246
416.655997	13643.898008
417.035670	13667.321729
417.415283	14337.540613
417.794834	14435.442341
418.174324	14176.153113
418.553753	14076.333226
418.933121	14582.122274
419.312428	14380.700451
419.691674	14296.926557
420.070859	14759.815385
420.449983	14406.780861
420.829045	14972.118538
421.208047	14714.387027
421.586988	15179.821638
421.965867	15441.467605
422.344686	15441.172698
422.723444	16017.162333
423.102141	14666.395243
423.480777	15882.989503
423.859352	15385.624224
424.237866	16529.336002
424.616319	16222.455762
424.994712	16877.064712
425.373044	16673.747416
425.751314	17368.244496
426.129524	16464.657999
426.507673	17593.740349
426.885762	17281.700488
427.263789	17491.722519
427.641756	17660.954053
428.019662	17729.443169
428.397508	17763.133201
428.775292	18085.520030
429.153016	18033.810395
429.530679	18125.345146
429.908282	18143.682343
430.285824	17850.642590
430.663305	18577.183765
431.040726	18184.440072
431.418086	17986.700812
431.795385	18661.257608
432.172624	19090.912630
432.549802	18628.366600
432.926920	18818.859201
433.303977	18692.326239
433.680974	18954.418348
434.057910	19257.580738
434.434786	19273.294014
434.811601	19192.043217
435.188355	20249.939434
435.565050	19896.945239
435.941683	19848.630820
436.318257	20742.364383
436.694770	20548.887419
437.071222	21162.032879
437.447614	20209.786644
437.823946	20239.521890
438.200218	20395.830426
438.576429	20166.841054
438.952580	20449.974939
439.328670	20396.236239
439.704700	20816.237451
440.080670	20385.768283
440.456580	20994.563227
440.832429	21172.223571
441.208218	20131.933584
441.583947	20597.496745
441.959616	20702.340142
442.335224	20948.973553
442.710773	21078.581618
443.086261	21620.056994
443.461689	20982.076289
443.837057	21102.890062
444.212365	21754.320565
444.587612	21761.199219
444.962800	21334.435299
445.337927	21759.525556
445.712995	20460.400045
446.088002	22358.414633
446.462949	22552.078120
446.837837	22738.815061
447.212664	22693.490047
447.587431	25575.565592
447.962139	28567.427385
448.336786	30986.220891
448.711374	29411.354348
449.085901	25645.872044
449.460369	25587.790390
449.834776	25508.581260
450.209124	28039.394246
450.583412	27569.747751
450.957640	28091.807122
451.331808	26738.027942
451.705917	25328.428066
452.079965	25380.152825
452.453954	25744.666056
452.827883	25636.674459
453.201752	25420.154380
453.575562	25586.328455
453.949311	26732.074340
454.323001	26793.364688
454.696632	26544.697172
455.070202	28132.547207
455.443713	28263.556713
455.817164	28864.079124
456.190556	29411.492979
456.563888	28843.392749
456.937160	29291.332036
457.310373	27589.796420
457.683526	28045.909937
458.056619	28046.411532
458.429653	27971.888155
458.802628	28568.634741
459.175542	28687.353914
459.548398	29990.265332
459.921194	31570.959449
460.293930	32267.767899
460.666607	34315.963501
461.039224	36093.108863
461.411782	36502.183374
461.784280	35295.784847
462.156719	34804.582378
462.529099	34248.540588
462.901419	32948.542958
463.273680	31877.524618
463.645882	31953.177213
464.018024	31935.228185
464.390106	32773.846813
464.762130	35502.585581
465.134094	39600.622722
465.505999	44936.381598
465.877845	49560.931970
466.249631	50746.596231
466.621358	49073.255788
466.993026	46972.637227
467.364634	44901.264921
467.736184	42897.300403
468.107674	41623.204221
468.479105	40822.749648
468.850477	40132.499740
469.221790	38664.251080
469.593043	36902.892091
469.964238	36010.749012
470.335373	35910.561121
470.706449	37686.128602
471.077467	40288.432711
471.448425	44880.296241
471.819324	47735.280625
472.190164	45870.020935
472.560945	42289.175932
472.931667	39128.455649
473.302330	38006.113322
473.672934	37172.273708
474.043479	37706.081489
474.413965	36883.302167
474.784393	36501.706985
475.154761	37412.041067
475.525070	37433.166023
475.895321	36975.167113
476.265513	37568.566374
476.635645	38556.206550
477.005719	38388.709172
477.375734	38858.728713
477.745691	39552.089013
478.115588	40921.457961
478.485427	42902.815425
478.855207	46285.820345
479.224928	48901.569212
479.594591	50553.749412
479.964194	49564.543957
480.333739	49738.592314
480.703226	49770.195308
481.072653	50405.486556
481.442022	50884.343240
481.811333	51146.609268
482.180584	49861.021776
482.549777	49346.907263
482.918912	48790.164753
483.287988	48510.776445
483.657005	47673.365174
484.025964	47024.558592
484.394864	47053.734269
484.763706	46622.549257
485.132489	45748.882008
485.501213	45584.487460
485.869879	45726.095993
486.238487	45295.062215
486.607036	45511.211769
486.975527	44965.645497
487.343959	45154.471996
487.712333	45242.389719
488.080648	45137.868956
488.448905	45609.234485
488.817104	45409.390543
489.185244	46372.568521
489.553326	48053.062361
489.921350	50772.512803
490.289315	53622.955108
490.657222	54201.472882
491.025070	54477.438246
491.392861	53605.676553
491.760593	52381.807907
492.128267	50728.115361
492.495883	49204.744204
492.863440	47820.695416
493.230939	46447.308667
493.598380	45337.760788
493.965763	45006.383061
494.333088	44184.478379
494.700354	43695.367989
495.067563	43389.838778
495.434713	43254.483797
495.801805	43308.262826
496.168839	42932.157461
496.535815	42567.316554
496.902733	42624.178249
497.269593	42180.559231
497.636395	42111.936524
498.003139	42524.285265
498.369825	41972.992242
498.736453	42286.698205
499.103023	41803.249030
499.469535	41659.815601
499.835989	41770.809205
500.202385	41426.810949
500.568723	41442.761160
500.935003	41637.750470
501.301226	41420.166708
501.667390	42051.798080
502.033497	42309.171669
502.399546	41724.735580
502.765537	41027.501153
503.131470	41418.475401
503.497345	41780.016873
503.863163	40423.762486
504.228923	41039.917515
504.594625	41458.628192
504.960269	40749.768864
505.325856	41448.853394
505.691385	40795.020782
506.056856	40925.894177
506.422270	41370.765921
506.787625	40935.802565
507.152924	41135.805302
507.518164	41240.792372
507.883347	40431.936717
508.248472	40704.403521
508.613540	41177.190655
508.978550	41477.774494
509.343503	41219.816131
509.708398	41430.178440
510.073236	41963.078813
510.438016	41947.126082
510.802738	41398.409088
511.167403	42018.954962
511.532010	42260.940429
511.896561	42551.326014
512.261053	43424.022842
512.625488	42944.445273
512.989866	42832.072913
513.354186	42667.017974
513.718449	42649.981395
514.082655	43339.734749
514.446803	42991.151564
514.810894	43521.564128
515.174927	43445.351964
515.538904	43345.567364
515.902822	44018.258934
516.266684	43454.579796
516.630488	43900.618567
516.994235	43749.567954
517.357925	44313.688193
517.721558	44487.262682
518.085133	44788.330472
518.448651	44930.778356
518.812112	44687.888002
519.175516	44799.025280
519.538863	45117.457324
519.902152	45085.882057
520.265385	45551.470423
520.628560	45593.743019
520.991678	45380.209824
521.354739	45610.691378
521.717743	45927.996725
522.080690	45817.361042
522.443580	46365.016872
522.806413	46420.424194
523.169189	46350.057248
523.531908	46526.429577
523.894569	46383.948925
524.257174	46559.171871
524.619722	46862.233438
524.982213	46858.495422
525.344647	46770.555014
525.707025	46795.483520
526.069345	47179.299329
526.431608	47112.458671
526.793815	47423.679344
527.155964	46958.683314
527.518057	47113.116541
527.880093	46888.669248
528.242072	47403.489523
528.603995	47113.572766
528.965860	47128.078686
529.327669	47217.420535
529.689421	47107.208309
530.051117	47064.260199
530.412755	47206.163638
530.774337	47260.648429
531.135862	47050.079433
531.497331	47264.134387
531.858743	47149.697674
532.220098	47504.257148
532.581396	47206.854276
532.942638	46876.956127
533.303824	47174.873196
533.664953	47113.509751
534.026025	46846.096704
534.387040	47306.356571
534.747999	47237.761591
535.108902	47405.730316
535.469748	46918.217972
535.830537	47039.624080
536.191270	47212.074391
536.551947	46861.595732
536.912567	47174.265737
537.273131	47289.693037
537.633638	46750.992816
537.994089	47110.996736
538.354483	46698.869806
538.714821	47256.106349
539.075103	47609.135833
539.435328	47349.982716
539.795497	47221.894559
540.155609	47213.934577
540.515665	47673.483641
540.875665	47120.395967
541.235609	47440.932693
541.595496	47403.454235
541.955328	48068.538703
542.315102	47421.373017
542.674821	47196.282977
543.034483	47235.117505
543.394090	47194.581587
543.753640	47144.275913
544.113134	48142.631062
544.472571	47142.965213
544.831953	48374.566989
545.191278	47568.816684
545.550548	47274.161242
545.909761	47736.669463
546.268918	47928.613917
546.628019	48212.924911
546.987064	47761.406405
547.346053	47011.922939
547.704986	47895.627126
548.063863	47423.913758
548.422684	47608.031820
548.781449	47424.548943
549.140158	47806.229825
549.498811	47628.947567
549.857408	47025.881894
550.215949	47868.578815
550.574434	47779.718397
550.932864	47517.258283
551.291237	48217.840036
551.649555	47797.753124
552.007817	48008.364970
552.366022	47634.825553
552.724173	47776.368550
553.082267	48148.584665
553.440305	48406.142256
553.798288	47697.477013
554.156215	47960.821848
554.514086	48167.332716
554.871902	47884.902072
555.229661	47866.065800
555.587365	47654.982606
555.945014	47700.544555
556.302606	47577.061491
556.660143	47766.966798
557.017625	47831.617075
557.375050	47572.668126
557.732421	47870.270123
558.089735	47824.488884
558.446994	47694.906024
558.804197	48119.411507
559.161345	48026.407260
559.518437	47219.709219
559.875474	47471.217425
560.232455	47576.958148
560.589381	47711.773725
560.946251	47378.195534
561.303065	47994.395933
561.659825	47748.838809
562.016528	47367.447794
562.373177	47036.380097
562.729770	47449.875700
563.086307	46899.076711
563.442789	47291.424673
563.799216	47289.372924
564.155587	47017.248918
564.511904	46963.303531
564.868164	46987.473343
565.224370	47154.527099
565.580520	46812.124368
565.936615	46952.102087
566.292654	46613.654142
566.648638	46755.015657
567.004567	46652.788619
567.360441	46603.216432
567.716260	46390.454534
568.072023	46578.688698
568.427732	46470.175341
568.783385	45953.825076
569.138982	46246.446413
569.494525	46123.984183
569.850013	45804.674978
570.205445	45681.035639
570.560823	45545.415997
570.916145	45348.931985
571.271412	45263.943173
571.626625	44928.620742
571.981782	44877.125356
572.336884	44502.224826
572.691931	44692.964444
573.046923	44206.409919
573.401860	43973.415350
573.756743	43845.347357
574.111570	43838.748486
574.466342	43597.846867
574.821059	43582.806585
575.175722	43022.585679
575.530330	42927.678396
575.884882	42552.510685
576.239380	42407.401072
576.593823	42274.007100
576.948211	42091.366096
577.302544	41517.743282
577.656823	41422.669641
578.011047	41493.414674
578.365216	41123.943467
578.719330	40822.963898
579.073389	40562.638713
579.427394	40495.977015
579.781344	40352.823369
580.135239	39915.962018
580.489080	39862.417403
580.842866	39262.058829
581.196597	39521.151452
581.550273	39319.923714
581.903895	39068.423069
582.257463	39292.711565
582.610975	38597.143240
582.964434	38700.731390
583.317837	38242.699713
583.671186	37964.884245
584.024481	38021.564458
584.377721	37478.044895
584.730906	37592.358099
585.084037	37465.709191
585.437113	37083.859431
585.790135	36975.114181
586.143103	36486.999419
586.496016	36442.859076
586.848874	36312.472152
587.201679	36190.947577
587.554428	35601.689624
587.907124	35589.419456
588.259765	35222.650308
588.612352	35281.977127
588.964884	34643.920805
589.317362	34711.777257
589.669786	34519.008575
590.022155	34180.747152
590.374470	34371.489290
590.726731	33842.445399
591.078937	33291.275885
591.431090	33219.986408
591.783188	32821.175686
592.135232	32406.031625
592.487222	32436.785184
592.839157	32365.581407
593.191038	31961.190128
593.542866	31620.435854
593.894639	31001.795536
594.246358	31052.058361
594.598022	30893.337632
594.949633	30446.749374
595.301190	30262.643915
595.652692	29999.442752
596.004141	30058.653625
596.355535	29205.367760
596.706876	29016.745427
597.058162	28755.681714
597.409395	28935.824826
597.760573	28834.031327
598.111698	28371.815492
598.462768	28218.801350
598.813785	28100.480428
599.164748	27548.143886
599.515657	27665.118820
599.866511	27142.502401
600.217312	27398.018324
600.568060	26544.714816
600.918753	26888.173668
601.269392	26699.982354
601.619978	26320.945558
601.970510	26301.322867
602.320988	26254.735044
602.671412	26281.853931
603.021783	25968.389943
603.372100	25584.458187
603.722363	25498.304868
604.072572	25381.019903
604.422728	25240.669139
604.772830	24955.889317
605.122878	24861.360121
605.472872	24672.896584
605.822813	24664.639174
606.172701	24415.114662
606.522534	24391.358224
606.872314	24392.416866
607.222041	24079.144443
607.571714	24148.092304
607.921333	23658.598786
608.270899	23668.088758
608.620411	23705.524367
608.969870	23424.485081
609.319276	23263.949537
609.668627	23131.959526
610.017926	23234.423499
610.367171	23177.529036
610.716362	23056.024626
611.065500	22845.621988
611.414585	22790.917907
611.763616	22779.729066
612.112594	22576.346234
612.461518	22537.715872
612.810389	22529.609697
613.159207	22283.319085
613.507971	22165.487155
613.856682	22243.640163
614.205340	22031.647041
614.553945	22215.639074
614.902496	21767.019231
615.250994	21844.468998
615.599439	21712.635264
615.947830	21648.836941
616.296169	21511.838544
616.644454	21399.030124
616.992686	21326.369453
617.340864	21411.224675
617.688990	21117.736260
618.037063	21229.060060
618.385082	21044.876463
618.733048	21034.373219
619.080961	20872.206862
619.428821	20727.676981
619.776628	20615.528952
620.124382	20388.649303
620.472083	20297.986671
620.819731	20202.978565
621.167326	19913.656664
621.514868	19766.646535
621.862357	19436.750907
622.209793	19295.165060
622.557176	19016.699283
622.904506	18760.366693
623.251783	18492.744438
623.599007	18251.873066
623.946179	18022.114918
624.293297	17865.365280
624.640363	17493.277715
624.987376	17348.100046
625.334336	17101.864886
625.681243	16843.846029
626.028097	16692.840786
626.374899	16504.251221
626.721647	16360.464910
627.068343	16191.475351
627.414987	15978.663042
627.761577	15785.526355
628.108115	15773.293996
628.454600	15455.383711
628.801032	15397.861625
629.147412	15266.053096
629.493739	15151.845755
629.840014	14909.890535
630.186236	14900.435851
630.532405	14664.925746
630.878521	14628.344613
631.224585	14473.069513
631.570597	14277.409730
631.916556	14213.036716
632.262462	14091.726389
632.608316	13985.600019
632.954117	13848.289070
633.299866	13742.800405
633.645562	13613.666208
633.991206	13369.376934
634.336797	13137.433446
634.682336	13030.442517
635.027823	12849.495341
