Dividing Wavelength (nm)	Counts (n)	Blue Motor Position (mm): 47.000000	Red Motor Position (mm): 0.000000	
326.493990	1974.809005
326.888308	1974.809005
327.282561	1974.809005
327.676750	1950.069542
328.070874	1953.522733
328.464933	1958.647066
328.858929	1967.055710
329.252859	1979.797227
329.646726	1993.541932
330.040528	2007.687410
330.434265	2028.066275
330.827938	2047.232742
331.221547	2066.873077
331.615091	2087.647672
332.008571	2110.189191
332.401986	2128.670061
332.795338	2150.377270
333.188625	2172.812925
333.581847	2189.567200
333.975006	2206.616382
334.368100	2223.317725
334.761129	2239.986300
335.154095	2257.768970
335.546996	2300.689354
335.939833	2385.176572
336.332606	2396.703170
336.725315	2411.617424
337.117960	2419.259813
337.510540	2428.205341
337.903056	2439.459717
338.295508	2442.081117
338.687896	2449.073197
339.080220	2459.180710
339.472480	2462.797738
339.864676	2467.516258
340.256807	2470.951805
340.648875	2467.375106
341.040879	2473.767289
341.432818	2472.214614
341.824694	2475.163689
342.216506	2472.801908
342.608253	2477.873309
342.999937	2475.612351
343.391557	2473.041363
343.783113	2470.170426
344.174605	2468.612709
344.566033	2469.570528
344.957397	2464.055506
345.348697	2468.544654
345.739934	2463.284210
346.131106	2461.474435
346.522215	2462.563325
346.913260	2458.938735
347.304241	2461.698767
347.695159	2458.434620
348.086012	2454.207612
348.476802	2451.273661
348.867528	2452.082766
349.258191	2452.707869
349.648789	2449.511777
350.039324	2447.835594
350.429796	2448.357353
350.820203	2446.419029
351.210548	2447.180244
351.600828	2446.658484
351.991045	2447.195367
352.381198	2445.544389
352.771288	2446.217383
353.161314	2442.411312
353.551276	2445.322578
353.941175	2442.602876
354.331010	2448.453135
354.720782	2450.756942
355.110490	2449.589915
355.500135	2446.058587
355.889717	2445.304934
356.279235	2447.495316
356.668689	2448.395162
357.058080	2447.949020
357.447408	2448.120419
357.836672	2446.771910
358.225873	2447.391972
358.615010	2449.423557
359.004084	2451.054370
359.393095	2451.823146
359.782043	2450.015893
360.170927	2453.706017
360.559748	2454.532767
360.948505	2456.415637
361.337199	2456.304732
361.725830	2455.732561
362.114398	2459.024435
362.502903	2460.350258
362.891344	2463.533747
363.279722	2459.170628
363.668037	2462.437296
364.056289	2460.909826
364.444478	2463.034673
364.832603	2465.847636
365.220665	2464.320167
365.608665	2463.715228
365.996601	2467.543985
366.384474	2469.555405
366.772284	2468.811835
367.160031	2469.820066
367.547715	2472.723770
367.935336	2468.527010
368.322893	2470.722432
368.710388	2472.917855
369.097820	2474.014306
369.485189	2473.041363
369.872495	2477.916159
370.259738	2472.847278
370.646918	2478.460603
371.034035	2476.907928
371.421090	2479.559575
371.808081	2478.069914
372.195010	2480.872795
372.581875	2482.463279
372.968678	2481.596201
373.355418	2486.249186
373.742096	2486.102992
374.128710	2488.802530
374.515262	2491.164311
374.901751	2493.014414
375.288177	2493.939466
375.674540	2496.669251
376.060841	2499.744355
376.447079	2501.176043
376.833254	2509.289780
377.219367	2509.947650
377.605417	2521.658251
377.991404	2525.502130
378.377329	2541.767413
378.763191	2549.697148
379.148991	2566.234653
379.534727	2586.873137
379.920402	2606.430294
380.306013	2627.078860
380.691563	2655.490803
381.077049	2679.277487
381.462474	2709.683207
381.847835	2746.191243
382.233134	2786.245731
382.618371	2819.620690
383.003545	2867.317567
383.388657	2917.527459
383.773706	2977.179433
384.158693	3023.094262
384.543618	3082.413519
384.928480	3143.933240
385.313280	3216.561144
385.698017	3289.569654
386.082692	3375.178529
386.467305	3435.183383
386.851856	3531.419010
387.236344	3643.534272
387.620770	3707.143551
388.005133	3808.538799
388.389435	3927.855348
388.773674	4011.929192
389.157851	4128.354640
389.541965	4247.497270
389.926018	4298.803613
390.310008	4450.154175
390.693936	4571.484666
391.077802	4692.179971
391.461606	4820.666380
391.845348	4941.707004
392.229027	5070.334565
392.612645	5271.690853
392.996200	5401.828239
393.379694	5577.746864
393.763125	5789.767713
394.146494	5909.553090
394.529801	6062.584877
394.913047	6303.521784
395.296230	6353.668662
395.679351	6444.399348
396.062410	6706.554472
396.445408	6666.353791
396.828343	6844.445153
397.211217	7002.134966
397.594028	6953.853315
397.976778	7170.973291
398.359466	7359.376333
398.742092	7385.040848
399.124656	7563.638846
399.507158	7774.356556
399.889598	7830.089033
400.271977	8065.952018
400.654294	8136.802915
401.036549	8356.607305
401.418742	8415.092251
401.800874	8734.237619
402.182944	8845.241306
402.564952	9226.269358
402.946898	9091.756250
403.328783	9172.384464
403.710606	9383.124860
404.092367	9668.865021
404.474067	10036.087873
404.855705	9857.807468
405.237282	9830.794445
405.618797	10269.800807
406.000250	10526.713130
406.381642	10907.612632
406.762972	10868.021931
407.144240	10688.463592
407.525447	10955.813625
407.906593	10903.665409
408.287677	11168.036120
408.668700	11327.883546
409.049661	11301.291460
409.430560	11471.044754
409.811399	11445.309663
410.192176	11615.930036
410.572891	11699.247706
410.953545	12179.563803
411.334138	11665.335864
411.714669	12261.923654
412.095139	11585.710839
412.475547	12082.009915
412.855894	11926.293714
413.236180	12256.055751
413.616405	11944.945983
413.996568	12229.314951
414.376670	12201.381917
414.756711	12080.663927
415.136691	12357.347656
415.516609	12534.637475
415.896466	12601.233638
416.276262	12890.081671
416.655997	13338.189836
417.035670	13369.646636
417.415283	14016.519936
417.794834	14112.639616
418.174324	13859.838354
418.553753	13762.859157
418.933121	14253.136574
419.312428	14057.398652
419.691674	13971.777175
420.070859	14425.677626
420.449983	14083.017796
420.829045	14626.118944
421.208047	14382.452252
421.586988	14831.137630
421.965867	15077.355145
422.344686	15076.077213
422.723444	15639.874818
423.102141	14327.533922
423.480777	15520.601118
423.859352	15030.089287
424.237866	16131.601567
424.616319	15831.209292
424.994712	16483.602655
425.373044	16271.337310
425.751314	16954.879963
426.129524	16076.675675
426.507673	17152.657032
426.885762	16870.397787
427.263789	17060.419040
427.641756	17232.773569
428.019662	17285.640149
428.397508	17326.473496
428.775292	17618.817569
429.153016	17593.142972
429.530679	17660.591090
429.908282	17697.749435
430.285824	17406.133809
430.663305	18106.304707
431.040726	17702.455352
431.418086	17537.060136
431.795385	18179.565276
432.172624	18600.161344
432.549802	18149.832550
432.926920	18349.051389
433.303977	18241.326972
433.680974	18490.982555
434.057910	18769.483619
434.434786	18803.750863
434.811601	18718.207523
435.188355	19739.991434
435.565050	19400.076513
435.941683	19345.253965
436.318257	20224.511854
436.694770	20035.231651
437.071222	20622.793255
437.447614	19702.928871
437.823946	19733.329550
438.200218	19876.526045
438.576429	19652.824843
438.952580	19928.311298
439.328670	19891.941894
439.704700	20304.696447
440.080670	19873.697958
440.456580	20464.722835
440.832429	20627.630242
441.208218	19639.561567
441.583947	20071.283462
441.959616	20190.542039
442.335224	20422.672050
442.710773	20553.048891
443.086261	21079.741083
443.461689	20443.960843
443.837057	20581.435629
444.212365	21214.957433
444.587612	21212.454500
444.962800	20803.858898
445.337927	21207.776309
445.712995	19952.972623
446.088002	21787.314917
446.462949	21974.112352
446.837837	22155.064569
447.212664	22112.320626
447.587431	24894.397322
447.962139	27800.914902
448.336786	30201.877847
448.711374	28695.018989
449.085901	25012.791341
449.460369	24956.726148
449.834776	24856.243349
450.209124	27321.712899
450.583412	26875.966514
450.957640	27414.271004
451.331808	26063.239253
451.705917	24703.120822
452.079965	24729.072682
452.453954	25087.168525
452.827883	24972.741894
453.201752	24776.537666
453.575562	24938.756956
453.949311	26047.011779
454.323001	26101.110921
454.696632	25864.078388
455.070202	27400.990085
455.443713	27553.411892
455.817164	28134.987126
456.190556	28661.979267
456.563888	28113.600031
456.937160	28568.425533
457.310373	26890.918577
457.683526	27341.345673
458.056619	27305.971896
458.429653	27245.588956
458.802628	27828.084200
459.175542	27925.330578
459.548398	29223.830986
459.921194	30776.524015
460.293930	31451.358074
460.666607	33481.798733
461.039224	35232.926700
461.411782	35635.989635
461.784280	34453.468533
462.156719	33967.828978
462.529099	33411.285593
462.901419	32100.174739
463.273680	31038.076720
463.645882	31132.114404
464.018024	31100.929827
464.390106	31909.868661
464.762130	34585.945015
465.134094	38601.869322
465.505999	43880.645516
465.877845	48472.866968
466.249631	49690.741682
466.621358	47984.348913
466.993026	45867.049175
467.364634	43789.476249
467.736184	41829.556292
468.107674	40574.503068
468.479105	39796.070777
468.850477	39104.308522
469.221790	37684.049126
469.593043	35957.668183
469.964238	35069.938634
470.335373	34971.507585
470.706449	36665.443662
471.077467	39162.770784
471.448425	43738.144700
471.819324	46600.239631
472.190164	44812.452393
472.560945	41254.035483
472.931667	38171.521141
473.302330	37061.998468
473.672934	36233.719247
474.043479	36730.421615
474.413965	35953.340352
474.784393	35573.731385
475.154761	36450.229243
475.525070	36493.053845
475.895321	36029.350870
476.265513	36632.759341
476.635645	37586.969106
477.005719	37394.462564
477.375734	37873.289000
477.745691	38560.811644
478.115588	39877.830730
478.485427	41830.015037
478.855207	45154.192212
479.224928	47770.644320
479.594591	49430.111507
479.964194	48434.344991
480.333739	48576.402186
480.703226	48596.597048
481.072653	49229.786136
481.442022	49730.884390
481.811333	49991.476756
482.180584	48724.899455
482.549777	48184.989357
482.918912	47656.063934
483.287988	47368.652630
483.657005	46546.715180
484.025964	45921.186126
484.394864	45919.885508
484.763706	45501.252969
485.132489	44615.398730
485.501213	44441.877174
485.869879	44599.745948
486.238487	44194.611098
486.607036	44395.188527
486.975527	43852.699880
487.343959	44069.237602
487.712333	44145.921114
488.080648	44046.698603
488.448905	44509.718502
488.817104	44309.625023
489.185244	45253.901194
489.553326	46910.182372
489.921350	49631.417383
490.289315	52520.752190
490.657222	53144.877283
491.025070	53445.377943
491.392861	52548.165984
491.760593	51315.523210
492.128267	49627.366816
492.495883	48117.364799
492.863440	46714.071406
493.230939	45353.317789
493.598380	44276.824756
493.965763	43956.172083
494.333088	43138.587670
494.700354	42658.100173
495.067563	42352.213040
495.434713	42231.852972
495.801805	42311.767863
496.168839	41929.373658
496.535815	41603.901643
496.902733	41635.199646
497.269593	41227.118242
497.636395	41171.564727
498.003139	41560.419170
498.369825	41032.333099
498.736453	41335.130005
499.103023	40864.989477
499.469535	40737.135733
499.835989	40836.380928
500.202385	40499.296615
500.568723	40514.452844
500.935003	40713.908616
501.301226	40500.047747
501.667390	41109.866045
502.033497	41378.516695
502.399546	40821.257467
502.765537	40135.882355
503.131470	40511.927226
503.497345	40876.359799
503.863163	39547.599865
504.228923	40159.447228
504.594625	40555.029091
504.960269	39855.372390
505.325856	40552.052290
505.691385	39921.741701
506.056856	40060.653216
506.422270	40487.573412
506.787625	40053.787164
507.152924	40259.156210
507.518164	40369.733920
507.883347	39579.573384
508.248472	39827.633441
508.613540	40298.222632
508.978550	40599.524836
509.343503	40354.527279
509.708398	40559.084699
510.073236	41088.758734
510.438016	41077.174163
510.802738	40539.519981
511.167403	41165.114571
511.532010	41404.874368
511.896561	41696.250540
512.261053	42539.985939
512.625488	42088.555653
512.989866	41970.252375
513.354186	41804.640389
513.718449	41802.303814
514.082655	42472.845331
514.446803	42139.163796
514.810894	42679.187320
515.174927	42610.320117
515.538904	42509.275229
515.902822	43187.869990
516.266684	42621.171201
516.630488	43049.021489
516.994235	42885.856983
517.357925	43466.862567
517.721558	43648.092048
518.085133	43948.421309
518.448651	44096.316160
518.812112	43858.119120
519.175516	43958.112927
519.538863	44293.619360
519.902152	44278.029591
520.265385	44738.352473
520.628560	44765.521771
520.991678	44567.147326
521.354739	44814.882229
521.717743	45120.298014
522.080690	45027.414755
522.443580	45567.022383
522.806413	45623.889119
523.169189	45565.515078
523.531908	45753.461896
523.894569	45602.776767
524.257174	45765.573268
524.619722	46073.141626
524.982213	46047.288069
525.344647	45972.754609
525.707025	46025.351488
526.069345	46412.890190
526.431608	46345.636156
526.793815	46653.532189
527.155964	46195.941613
527.518057	46366.418313
527.880093	46150.611558
528.242072	46668.043150
528.603995	46369.455608
528.965860	46382.388688
529.327669	46463.291646
529.689421	46366.158693
530.051117	46316.689851
530.412755	46468.287429
530.774337	46531.589198
531.135862	46341.247832
531.497331	46547.098308
531.858743	46451.807897
532.220098	46801.185065
532.581396	46502.158942
532.942638	46173.407656
533.303824	46454.273022
533.664953	46421.767662
534.026025	46150.026784
534.387040	46613.621374
534.747999	46572.087308
535.108902	46734.805671
535.469748	46268.181348
535.830537	46368.649023
536.191270	46562.095741
536.551947	46223.632671
536.912567	46532.204219
537.273131	46661.661050
537.633638	46133.842160
537.994089	46465.784496
538.354483	46069.133909
538.714821	46651.311561
539.075103	46982.220461
539.435328	46762.204342
539.795497	46637.791186
540.155609	46630.257182
540.515665	47082.504134
540.875665	46546.367341
541.235609	46873.409676
541.595496	46831.739498
541.955328	47503.891664
542.315102	46892.336688
542.674821	46668.050712
543.034483	46699.368880
543.394090	46671.340065
543.753640	46635.363871
544.113134	47644.534815
544.472571	46662.195412
544.831953	47885.799397
545.191278	47110.351468
545.550548	46824.452510
545.909761	47291.152451
546.268918	47492.912031
546.628019	47793.279100
546.987064	47346.209413
547.346053	46631.335989
547.704986	47490.628388
548.063863	47065.482678
548.422684	47263.171527
548.781449	47120.882439
549.140158	47495.692227
549.498811	47349.503807
549.857408	46784.617312
550.215949	47634.434863
550.574434	47558.439469
550.932864	47318.745207
551.291237	48035.972849
551.649555	47642.346954
552.007817	47889.741579
552.366022	47530.272022
552.724173	47692.387968
553.082267	48118.622567
553.440305	48420.507024
553.798288	47716.605671
554.156215	48040.434271
554.514086	48239.877440
554.871902	47981.019231
555.229661	47994.398454
555.587365	47816.256680
555.945014	47916.500024
556.302606	47842.342130
556.660143	48054.660407
557.017625	48151.213626
557.375050	47930.123742
557.732421	48292.091191
558.089735	48272.909601
558.446994	48196.309268
558.804197	48669.913069
559.161345	48603.170713
559.518437	47833.071448
559.875474	48152.743617
560.232455	48316.397114
560.589381	48490.992437
560.946251	48185.120427
561.303065	48872.814470
561.659825	48672.642854
562.016528	48352.307774
562.373177	48060.606448
562.729770	48540.347853
563.086307	48049.319304
563.442789	48527.888642
563.799216	48568.011185
564.155587	48374.362822
564.511904	48381.054954
564.868164	48469.880084
565.224370	48732.289786
565.580520	48451.646231
565.936615	48673.981280
566.292654	48387.578207
566.648638	48627.869846
567.004567	48588.193445
567.360441	48615.675295
567.716260	48458.789546
568.072023	48775.615983
568.427732	48760.908417
568.783385	48308.366556
569.138982	48697.233602
569.494525	48675.730561
569.850013	48434.012275
570.205445	48398.033560
570.560823	48372.850476
570.916145	48228.991068
571.271412	48261.408208
571.626625	48019.014408
571.981782	48068.465607
572.336884	47751.503058
572.691931	48069.756142
573.046923	47687.908903
573.401860	47534.420892
573.756743	47520.935805
574.111570	47641.230339
574.466342	47488.732914
574.821059	47620.627143
575.175722	47131.652864
575.530330	47140.716858
575.884882	46876.361271
576.239380	46837.035230
576.593823	46830.489292
576.948211	46733.520177
577.302544	46258.734226
577.656823	46287.340253
578.011047	46502.584919
578.365216	46227.438743
578.719330	46020.706064
579.073389	45880.307409
579.427394	45957.691641
579.781344	45916.321412
580.135239	45578.324650
580.489080	45683.533531
580.842866	45140.669317
581.196597	45614.910824
581.550273	45545.529423
581.903895	45419.709785
582.257463	45839.070771
582.610975	45225.191823
582.964434	45500.428741
583.317837	45143.628474
583.671186	44988.164331
584.024481	45203.504779
584.377721	44722.908898
584.730906	45036.236774
585.084037	45054.218570
585.437113	44766.111586
585.790135	44808.835365
586.143103	44408.976083
586.496016	44539.443665
586.848874	44566.277727
587.201679	44574.840127
587.554428	44043.177357
587.907124	44240.397378
588.259765	43997.174308
588.612352	44247.331485
588.964884	43634.556550
589.317362	43931.782981
589.669786	43878.624013
590.022155	43637.346828
590.374470	44064.002364
590.726731	43579.141666
591.078937	43113.344092
591.431090	43200.876167
591.783188	42852.479504
592.135232	42525.893393
592.487222	42776.882361
592.839157	42858.077705
593.191038	42549.581775
593.542866	42308.291987
593.894639	41703.953423
594.246358	41981.158911
594.598022	41960.923720
594.949633	41558.233830
595.301190	41513.922088
595.652692	41341.565038
596.004141	41665.524707
596.355535	40700.796575
596.706876	40663.928097
597.058162	40471.968520
597.409395	40939.873296
597.760573	41038.246372
598.111698	40598.171286
598.462768	40613.463626
598.813785	40660.898363
599.164748	40087.008368
599.515657	40485.047793
599.866511	39965.466149
600.217312	40586.841292
600.568060	39541.558042
600.918753	40287.747114
601.269392	40246.666752
601.619978	39887.900435
601.970510	40116.541968
602.320988	40293.133587
602.671412	40593.538465
603.021783	40345.364982
603.372100	39995.352629
603.722363	40095.336354
604.072572	40169.222026
604.422728	40190.331857
604.772830	39983.601700
605.122878	40082.405795
605.472872	40025.523935
605.822813	40312.829375
606.172701	40121.903235
606.522534	40374.649045
606.872314	40622.777158
607.222041	40383.869315
607.571714	40772.060847
607.921333	40216.558460
608.270899	40508.451350
608.620411	40845.157577
608.969870	40657.205718
609.319276	40639.569241
609.668627	40682.638339
610.017926	41170.803513
610.367171	41324.220948
610.716362	41423.196442
611.065500	41376.217929
611.414585	41555.481360
611.763616	41841.763446
612.112594	41770.504216
612.461518	41989.174346
612.810389	42273.823098
613.159207	42142.521205
613.507971	42214.874365
613.856682	42704.456103
614.205340	42566.404105
614.553945	43280.586891
614.902496	42724.371182
615.250994	43204.999831
615.599439	43270.822176
615.947830	43481.181965
616.296169	43526.547308
616.644454	43645.508457
616.992686	43804.876974
617.340864	44331.606974
617.688990	44052.536259
618.037063	44642.938554
618.385082	44615.852434
618.733048	44922.087407
619.080961	44944.691941
619.428821	44944.578515
619.776628	45067.015539
620.124382	44884.329164
620.472083	45021.251944
620.819731	45145.660059
621.167326	44814.045397
621.514868	44800.378829
621.862357	44362.791552
622.209793	44385.204522
622.557176	44062.096808
622.904506	43825.782639
623.251783	43469.864574
623.599007	43252.043878
623.946179	43023.755226
624.293297	42983.380625
624.640363	42372.755742
624.987376	42362.108825
625.334336	42119.011784
625.681243	41769.911880
626.028097	41710.713610
626.374899	41573.591705
626.721647	41524.695033
627.068343	41415.808631
627.414987	41194.196987
627.761577	40944.483432
628.108115	41291.468571
628.454600	40738.035579
628.801032	40925.695051
629.147412	40869.783614
629.493739	40888.665256
629.840014	40528.013548
630.186236	40846.891734
630.532405	40469.410134
630.878521	40684.231344
631.224585	40550.245036
631.570597	40264.855235
631.916556	40424.430439
632.262462	40368.168642
632.608316	40392.451880
632.954117	40286.121342
633.299866	40286.096136
633.645562	40208.991688
633.991206	39713.864681
634.336797	39271.808421
634.682336	39278.661869
635.027823	39019.299545
