Dividing Wavelength (nm)	Counts (n)	Blue Motor Position (mm): 22.800000	Red Motor Position (mm): 0.000000	
326.493990	1974.352780
326.888308	1974.352780
327.282561	1974.352780
327.676750	1948.347988
328.070874	1949.068873
328.464933	1958.498352
328.858929	1966.191152
329.252859	1977.120374
329.646726	1993.385657
330.040528	2007.984838
330.434265	2029.490401
330.827938	2044.513039
331.221547	2067.790567
331.615091	2087.219174
332.008571	2106.761207
332.401986	2128.047479
332.795338	2146.891312
333.188625	2166.539209
333.581847	2187.732220
333.975006	2204.937678
334.368100	2223.191696
334.761129	2240.223234
335.154095	2256.329721
335.546996	2290.904474
335.939833	2356.419310
336.332606	2369.738038
336.725315	2385.403424
337.117960	2390.880638
337.510540	2399.314488
337.903056	2409.583318
338.295508	2414.745460
338.687896	2424.595874
339.080220	2430.070568
339.472480	2437.115580
339.864676	2439.457196
340.256807	2443.706889
340.648875	2446.638320
341.040879	2447.213011
341.432818	2447.349122
341.824694	2448.261571
342.216506	2448.773248
342.608253	2445.486416
342.999937	2447.868361
343.391557	2446.998762
343.783113	2445.183947
344.174605	2440.835952
344.566033	2444.442897
344.957397	2437.975097
345.348697	2437.314706
345.739934	2436.429983
346.131106	2434.025353
346.522215	2431.789601
346.913260	2429.200968
347.304241	2432.754982
347.695159	2427.945721
348.086012	2426.012439
348.476802	2422.954979
348.867528	2422.914650
349.258191	2422.788621
349.648789	2420.245359
350.039324	2420.391552
350.429796	2420.953641
350.820203	2416.832498
351.210548	2415.763773
351.600828	2417.273598
351.991045	2414.541293
352.381198	2417.878537
352.771288	2417.001376
353.161314	2414.884092
353.551276	2415.569688
353.941175	2410.334450
354.331010	2412.542476
354.720782	2417.855852
355.110490	2418.816192
355.500135	2414.294277
355.889717	2414.919380
356.279235	2414.039698
356.668689	2417.457601
357.058080	2417.545821
357.447408	2413.633885
357.836672	2416.015831
358.225873	2416.393917
358.615010	2413.117167
359.004084	2417.883578
359.393095	2418.422982
359.782043	2418.317117
360.170927	2420.751995
360.559748	2421.697211
360.948505	2423.915319
361.337199	2423.534712
361.725830	2423.650658
362.114398	2423.514547
362.502903	2425.583941
362.891344	2422.186203
363.279722	2424.333734
363.668037	2427.499579
364.056289	2423.280133
364.444478	2426.844229
364.832603	2427.136616
365.220665	2428.306164
365.608665	2427.426482
365.996601	2428.769950
366.384474	2430.526792
366.772284	2428.291040
367.160031	2430.100814
367.547715	2429.364806
367.935336	2426.798859
368.322893	2431.003181
368.710388	2428.858170
369.097820	2431.845054
369.485189	2430.196596
369.872495	2430.733479
370.259738	2432.409663
370.646918	2430.635177
371.034035	2431.487132
371.421090	2432.157605
371.808081	2432.419745
372.195010	2433.692637
372.581875	2433.727925
372.968678	2432.402101
373.355418	2433.853953
373.742096	2436.288831
374.128710	2435.676331
374.515262	2437.942329
374.901751	2435.454520
375.288177	2433.518717
375.674540	2437.972576
376.060841	2436.689603
376.447079	2437.841506
376.833254	2438.184305
377.219367	2431.366144
377.605417	2435.280600
377.991404	2431.449323
378.377329	2436.152720
378.763191	2434.448810
379.148991	2439.656322
379.534727	2437.133224
379.920402	2437.720518
380.306013	2439.999120
380.691563	2437.576846
381.077049	2439.316044
381.462474	2439.356373
381.847835	2438.864860
382.233134	2440.926692
382.618371	2439.845365
383.003545	2444.203442
383.388657	2442.486929
383.773706	2443.396858
384.158693	2440.311672
384.543618	2444.384924
384.928480	2444.024481
385.313280	2444.077413
385.698017	2445.514142
386.082692	2444.773093
386.467305	2442.499532
386.851856	2441.897114
387.236344	2442.030705
387.620770	2445.070521
388.005133	2446.540017
388.389435	2444.757969
388.773674	2446.638320
389.157851	2447.283587
389.541965	2448.763166
389.926018	2447.734771
390.310008	2447.628906
390.693936	2450.255348
391.077802	2448.070007
391.461606	2450.459514
391.845348	2446.071190
392.229027	2447.739812
392.612645	2448.730398
392.996200	2449.907508
393.379694	2450.804833
393.763125	2451.931531
394.146494	2450.323403
394.529801	2451.122426
394.913047	2452.223918
395.296230	2451.929011
395.679351	2452.637293
396.062410	2453.010338
396.445408	2452.506223
396.828343	2452.228959
397.211217	2448.039760
397.594028	2451.031685
397.976778	2450.593105
398.359466	2453.643003
398.742092	2450.300718
399.124656	2458.348920
399.507158	2453.511933
399.889598	2456.380349
400.271977	2455.929166
400.654294	2455.452777
401.036549	2455.228446
401.418742	2455.455298
401.800874	2457.481842
402.182944	2454.341203
402.564952	2454.137036
402.946898	2458.555607
403.328783	2461.242542
403.710606	2458.381688
404.092367	2456.829012
404.474067	2457.401183
404.855705	2460.897223
405.237282	2459.321863
405.618797	2459.770525
406.000250	2458.467387
406.381642	2457.600309
406.762972	2461.250104
407.144240	2459.740278
407.525447	2463.004426
407.906593	2458.989147
408.287677	2460.708180
408.668700	2463.299333
409.049661	2462.220526
409.430560	2463.251442
409.811399	2460.214147
410.192176	2462.853191
410.572891	2462.795218
410.953545	2465.998871
411.334138	2462.654065
411.714669	2467.740590
412.095139	2465.386371
412.475547	2466.472739
412.855894	2464.438634
413.236180	2465.083902
413.616405	2465.459467
413.996568	2463.516103
414.376670	2465.996350
414.756711	2467.627164
415.136691	2467.067596
415.516609	2466.523151
415.896466	2468.985755
416.276262	2470.359469
416.655997	2463.919395
417.035670	2466.462657
417.415283	2471.526496
417.794834	2466.447534
418.174324	2471.728142
418.553753	2471.665128
418.933121	2471.786116
419.312428	2470.747638
419.691674	2471.730663
420.070859	2473.583287
420.449983	2472.890128
420.829045	2471.650004
421.208047	2471.425673
421.586988	2474.525983
421.965867	2473.331229
422.344686	2474.944398
422.723444	2473.986579
423.102141	2472.408698
423.480777	2474.205869
423.859352	2473.374079
424.237866	2477.679224
424.616319	2473.850468
424.994712	2477.114615
425.373044	2476.615541
425.751314	2475.597228
426.129524	2478.450521
426.507673	2477.699389
426.885762	2479.509163
427.263789	2479.466313
427.641756	2478.526138
428.019662	2483.468990
428.397508	2478.102681
428.775292	2481.800368
429.153016	2481.694503
429.530679	2481.170223
429.908282	2482.312045
430.285824	2482.407827
430.663305	2479.814153
431.040726	2482.354895
431.418086	2482.254072
431.795385	2486.027375
432.172624	2484.015955
432.549802	2484.983856
432.926920	2485.014103
433.303977	2483.564772
433.680974	2484.507467
434.057910	2489.888899
434.434786	2485.283805
434.811601	2489.281440
435.188355	2487.663230
435.565050	2487.151553
435.941683	2489.357057
436.318257	2487.237252
436.694770	2486.319762
437.071222	2489.813282
437.447614	2483.907570
437.823946	2487.065853
438.200218	2489.500730
438.576429	2489.430154
438.952580	2490.919815
439.328670	2489.667088
439.704700	2494.804024
440.080670	2491.244969
440.456580	2493.452995
440.832429	2494.713283
441.208218	2494.801503
441.583947	2495.908037
441.959616	2496.437358
442.335224	2498.980620
442.710773	2496.006339
443.086261	2495.456853
443.461689	2497.576659
443.837057	2497.601864
444.212365	2498.587410
444.587612	2498.776453
444.962800	2501.793584
445.337927	2500.278717
445.712995	2499.451968
446.088002	2503.835251
446.462949	2504.309120
446.837837	2504.780467
447.212664	2506.045797
447.587431	2510.066117
447.962139	2516.680111
448.336786	2523.236132
448.711374	2518.636079
449.085901	2517.073321
449.460369	2518.527694
449.834776	2518.545338
450.209124	2523.183200
450.583412	2523.213447
450.957640	2522.716893
451.331808	2524.894671
451.705917	2520.771008
452.079965	2524.708149
452.453954	2523.662109
452.827883	2525.441637
453.201752	2526.447347
453.575562	2528.267203
453.949311	2534.510672
454.323001	2534.883718
454.696632	2533.394057
455.070202	2541.220448
455.443713	2542.558874
455.817164	2544.149358
456.190556	2544.081303
456.563888	2547.723537
456.937160	2546.130532
457.310373	2547.557178
457.683526	2550.228990
458.056619	2551.695966
458.429653	2556.021276
458.802628	2557.732748
459.175542	2559.305587
459.548398	2567.562997
459.921194	2571.782443
460.293930	2577.945254
460.666607	2588.030082
461.039224	2596.030393
461.411782	2600.086002
461.784280	2595.793459
462.156719	2601.734459
462.529099	2602.941815
462.901419	2601.542895
463.273680	2602.606578
463.645882	2605.033894
464.018024	2612.575460
464.390106	2618.473610
464.762130	2634.096146
465.134094	2663.851557
465.505999	2698.365816
465.877845	2729.326063
466.249631	2742.463310
466.621358	2740.673700
466.993026	2740.414081
467.364634	2737.495252
467.736184	2735.766137
468.107674	2737.815366
468.479105	2744.043711
468.850477	2749.808271
469.221790	2753.800865
469.593043	2750.241810
469.964238	2761.004673
470.335373	2772.470778
470.706449	2805.167702
471.077467	2848.708147
471.448425	2917.814805
471.819324	2970.530151
472.190164	2975.972076
472.560945	2953.952316
472.931667	2942.960080
473.302330	2952.288736
473.672934	2969.622743
474.043479	3003.038031
474.413965	3018.158972
474.784393	3041.033208
475.154761	3090.507092
475.525070	3123.425826
475.895321	3155.094355
476.265513	3199.501879
476.635645	3262.276847
477.005719	3302.527940
477.375734	3365.171838
477.745691	3433.950821
478.115588	3516.224972
478.485427	3642.982265
478.855207	3826.510512
479.224928	3993.261799
479.594591	4129.130977
479.964194	4155.269360
480.333739	4232.376329
480.703226	4325.136080
481.072653	4462.197492
481.442022	4596.075414
481.811333	4714.585379
482.180584	4748.613168
482.549777	4831.484696
482.918912	4919.725053
483.287988	5012.610833
483.657005	5080.976441
484.025964	5157.947298
484.394864	5273.944248
484.763706	5365.141242
485.132489	5430.295635
485.501213	5546.637904
485.869879	5689.821797
486.238487	5797.899094
486.607036	5955.742662
486.975527	6056.900976
487.343959	6223.327108
487.712333	6382.428444
488.080648	6533.849582
488.448905	6738.709472
488.817104	6889.538274
489.185244	7169.430698
489.553326	7580.599808
489.921350	8148.410172
490.289315	8778.940051
490.657222	9101.825954
491.025070	9369.906954
491.392861	9452.196229
491.760593	9459.705028
492.128267	9410.803315
492.495883	9384.002020
492.863440	9381.032781
493.230939	9389.264985
493.598380	9427.812168
493.965763	9596.204350
494.333088	9687.613073
494.700354	9818.680552
495.067563	10002.735599
495.434713	10203.335714
495.801805	10460.321134
496.168839	10616.695206
496.535815	10790.811618
496.902733	11035.383197
497.269593	11187.860457
497.636395	11419.314954
498.003139	11756.389185
498.369825	11888.759803
498.736453	12209.233514
499.103023	12352.389681
499.469535	12588.315681
499.835989	12885.978171
500.202385	13055.779356
500.568723	13340.861648
500.935003	13666.159743
501.301226	13886.117889
501.667390	14335.748482
502.033497	14704.939905
502.399546	14806.995544
502.765537	14856.600498
503.131470	15264.933959
503.497345	15671.553429
503.863163	15497.769732
504.228923	15999.107441
504.594625	16446.477077
504.960269	16470.662013
505.325856	17016.129982
505.691385	17061.283597
506.056856	17422.096622
506.422270	17910.370181
506.787625	18031.350312
507.152924	18419.660310
507.518164	18779.286143
507.883347	18726.026353
508.248472	19132.033322
508.613540	19654.851387
508.978550	20105.979204
509.343503	20294.591454
509.708398	20679.609579
510.073236	21264.549783
510.438016	21562.194630
510.802738	21592.330648
511.167403	22220.471020
511.532010	22646.733345
511.896561	23115.232978
512.261053	23890.451534
512.625488	23939.343164
512.989866	24179.228991
513.354186	24389.671958
513.718449	24667.159751
514.082655	25382.489399
514.446803	25475.435673
514.810894	26089.365033
515.174927	26335.844688
515.538904	26557.602526
515.902822	27282.517928
516.266684	27202.285444
516.630488	27768.412062
516.994235	27966.136198
517.357925	28620.170457
517.721558	28998.695576
518.085133	29501.989253
518.448651	29864.324706
518.812112	29980.997170
519.175516	30314.754323
519.538863	30815.913070
519.902152	31040.793902
520.265385	31631.725518
520.628560	31929.940015
520.991678	32019.881761
521.354739	32453.536938
521.717743	32918.583381
522.080690	33093.771039
522.443580	33749.506687
522.806413	34030.596384
523.169189	34222.460179
523.531908	34588.095067
523.894569	34716.568873
524.257174	35059.155606
524.619722	35521.305906
524.982213	35725.273511
525.344647	35881.718159
525.707025	36111.287264
526.069345	36640.830228
526.431608	36788.185676
526.793815	37244.662157
527.155964	37040.472741
527.518057	37382.363795
527.880093	37394.170177
528.242072	38011.731688
528.603995	37936.847868
528.965860	38125.878534
529.327669	38385.903770
529.689421	38460.522929
530.051117	38592.238197
530.412755	38878.623627
530.774337	39083.027292
531.135862	39074.245602
531.497331	39413.603476
531.858743	39470.598761
532.220098	39917.161813
532.581396	39801.817692
532.942638	39646.955967
533.303824	40042.280731
533.664953	40152.992031
534.026025	40032.364781
534.387040	40584.577814
534.747999	40646.377319
535.108902	40928.714702
535.469748	40607.661258
535.830537	40810.658441
536.191270	41115.998609
536.551947	40897.336040
536.912567	41279.841150
537.273131	41490.014416
537.633638	41129.433284
537.994089	41546.913919
538.354483	41272.629779
538.714821	41879.685526
539.075103	42308.803664
539.435328	42185.129037
539.795497	42166.653208
540.155609	42237.211718
540.515665	42735.106319
540.875665	42319.213647
541.235609	42705.048439
541.595496	42747.590736
541.955328	43458.615239
542.315102	42944.737660
542.674821	42812.172958
543.034483	42925.573714
543.394090	42960.455978
543.753640	42996.953932
544.113134	44010.921534
544.472571	43144.231242
544.831953	44382.250406
545.191278	43716.339189
545.550548	43492.264941
545.909761	43974.481554
546.268918	44240.389816
546.628019	44587.591726
546.987064	44206.457810
547.346053	43570.183536
547.704986	44459.226305
548.063863	44092.394142
548.422684	44333.063868
548.781449	44256.375315
549.140158	44659.443291
549.498811	44576.788533
549.857408	44064.418259
550.215949	44910.457465
550.574434	44878.504111
550.932864	44708.380292
551.291237	45438.480522
551.649555	45084.659577
552.007817	45359.246186
552.366022	45057.994394
552.724173	45253.119815
553.082267	45672.231264
553.440305	45993.720768
553.798288	45368.917640
554.156215	45715.857409
554.514086	45929.700635
554.871902	45706.556480
555.229661	45752.020126
555.587365	45600.183093
555.945014	45716.971504
556.302606	45668.384863
556.660143	45917.637153
557.017625	46027.932558
557.375050	45841.621595
557.732421	46208.839405
558.089735	46203.939404
558.446994	46142.863304
558.804197	46616.890562
559.161345	46578.025787
559.518437	45869.360544
559.875474	46180.752617
560.232455	46369.168262
560.589381	46534.876030
560.946251	46250.191990
561.303065	46938.054912
561.659825	46764.034281
562.016528	46454.530120
562.373177	46206.845629
562.729770	46692.530555
563.086307	46214.256125
563.442789	46686.254319
563.799216	46735.040085
564.155587	46553.137610
564.511904	46587.785461
564.868164	46686.813887
565.224370	46941.079604
565.580520	46680.348607
565.936615	46911.722445
566.292654	46646.071281
566.648638	46876.509985
567.004567	46865.578243
567.360441	46894.597645
567.716260	46757.107736
568.072023	47065.631393
568.427732	47064.451763
568.783385	46640.677247
569.138982	47018.531892
569.494525	46998.780651
569.850013	46762.186698
570.205445	46742.001918
570.560823	46691.035853
570.916145	46588.556757
571.271412	46638.713717
571.626625	46397.315545
571.981782	46470.354302
572.336884	46159.138670
572.691931	46489.200656
573.046923	46086.334326
573.401860	45957.530324
573.756743	45934.900585
574.111570	46051.550364
574.466342	45905.009063
574.821059	46036.948662
575.175722	45563.201188
575.530330	45600.263751
575.884882	45329.793245
576.239380	45295.611701
576.593823	45279.704340
576.948211	45208.225820
577.302544	44738.909520
577.656823	44783.843845
578.011047	45004.142268
578.365216	44732.908026
578.719330	44530.777922
579.073389	44400.335545
579.427394	44498.937994
579.781344	44462.278723
580.135239	44135.927026
580.489080	44210.984766
580.842866	43709.722674
581.196597	44166.559598
581.550273	44125.688443
581.903895	43958.826250
582.257463	44402.919137
582.610975	43800.534020
582.964434	44077.522738
583.317837	43739.362138
583.671186	43585.707769
584.024481	43809.305627
584.377721	43363.917164
584.730906	43650.882327
585.084037	43672.662632
585.437113	43379.665729
585.790135	43421.275413
586.143103	43039.297104
586.496016	43165.630940
586.848874	43177.424719
587.201679	43216.965009
587.554428	42694.686347
587.907124	42890.787232
588.259765	42668.006041
588.612352	42919.302519
588.964884	42314.757267
589.317362	42582.566045
589.669786	42556.528485
590.022155	42316.136023
590.374470	42736.386772
590.726731	42281.510858
591.078937	41798.122177
591.431090	41907.079156
591.783188	41559.869684
592.135232	41246.700605
592.487222	41492.640857
592.839157	41584.833478
593.191038	41267.913780
593.542866	41033.023737
593.894639	40439.979878
594.246358	40722.831459
594.598022	40687.359380
594.949633	40305.696142
595.301190	40270.501327
595.652692	40118.593717
596.004141	40449.389192
596.355535	39477.369031
596.706876	39424.013458
597.058162	39266.553018
597.409395	39726.326413
597.760573	39798.853494
598.111698	39370.378102
598.462768	39374.675686
598.813785	39437.768247
599.164748	38892.549814
599.515657	39294.992687
599.866511	38770.319477
600.217312	39379.714319
600.568060	38359.808237
600.918753	39082.906304
601.269392	39060.599198
601.619978	38706.087616
601.970510	38934.557749
602.320988	39088.449053
602.671412	39393.580013
603.021783	39144.909976
603.372100	38810.258019
603.722363	38924.815719
604.072572	38985.135646
604.422728	39000.866566
604.772830	38813.179367
605.122878	38904.767050
605.472872	38863.167449
605.822813	39131.702152
606.172701	38965.381884
606.522534	39187.447232
606.872314	39445.640008
607.222041	39202.928615
607.571714	39591.649468
607.921333	39061.065505
608.270899	39345.837765
608.620411	39658.777472
608.969870	39469.421652
609.319276	39475.397939
609.668627	39527.599088
610.017926	39993.739460
610.367171	40161.743474
610.716362	40245.885373
611.065500	40198.322086
611.414585	40390.140511
611.763616	40680.377382
612.112594	40608.205702
612.461518	40806.703656
612.810389	41109.477876
613.159207	40970.813378
613.507971	41047.522096
613.856682	41510.761284
614.205340	41390.839796
614.553945	42075.204157
614.902496	41552.207131
615.250994	42005.658919
615.599439	42056.153637
615.947830	42290.468988
616.296169	42345.304139
616.644454	42466.737973
616.992686	42621.990388
617.340864	43149.103517
617.688990	42858.662479
618.037063	43456.356802
618.385082	43425.288171
618.733048	43720.220877
619.080961	43723.674067
619.428821	43733.612702
619.776628	43838.884598
620.124382	43657.221577
620.472083	43796.806086
620.819731	43925.370633
621.167326	43595.699336
621.514868	43576.724433
621.862357	43131.293120
622.209793	43152.733148
622.557176	42811.240345
622.904506	42569.721185
623.251783	42234.802047
623.599007	42000.186747
623.946179	41802.455049
624.293297	41737.197312
624.640363	41144.652527
624.987376	41147.785604
625.334336	40909.270972
625.681243	40558.683928
626.028097	40510.324139
626.374899	40369.953210
626.721647	40344.082008
627.068343	40245.106514
627.414987	39987.541362
627.761577	39780.279362
628.108115	40121.184871
628.454600	39561.533615
628.801032	39745.888611
629.147412	39724.267102
629.493739	39717.370803
629.840014	39366.899706
630.186236	39712.874094
630.532405	39315.094288
630.878521	39548.000637
631.224585	39427.254920
631.570597	39123.903488
631.916556	39289.086976
632.262462	39245.901931
632.608316	39247.852858
632.954117	39151.110595
633.299866	39129.713417
633.645562	39044.681755
633.991206	38566.112417
634.336797	38146.879981
634.682336	38125.437433
635.027823	37881.977429
635.373257	37703.344142
635.718639	37468.345715
636.063968	37329.366144
636.409245	36757.250635
636.754470	36801.816956
637.099642	36576.167348
637.444762	36102.470286
637.789829	36248.174755
638.134845	35906.366881
638.479808	35853.984251
