Dividing Wavelength (nm)	Counts (n)	Blue Motor Position (mm): 49.200000	Red Motor Position (mm): 0.000000	
326.493990	1976.417133
326.888308	1976.417133
327.282561	1976.417133
327.676750	1951.385283
328.070874	1949.242793
328.464933	1958.901644
328.858929	1966.102932
329.252859	1979.709006
329.646726	1992.047230
330.040528	2010.898625
330.434265	2028.731707
330.827938	2046.206867
331.221547	2066.142110
331.615091	2085.900912
332.008571	2109.697679
332.401986	2130.366410
332.795338	2149.951292
333.188625	2171.207318
333.581847	2189.471418
333.975006	2209.323482
334.368100	2224.434340
334.761129	2239.893039
335.154095	2257.083373
335.546996	2300.288582
335.939833	2382.363608
336.332606	2400.776423
336.725315	2411.410737
337.117960	2420.149577
337.510540	2427.353386
337.903056	2438.186825
338.295508	2443.931220
338.687896	2451.407251
339.080220	2458.104424
339.472480	2461.240022
339.864676	2465.343521
340.256807	2467.203707
340.648875	2469.996506
341.040879	2473.774851
341.432818	2474.220993
341.824694	2473.953812
342.216506	2472.194449
342.608253	2473.535396
342.999937	2473.908441
343.391557	2470.830817
343.783113	2474.082361
344.174605	2468.642956
344.566033	2468.040538
344.957397	2467.327215
345.348697	2465.139354
345.739934	2463.170784
346.131106	2460.904785
346.522215	2461.960907
346.913260	2455.019238
347.304241	2458.779939
347.695159	2454.835236
348.086012	2455.059567
348.476802	2450.220059
348.867528	2453.549742
349.258191	2451.170317
349.648789	2448.299380
350.039324	2444.944492
350.429796	2447.938937
350.820203	2447.346602
351.210548	2445.846858
351.600828	2446.809719
351.991045	2447.553289
352.381198	2446.091354
352.771288	2445.677980
353.161314	2444.004317
353.551276	2445.907352
353.941175	2442.706220
354.331010	2446.441715
354.720782	2449.466407
355.110490	2448.329627
355.500135	2446.905501
355.889717	2447.644030
356.279235	2444.599173
356.668689	2449.940275
357.058080	2448.543876
357.447408	2448.201077
357.836672	2443.313679
358.225873	2447.207970
358.615010	2446.734102
359.004084	2452.738116
359.393095	2451.129988
359.782043	2456.287088
360.170927	2453.953034
360.559748	2455.021758
360.948505	2458.537963
361.337199	2457.706173
361.725830	2460.032665
362.114398	2459.737758
362.502903	2460.640124
362.891344	2461.234981
363.279722	2461.842440
363.668037	2462.888479
364.056289	2463.637090
364.444478	2463.579117
364.832603	2465.855198
365.220665	2466.006433
365.608665	2467.213789
365.996601	2467.924592
366.384474	2468.101032
366.772284	2468.723615
367.160031	2469.182360
367.547715	2469.240333
367.935336	2472.091105
368.322893	2469.615899
368.710388	2473.542958
369.097820	2476.517238
369.485189	2478.087558
369.872495	2477.462455
370.259738	2478.458083
370.646918	2482.007055
371.034035	2481.250882
371.421090	2483.068218
371.808081	2485.452684
372.195010	2489.281440
372.581875	2491.350834
372.968678	2494.683036
373.355418	2499.275527
373.742096	2506.456651
374.128710	2513.499143
374.515262	2517.771521
374.901751	2528.539426
375.288177	2542.458051
375.674540	2553.351985
376.060841	2568.190621
376.447079	2582.941037
376.833254	2606.296703
377.219367	2624.442336
377.605417	2648.662560
377.991404	2671.819100
378.377329	2703.275900
378.763191	2731.881928
379.148991	2772.042280
379.534727	2814.055256
379.920402	2848.456090
380.306013	2894.673388
380.691563	2950.088272
381.077049	2993.527895
381.462474	3045.935730
381.847835	3111.236316
382.233134	3175.737880
382.618371	3230.288206
383.003545	3308.847027
383.388657	3380.685989
383.773706	3465.024493
384.158693	3536.626522
384.543618	3625.897795
384.928480	3699.347406
385.313280	3798.698466
385.698017	3896.708579
386.082692	4011.901465
386.467305	4074.782298
386.851856	4194.905432
387.236344	4338.648893
387.620770	4407.163215
388.005133	4526.941030
388.389435	4669.341024
388.773674	4752.023508
389.157851	4882.823807
389.541965	5018.415722
389.926018	5047.467891
390.310008	5221.231423
390.693936	5346.761195
391.077802	5470.703004
391.461606	5604.964054
391.845348	5721.785233
392.229027	5841.401731
392.612645	6061.664866
392.996200	6190.189083
393.379694	6363.191401
393.763125	6590.066009
394.146494	6692.000661
394.529801	6830.312278
394.913047	7074.760349
395.296230	7085.066988
395.679351	7146.294322
396.062410	7409.203098
396.445408	7324.040365
396.828343	7478.181206
397.211217	7623.661344
397.594028	7518.893564
397.976778	7725.038948
398.359466	7891.162611
398.742092	7875.633337
399.124656	8034.172584
399.507158	8220.488589
399.889598	8251.032940
400.271977	8459.920712
400.654294	8493.812389
401.036549	8698.145478
401.418742	8722.300167
401.800874	9028.620839
402.182944	9114.161658
402.564952	9478.039704
402.946898	9302.373137
403.328783	9363.658444
403.710606	9560.006345
404.092367	9814.176281
404.474067	10166.971351
404.855705	9970.925919
405.237282	9925.666439
405.618797	10345.196304
406.000250	10591.391134
406.381642	10949.267687
406.762972	10900.983515
407.144240	10709.051665
407.525447	10959.478544
407.906593	10898.830942
408.287677	11158.185705
408.668700	11309.261524
409.049661	11288.219748
409.430560	11438.526791
409.811399	11413.784808
410.192176	11571.421689
410.572891	11647.419603
410.953545	12125.114301
411.334138	11606.513161
411.714669	12188.239629
412.095139	11518.635767
412.475547	12010.730520
412.855894	11863.760721
413.236180	12177.491889
413.616405	11871.619880
413.996568	12149.019452
414.376670	12119.296809
414.756711	12000.159220
415.136691	12277.382353
415.516609	12443.528701
415.896466	12510.896161
416.276262	12793.470478
416.655997	13236.978590
417.035670	13277.166669
417.415283	13919.548300
417.794834	14003.506197
418.174324	13750.478083
418.553753	13657.604905
418.933121	14134.273728
419.312428	13948.905460
419.691674	13852.440460
420.070859	14313.121263
420.449983	13969.463285
420.829045	14515.959650
421.208047	14274.833700
421.586988	14709.660946
421.965867	14954.305621
422.344686	14948.735146
422.723444	15513.142731
423.102141	14212.519997
423.480777	15375.514190
423.859352	14894.179779
424.237866	15991.873385
424.616319	15699.065526
424.994712	16353.813108
425.373044	16141.265459
425.751314	16801.228115
426.129524	15941.716425
426.507673	17006.738313
426.885762	16714.474898
427.263789	16906.048827
427.641756	17068.799958
428.019662	17128.267929
428.397508	17172.446081
428.775292	17454.304554
429.153016	17432.710772
429.530679	17497.809712
429.908282	17526.075462
430.285824	17251.919871
430.663305	17952.128579
431.040726	17548.874080
431.418086	17378.415024
431.795385	18019.468312
432.172624	18431.416281
432.549802	17995.974014
432.926920	18190.449127
433.303977	18062.239982
433.680974	18321.511565
434.057910	18611.945041
434.434786	18626.430797
434.811601	18545.348878
435.188355	19572.642771
435.565050	19228.992354
435.941683	19174.260547
436.318257	20045.235820
436.694770	19859.638180
437.071222	20447.482089
437.447614	19530.279434
437.823946	19548.281395
438.200218	19708.950530
438.576429	19484.689760
438.952580	19763.389950
439.328670	19710.218380
439.704700	20124.087028
440.080670	19708.133863
440.456580	20280.438415
440.832429	20451.056267
441.208218	19460.613209
441.583947	19897.996319
441.959616	20002.975828
442.335224	20229.873121
442.710773	20371.433762
443.086261	20900.064278
443.461689	20263.890827
443.837057	20394.993595
444.212365	21026.740913
444.587612	21018.097854
444.962800	20600.652507
445.337927	21023.635562
445.712995	19768.131155
446.088002	21593.575813
446.462949	21788.973456
446.837837	21958.820012
447.212664	21907.889234
447.587431	24675.270967
447.962139	27568.409324
448.336786	29944.327817
448.711374	28435.959134
449.085901	24804.125380
449.460369	24738.131635
449.834776	24628.572239
450.209124	27072.833654
450.583412	26633.318136
450.957640	27172.451896
451.331808	25840.818504
451.705917	24494.003678
452.079965	24507.314845
452.453954	24858.607651
452.827883	24747.296453
453.201752	24558.636312
453.575562	24707.955288
453.949311	25808.875233
454.323001	25877.616407
454.696632	25641.965150
455.070202	27162.089804
455.443713	27307.423749
455.817164	27889.417398
456.190556	28410.823941
456.563888	27863.342030
456.937160	28309.469022
457.310373	26665.347107
457.683526	27090.757477
458.056619	27070.401298
458.429653	27011.397113
458.802628	27572.989213
459.175542	27676.446292
459.548398	28976.569952
459.921194	30522.417093
460.293930	31197.840968
460.666607	33194.619321
461.039224	34956.000996
461.411782	35342.599523
461.784280	34167.042775
462.156719	33664.157432
462.529099	33099.084415
462.901419	31815.054639
463.273680	30762.086150
463.645882	30856.701046
464.018024	30820.283751
464.390106	31646.715389
464.762130	34302.430523
465.134094	38320.545211
465.505999	43596.878966
465.877845	48186.733596
466.249631	49361.796311
466.621358	47641.288312
466.993026	45504.469225
467.364634	43420.307511
467.736184	41469.015489
468.107674	40230.217467
468.479105	39438.693298
468.850477	38748.944985
469.221790	37337.371497
469.593043	35619.071523
469.964238	34743.531485
470.335373	34653.836755
470.706449	36310.130536
471.077467	38798.794435
471.448425	43354.028941
471.819324	46238.932573
472.190164	44448.357577
472.560945	40914.546539
472.931667	37831.298709
473.302330	36731.901193
473.672934	35913.227891
474.043479	36407.805412
474.413965	35624.997399
474.784393	35257.338488
475.154761	36128.802753
475.525070	36160.438514
475.895321	35699.823246
476.265513	36293.000695
476.635645	37271.438245
477.005719	37082.626869
477.375734	37543.100985
477.745691	38225.925273
478.115588	39540.935460
478.485427	41493.734787
478.855207	44795.967820
479.224928	47424.122966
479.594591	49067.715560
479.964194	48065.821521
480.333739	48191.754586
480.703226	48216.289881
481.072653	48844.619297
481.442022	49335.652887
481.811333	49619.164859
482.180584	48320.606478
482.549777	47802.143969
482.918912	47276.137374
483.287988	46994.977101
483.657005	46174.478901
484.025964	45530.957968
484.394864	45539.230502
484.763706	45103.258914
485.132489	44235.363786
485.501213	44076.295217
485.869879	44214.639602
486.238487	43817.058922
486.607036	44006.160164
486.975527	43491.458357
487.343959	43685.159652
487.712333	43761.520530
488.080648	43680.010113
488.448905	44115.711999
488.817104	43930.172332
489.185244	44869.556063
489.553326	46513.294851
489.921350	49222.191637
490.289315	52145.130775
490.657222	52787.857726
491.025070	53077.028393
491.392861	52170.555835
491.760593	50913.856675
492.128267	49226.380836
492.495883	47671.694031
492.863440	46304.656617
493.230939	44945.453155
493.598380	43873.471954
493.965763	43538.928382
494.333088	42743.620828
494.700354	42264.073506
495.067563	41983.568583
495.434713	41856.839016
495.801805	41923.412494
496.168839	41547.246635
496.535815	41227.188819
496.902733	41256.021698
497.269593	40858.420853
497.636395	40793.147993
498.003139	41179.917919
498.369825	40635.042285
498.736453	40956.556995
499.103023	40475.603192
499.469535	40358.179595
499.835989	40449.651332
500.202385	40130.001849
500.568723	40136.930915
500.935003	40331.582467
501.301226	40128.265171
501.667390	40742.746537
502.033497	41001.841680
502.399546	40446.707298
502.765537	39757.190878
503.131470	40146.763685
503.497345	40488.437969
503.863163	39164.225157
504.228923	39783.036873
504.594625	40180.536895
504.960269	39471.354934
505.325856	40148.129838
505.691385	39537.842712
506.056856	39659.914253
506.422270	40105.524526
506.787625	39677.979227
507.152924	39886.294828
507.518164	39969.622580
507.883347	39196.884272
508.248472	39456.289446
508.613540	39918.913614
508.978550	40212.114683
509.343503	39972.768260
509.708398	40171.210761
510.073236	40696.007479
510.438016	40697.413961
510.802738	40156.092340
511.167403	40782.417897
511.532010	40995.026040
511.896561	41309.276447
512.261053	42134.445276
512.625488	41699.328164
512.989866	41561.573594
513.354186	41418.162850
513.718449	41396.329612
514.082655	42076.676174
514.446803	41757.301434
514.810894	42276.378963
515.174927	42204.885319
515.538904	42102.801954
515.902822	42751.341355
516.266684	42206.042264
516.630488	42641.461845
516.994235	42484.014007
517.357925	43059.915423
517.721558	43220.541708
518.085133	43548.559506
518.448651	43666.656097
518.812112	43446.856748
519.175516	43532.521075
519.538863	43882.288932
519.902152	43848.384652
520.265385	44298.030369
520.628560	44341.744735
520.991678	44127.631807
521.354739	44372.503335
521.717743	44681.526066
522.080690	44587.611890
522.443580	45127.789169
522.806413	45175.377661
523.169189	45119.453621
523.531908	45312.562581
523.894569	45172.458833
524.257174	45333.697618
524.619722	45628.312731
524.982213	45617.199508
525.344647	45525.110230
525.707025	45588.800168
526.069345	45983.519993
526.431608	45896.759215
526.793815	46217.064048
527.155964	45768.522343
527.518057	45932.874041
527.880093	45724.863430
528.242072	46232.663898
528.603995	45933.199195
528.965860	45938.968796
529.327669	46028.320727
529.689421	45941.141533
530.051117	45896.817188
530.412755	46051.086578
530.774337	46113.934643
531.135862	45901.182827
531.497331	46117.902031
531.858743	46018.682041
532.220098	46357.639143
532.581396	46083.367607
532.942638	45756.380724
533.303824	46028.320727
533.664953	46002.464649
534.026025	45725.937196
534.387040	46212.640435
534.747999	46145.714077
535.108902	46337.683736
535.469748	45841.162850
535.830537	45949.116639
536.191270	46148.832031
536.551947	45808.090360
536.912567	46140.347769
537.273131	46232.673981
537.633638	45723.525004
537.994089	46068.990236
538.354483	45678.091605
538.714821	46235.388642
539.075103	46599.407841
539.435328	46352.986158
539.795497	46238.068015
540.155609	46245.468429
540.515665	46689.722632
540.875665	46163.776531
541.235609	46493.558733
541.595496	46445.650128
541.955328	47102.071373
542.315102	46476.020559
542.674821	46282.611651
543.034483	46309.362534
543.394090	46296.076573
543.753640	46242.385764
544.113134	47236.261847
544.472571	46251.364059
544.831953	47498.109460
545.191278	46728.141266
545.550548	46437.324662
545.909761	46893.050011
546.268918	47095.306145
546.628019	47392.693892
546.987064	46956.742469
547.346053	46245.967503
547.704986	47104.901981
548.063863	46677.001281
548.422684	46868.270219
548.781449	46711.906230
549.140158	47111.120244
549.498811	46963.232955
549.857408	46406.145126
550.215949	47229.305055
550.574434	47153.826379
550.932864	46928.476720
551.291237	47645.280906
551.649555	47267.363246
552.007817	47487.596134
552.366022	47151.331008
552.724173	47334.778596
553.082267	47713.354127
553.440305	48021.136734
553.798288	47334.040067
554.156215	47633.799678
554.514086	47845.460084
554.871902	47584.744210
555.229661	47625.055797
555.587365	47413.113086
555.945014	47526.155920
556.302606	47453.225547
556.660143	47671.774690
557.017625	47759.251312
557.375050	47556.387719
557.732421	47897.459586
558.089735	47890.230571
558.446994	47782.649827
558.804197	48267.467675
559.161345	48199.187767
559.518437	47449.311091
559.875474	47762.301210
560.232455	47902.624248
560.589381	48077.922811
560.946251	47781.356772
561.303065	48470.507708
561.659825	48260.021891
562.016528	47953.492011
562.373177	47665.866457
562.729770	48140.566709
563.086307	47656.459664
563.442789	48108.893140
563.799216	48163.919855
564.155587	47961.031056
564.511904	47975.103437
564.868164	48076.760825
565.224370	48321.607147
565.580520	48059.247857
565.936615	48269.295093
566.292654	47978.627204
566.648638	48212.806444
567.004567	48170.226338
567.360441	48224.668279
567.716260	48070.771934
568.072023	48352.002784
568.427732	48336.483592
568.783385	47900.847241
569.138982	48297.412129
569.494525	48249.773225
569.850013	48020.705715
570.205445	47979.562338
570.560823	47945.521947
570.916145	47819.747679
571.271412	47838.830967
571.626625	47601.682487
571.981782	47668.127415
572.336884	47341.750512
572.691931	47671.497426
573.046923	47268.714275
573.401860	47119.042417
573.756743	47100.188502
574.111570	47229.395796
574.466342	47068.033502
574.821059	47187.705453
575.175722	46713.915130
575.530330	46734.914056
575.884882	46458.852910
576.239380	46411.834068
576.593823	46410.740137
576.948211	46307.081412
577.302544	45841.810638
577.656823	45854.436208
578.011047	46075.490804
578.365216	45801.143650
578.719330	45594.970540
579.073389	45463.945910
579.427394	45528.291198
579.781344	45507.209093
580.135239	45153.950237
580.489080	45238.931488
580.842866	44742.798770
581.196597	45192.401638
581.550273	45126.281864
581.903895	44991.584754
582.257463	45407.550522
582.610975	44799.804138
582.964434	45068.608543
583.317837	44723.670112
583.671186	44544.872988
584.024481	44788.968178
584.377721	44304.823324
584.730906	44611.406136
585.084037	44618.209173
585.437113	44329.620760
585.790135	44367.038724
586.143103	43973.788395
586.496016	44096.154843
586.848874	44124.082835
587.201679	44139.435669
587.554428	43617.414106
587.907124	43812.718488
588.259765	43554.644179
588.612352	43820.955734
588.964884	43198.768964
589.317362	43494.702339
589.669786	43438.559009
590.022155	43216.186151
590.374470	43639.285152
590.726731	43162.334025
591.078937	42669.835979
591.431090	42761.194290
591.783188	42423.217692
592.135232	42103.411933
592.487222	42345.621732
592.839157	42439.528345
593.191038	42110.910650
593.542866	41871.528939
593.894639	41265.453697
594.246358	41537.872610
594.598022	41521.264528
594.949633	41131.469910
595.301190	41096.012954
595.652692	40919.290265
596.004141	41256.735021
596.355535	40284.878698
596.706876	40220.480478
597.058162	40059.934851
597.409395	40527.141428
597.760573	40608.364499
598.111698	40195.894771
598.462768	40188.965705
598.813785	40236.014793
599.164748	39692.928769
599.515657	40073.596378
599.866511	39543.274555
600.217312	40166.134319
600.568060	39130.295671
600.918753	39855.127894
601.269392	39825.979943
601.619978	39470.823092
601.970510	39693.440446
602.320988	39879.857274
602.671412	40191.894615
603.021783	39929.520201
603.372100	39575.482487
603.722363	39686.909631
604.072572	39758.262123
604.422728	39778.741810
604.772830	39589.214590
605.122878	39681.392088
605.472872	39610.455492
605.822813	39879.645546
606.172701	39719.281401
606.522534	39956.366866
606.872314	40227.838042
607.222041	39980.450979
607.571714	40371.773067
607.921333	39827.658647
608.270899	40105.191810
608.620411	40447.534047
608.969870	40245.797153
609.319276	40250.939129
609.668627	40276.593561
610.017926	40768.600094
610.367171	40928.008941
610.716362	41024.489064
611.065500	40956.945164
611.414585	41149.176963
611.763616	41447.610750
612.112594	41356.824610
612.461518	41581.072778
612.810389	41866.533155
613.159207	41739.874165
613.507971	41820.625888
613.856682	42288.601240
614.205340	42153.042093
614.553945	42871.812329
614.902496	42320.090808
615.250994	42787.604895
615.599439	42864.127090
615.947830	43079.308742
616.296169	43117.339206
616.644454	43246.612035
616.992686	43421.356071
617.340864	43911.570474
617.688990	43658.176876
618.037063	44240.558695
618.385082	44225.246190
618.733048	44533.701791
619.080961	44532.043251
619.428821	44559.386470
619.776628	44662.833467
620.124382	44489.921890
620.472083	44632.805834
620.819731	44746.509059
621.167326	44419.398669
621.514868	44404.572635
621.862357	43967.300430
622.209793	43982.045805
622.557176	43665.005119
622.904506	43411.924073
623.251783	43082.807302
623.599007	42852.202240
623.946179	42629.058086
624.293297	42564.662387
624.640363	41986.308450
624.987376	41953.467853
625.334336	41727.344377
625.681243	41389.551781
626.028097	41332.385097
626.374899	41186.103415
626.721647	41149.033290
627.068343	41034.858717
627.414987	40817.166571
627.761577	40581.900962
628.108115	40920.285893
628.454600	40375.420341
628.801032	40550.877701
629.147412	40505.585454
629.493739	40510.992092
629.840014	40160.415130
630.186236	40502.248210
630.532405	40118.145055
630.878521	40342.451195
631.224585	40207.892717
631.570597	39908.294423
631.916556	40083.056103
632.262462	40012.338797
632.608316	40039.606398
632.954117	39948.076689
633.299866	39937.008835
633.645562	39847.046924
633.991206	39346.707364
634.336797	38910.191332
634.682336	38920.533259
635.027823	38689.570275
