Dividing Wavelength (nm)	Counts (n)	Blue Motor Position (mm): 19.400000	Red Motor Position (mm): 0.000000	
326.493990	1973.400002
326.888308	1973.400002
327.282561	1973.400002
327.676750	1950.152721
328.070874	1948.766404
328.464933	1957.545573
328.858929	1965.593776
329.252859	1978.604994
329.646726	1995.066882
330.040528	2009.658501
330.434265	2028.877900
330.827938	2047.492361
331.221547	2067.599003
331.615091	2084.880078
332.008571	2109.942175
332.401986	2129.879938
332.795338	2147.549183
333.188625	2168.802687
333.581847	2187.311283
333.975006	2206.550847
334.368100	2220.749257
334.761129	2239.774572
335.154095	2255.258476
335.546996	2288.368774
335.939833	2350.158197
336.332606	2365.846268
336.725315	2378.860006
337.117960	2385.398383
337.510540	2390.091697
337.903056	2403.067627
338.295508	2411.617424
338.687896	2415.771335
339.080220	2426.496389
339.472480	2427.398756
339.864676	2432.480239
340.256807	2435.346135
340.648875	2439.908379
341.040879	2439.573142
341.432818	2438.035591
341.824694	2440.397371
342.216506	2438.423759
342.608253	2438.159099
342.999937	2439.749583
343.391557	2437.977617
343.783113	2433.899324
344.174605	2436.926537
344.566033	2433.312029
344.957397	2432.145002
345.348697	2430.529313
345.739934	2428.482604
346.131106	2424.863056
346.522215	2426.388005
346.913260	2424.275761
347.304241	2422.617222
347.695159	2420.996491
348.086012	2419.746284
348.476802	2415.446180
348.867528	2416.272929
349.258191	2413.863258
349.648789	2412.126580
350.039324	2411.897208
350.429796	2409.787485
350.820203	2410.069790
351.210548	2410.006775
351.600828	2408.786816
351.991045	2407.904614
352.381198	2408.058369
352.771288	2409.227917
353.161314	2405.807494
353.551276	2406.198183
353.941175	2403.244067
354.331010	2409.096847
354.720782	2409.719429
355.110490	2411.715726
355.500135	2407.939902
355.889717	2409.386713
356.279235	2409.235479
356.668689	2410.485685
357.058080	2406.493091
357.447408	2407.765982
357.836672	2405.336146
358.225873	2407.798750
358.615010	2407.332443
359.004084	2411.408216
359.393095	2411.410737
359.782043	2411.098185
360.170927	2412.169430
360.559748	2413.797723
360.948505	2416.035995
361.337199	2415.904925
361.725830	2415.695717
362.114398	2420.641089
362.502903	2418.422982
362.891344	2418.828794
363.279722	2417.381983
363.668037	2419.494227
364.056289	2419.363157
364.444478	2416.729154
364.832603	2418.433064
365.220665	2420.983888
365.608665	2420.515060
365.996601	2420.194947
366.384474	2419.418609
366.772284	2421.820719
367.160031	2421.482962
367.547715	2424.379105
367.935336	2420.578075
368.322893	2422.642427
368.710388	2424.366502
369.097820	2424.676533
369.485189	2423.204516
369.872495	2422.355082
370.259738	2421.389701
370.646918	2423.834660
371.034035	2423.547314
371.421090	2424.132088
371.808081	2422.740730
372.195010	2423.174269
372.581875	2425.137798
372.968678	2425.362130
373.355418	2425.140319
373.742096	2427.363468
374.128710	2424.709300
374.515262	2426.874476
374.901751	2426.093097
375.288177	2428.701894
375.674540	2426.445978
376.060841	2427.925557
376.447079	2427.519744
376.833254	2428.333890
377.219367	2424.343817
377.605417	2427.693663
377.991404	2422.791141
378.377329	2427.638211
378.763191	2425.309198
379.148991	2430.405804
379.534727	2429.566452
379.920402	2429.226174
380.306013	2429.906730
380.691563	2433.364962
381.077049	2430.670465
381.462474	2429.044693
381.847835	2431.303130
382.233134	2432.646597
382.618371	2432.485280
383.003545	2431.872780
383.388657	2433.213727
383.773706	2433.596855
384.158693	2436.929057
384.543618	2433.191042
384.928480	2435.762030
385.313280	2433.856474
385.698017	2436.230857
386.082692	2438.242278
386.467305	2436.644232
386.851856	2436.054417
387.236344	2438.895107
387.620770	2436.719849
388.005133	2439.406784
388.389435	2438.824531
388.773674	2437.483584
389.157851	2441.156065
389.541965	2438.378389
389.926018	2439.313523
390.310008	2437.055086
390.693936	2437.750765
391.077802	2439.321085
391.461606	2440.352001
391.845348	2441.413164
392.229027	2442.320571
392.612645	2443.437187
392.996200	2439.825200
393.379694	2443.369131
393.763125	2442.234872
394.146494	2443.013730
394.529801	2442.111363
394.913047	2442.953236
395.296230	2444.702517
395.679351	2440.354521
396.062410	2443.870726
396.445408	2444.586570
396.828343	2440.533482
397.211217	2439.371496
397.594028	2442.474327
397.976778	2440.868719
398.359466	2443.931220
398.742092	2441.216559
399.124656	2447.356684
399.507158	2443.621189
399.889598	2447.838114
400.271977	2442.663370
400.654294	2444.314348
401.036549	2445.483895
401.418742	2446.063628
401.800874	2448.226283
402.182944	2445.662856
402.564952	2447.371807
402.946898	2444.861313
403.328783	2446.862651
403.710606	2448.206118
404.092367	2447.946499
404.474067	2446.335850
404.855705	2447.520522
405.237282	2448.959771
405.618797	2447.573454
406.000250	2448.952209
406.381642	2446.126642
406.762972	2450.275512
407.144240	2450.119236
407.525447	2452.728033
407.906593	2450.678804
408.287677	2450.114195
408.668700	2452.304577
409.049661	2450.431788
409.430560	2450.535132
409.811399	2454.137036
410.192176	2453.237190
410.572891	2451.172837
410.953545	2449.968002
411.334138	2453.007818
411.714669	2452.274330
412.095139	2452.019751
412.475547	2452.768363
412.855894	2453.774073
413.236180	2451.129988
413.616405	2453.776593
413.996568	2450.265430
414.376670	2452.622169
414.756711	2452.526387
415.136691	2454.744495
415.516609	2452.725513
415.896466	2455.452777
416.276262	2456.740792
416.655997	2454.991512
417.035670	2451.654268
417.415283	2455.193158
417.794834	2451.127467
418.174324	2456.108127
418.553753	2454.303394
418.933121	2454.399176
419.312428	2457.486883
419.691674	2459.284054
420.070859	2457.852366
420.449983	2457.688529
420.829045	2456.395473
421.208047	2456.224074
421.586988	2456.960082
421.965867	2460.032665
422.344686	2458.510237
422.723444	2461.504682
423.102141	2458.853035
423.480777	2459.526029
423.859352	2459.591564
424.237866	2458.623663
424.616319	2463.082563
424.994712	2460.453602
425.373044	2459.314301
425.751314	2461.429065
426.129524	2461.613067
426.507673	2461.628191
426.885762	2462.439816
427.263789	2460.269600
427.641756	2463.659776
428.019662	2464.287399
428.397508	2464.559622
428.775292	2463.964765
429.153016	2466.006433
429.530679	2463.798407
429.908282	2466.291258
430.285824	2464.788994
430.663305	2465.313274
431.040726	2464.894858
431.418086	2465.467029
431.795385	2466.402163
432.172624	2465.333439
432.549802	2467.183542
432.926920	2464.874694
433.303977	2466.581124
433.680974	2469.222689
434.057910	2469.741928
434.434786	2466.555918
434.811601	2468.063223
435.188355	2469.068934
435.565050	2473.762248
435.941683	2471.259315
436.318257	2468.398460
436.694770	2464.892338
437.071222	2468.958028
437.447614	2466.041721
437.823946	2469.348718
438.200218	2470.132617
438.576429	2470.606486
438.952580	2468.973152
439.328670	2475.766107
439.704700	2470.445169
440.080670	2473.230406
440.456580	2469.857874
440.832429	2474.951960
441.208218	2470.745117
441.583947	2475.451034
441.959616	2470.283852
442.335224	2473.807618
442.710773	2473.154789
443.086261	2475.483802
443.461689	2476.701241
443.837057	2474.498256
444.212365	2476.970942
444.587612	2478.649647
444.962800	2475.874491
445.337927	2475.486323
445.712995	2474.750314
446.088002	2481.069400
446.462949	2477.223000
446.837837	2477.608648
447.212664	2481.525625
447.587431	2483.325317
447.962139	2486.009731
448.336786	2486.052581
448.711374	2487.970740
449.085901	2487.461583
449.460369	2482.652323
449.834776	2483.814309
450.209124	2485.616521
450.583412	2487.842191
450.957640	2487.640544
451.331808	2486.506285
451.705917	2487.814464
452.079965	2488.547952
452.453954	2487.859835
452.827883	2487.156594
453.201752	2489.755308
453.575562	2490.292191
453.949311	2490.161121
454.323001	2490.140957
454.696632	2490.377891
455.070202	2494.367964
455.443713	2492.958962
455.817164	2492.606081
456.190556	2495.514827
456.563888	2496.177738
456.937160	2493.543736
457.310373	2498.325270
457.683526	2497.722852
458.056619	2497.521206
458.429653	2498.945332
458.802628	2501.866681
459.175542	2502.585045
459.548398	2505.834069
459.921194	2509.806498
460.293930	2511.250788
460.666607	2516.506191
461.039224	2520.090452
461.411782	2520.045081
461.784280	2522.666481
462.156719	2521.731347
462.529099	2522.812675
462.901419	2521.091121
463.273680	2520.251769
463.645882	2520.823940
464.018024	2523.168076
464.390106	2525.338293
464.762130	2534.185518
465.134094	2542.037115
465.505999	2553.972047
465.877845	2568.046948
466.249631	2570.736404
466.621358	2570.176836
466.993026	2569.425704
467.364634	2566.605178
467.736184	2562.678119
468.107674	2559.010680
468.479105	2560.306257
468.850477	2560.765002
469.221790	2556.006152
469.593043	2554.183775
469.964238	2554.861810
470.335373	2555.877603
470.706449	2564.560990
471.077467	2570.043245
471.448425	2586.366501
471.819324	2595.067533
472.190164	2591.591657
472.560945	2584.655030
472.931667	2577.877198
473.302330	2575.515418
473.672934	2575.565829
474.043479	2575.328895
474.413965	2577.481468
474.784393	2576.354770
475.154761	2580.629668
475.525070	2579.671849
475.895321	2581.194277
476.265513	2587.306677
476.635645	2593.343458
477.005719	2597.930908
477.375734	2598.372009
477.745691	2605.190170
478.115588	2612.951026
478.485427	2622.219188
478.855207	2633.445837
479.224928	2650.384114
479.594591	2658.034065
479.964194	2656.922491
480.333739	2660.058088
480.703226	2664.771567
481.072653	2673.470078
481.442022	2676.746828
481.811333	2681.646830
482.180584	2679.244720
482.549777	2681.903928
482.918912	2683.368384
483.287988	2689.770649
483.657005	2687.290401
484.025964	2687.585309
484.394864	2696.097297
484.763706	2694.224508
485.132489	2695.409180
485.501213	2703.379244
485.869879	2710.300748
486.238487	2714.310986
486.607036	2719.634444
486.975527	2725.887996
487.343959	2731.178687
487.712333	2738.700088
488.080648	2746.405492
488.448905	2758.479055
488.817104	2766.350817
489.185244	2785.577778
489.553326	2809.432518
489.921350	2845.103722
490.289315	2883.582850
490.657222	2908.120666
491.025070	2924.688418
491.392861	2932.650921
491.760593	2932.229984
492.128267	2935.491611
492.495883	2934.435489
492.863440	2934.422886
493.230939	2943.539813
493.598380	2950.060546
493.965763	2964.198462
494.333088	2976.637509
494.700354	2992.063439
495.067563	3015.008251
495.434713	3034.472146
495.801805	3064.366188
496.168839	3083.129363
496.535815	3108.549381
496.902733	3139.640698
497.269593	3161.683143
497.636395	3192.056095
498.003139	3231.666961
498.369825	3258.455653
498.736453	3299.745223
499.103023	3329.082218
499.469535	3365.088659
499.835989	3413.145979
500.202385	3444.433900
500.568723	3489.844614
500.935003	3545.937533
501.301226	3592.253134
501.667390	3657.974657
502.033497	3722.098134
502.399546	3757.290429
502.765537	3793.054895
503.131470	3860.989484
503.497345	3936.710135
503.863163	3953.532466
504.228923	4037.949107
504.594625	4126.459166
504.960269	4168.061288
505.325856	4266.169704
505.691385	4316.855985
506.056856	4401.118872
506.422270	4503.426568
506.787625	4562.264395
507.152924	4661.484385
507.518164	4751.355556
507.883347	4798.215601
508.248472	4902.617897
508.613540	5024.560888
508.978550	5146.017408
509.343503	5227.714347
509.708398	5345.006874
510.073236	5491.391899
510.438016	5599.764104
510.802738	5672.727244
511.167403	5835.954764
511.532010	5972.587678
511.896561	6116.646211
512.261053	6315.093752
512.625488	6399.719602
512.989866	6511.066087
513.354186	6630.007071
513.718449	6755.052893
514.082655	6964.606096
514.446803	7066.649132
514.810894	7270.054649
515.174927	7403.549444
515.538904	7534.765637
515.902822	7764.566635
516.266684	7851.360181
516.630488	8060.986482
516.994235	8187.138836
517.357925	8430.097246
517.721558	8615.246223
518.085133	8821.837749
518.448651	9012.516873
518.812112	9142.873550
519.175516	9335.722890
519.538863	9548.101660
519.902152	9722.964164
520.265385	9981.759358
520.628560	10166.192492
520.991678	10309.522578
521.354739	10538.151508
521.717743	10788.570826
522.080690	10955.140631
522.443580	11260.755542
522.806413	11473.346041
523.169189	11648.609316
523.531908	11884.560522
523.894569	12044.788555
524.257174	12286.189248
524.619722	12574.507960
524.982213	12786.596864
525.344647	12978.800937
525.707025	13211.114950
526.069345	13521.123227
526.431608	13718.643196
526.793815	14014.785779
527.155964	14113.783958
527.518057	14366.489439
527.880093	14531.917423
528.242072	14902.061623
528.603995	15037.051120
528.965860	15267.028559
529.327669	15524.384504
529.689421	15711.136569
530.051117	15935.634273
530.412755	16211.902107
530.774337	16465.275540
531.135862	16636.248793
531.497331	16929.699400
531.858743	17134.758415
532.220098	17490.802508
532.581396	17635.478582
532.942638	17750.474863
533.303824	18101.223224
533.664953	18343.443105
534.026025	18474.971850
534.387040	18895.880470
534.747999	19117.618142
535.108902	19433.852244
535.469748	19482.706066
535.830537	19770.402195
536.191270	20100.055848
536.551947	20193.967503
536.912567	20560.749254
537.273131	20863.891479
537.633638	20890.332331
537.994089	21284.716919
538.354483	21345.228410
538.714821	21852.577694
539.075103	22260.097010
539.435328	22406.948342
539.795497	22593.092947
540.155609	22835.748888
540.515665	23317.567249
540.875665	23281.197845
541.235609	23705.665519
541.595496	23932.635909
541.955328	24539.179978
542.315102	24433.328350
542.674821	24574.909156
543.034483	24852.205385
543.394090	25067.394599
543.753640	25288.791993
544.113134	26075.640492
544.472571	25781.363136
544.831953	26722.420530
545.191278	26516.368408
545.550548	26611.439528
545.909761	27105.550743
546.268918	27457.206512
546.628019	27882.203507
546.987064	27867.616929
547.346053	27656.967274
547.704986	28441.030535
548.063863	28392.194357
548.422684	28749.367668
548.781449	28889.252126
549.140158	29382.420645
549.498811	29497.795013
549.857408	29367.168634
550.215949	30125.832041
550.574434	30313.501596
550.932864	30380.906864
551.291237	31092.435482
551.649555	31026.169515
552.007817	31412.994894
552.366022	31399.960990
552.724173	31734.411301
553.082267	32211.697665
553.440305	32635.507469
553.798288	32371.242622
554.156215	32801.676503
554.514086	33155.663805
554.871902	33172.642411
555.229661	33390.203488
555.587365	33466.733244
555.945014	33761.081176
556.302606	33897.855242
556.660143	34234.548866
557.017625	34504.356461
557.375050	34540.289806
557.732421	35015.466447
558.089735	35174.376219
558.446994	35300.979756
558.804197	35844.053178
559.161345	35971.110419
559.518437	35587.380309
559.875474	35998.574626
560.232455	36318.166135
560.589381	36621.371375
560.946251	36550.591054
561.303065	37265.867770
561.659825	37291.353324
562.016528	37191.165432
562.373177	37116.659699
562.729770	37684.109620
563.086307	37456.516647
563.442789	37992.146805
563.799216	38180.398613
564.155587	38173.464506
564.511904	38342.464148
564.868164	38574.079961
565.224370	38935.069426
565.580520	38852.986839
565.936615	39186.254999
566.292654	39071.256197
566.648638	39426.750805
567.004567	39532.909943
567.360441	39688.946257
567.716260	39711.533147
568.072023	40099.195358
568.427732	40206.705525
568.783385	39950.493922
569.138982	40411.331001
569.494525	40501.000525
569.850013	40425.294997
570.205445	40519.559533
570.560823	40594.350091
570.916145	40592.999062
571.271412	40735.003325
571.626625	40634.132357
571.981782	40807.248100
572.336884	40618.802208
572.691931	41018.646366
573.046923	40755.901428
573.401860	40718.140665
573.756743	40800.898767
574.111570	41015.931705
574.466342	40970.561320
574.821059	41168.668584
575.175722	40837.351351
575.530330	40957.134207
575.884882	40791.658332
576.239380	40852.157219
576.593823	40912.376323
576.948211	40909.323904
577.302544	40556.997662
577.656823	40676.752792
578.011047	40974.508544
578.365216	40794.123456
578.719330	40679.676661
579.073389	40643.884469
579.427394	40786.541561
579.781344	40823.989772
580.135239	40594.624834
580.489080	40735.855280
580.842866	40331.113640
581.196597	40817.237147
581.550273	40827.427839
581.903895	40763.836204
582.257463	41232.842473
582.610975	40731.562737
582.964434	41053.616851
583.317837	40779.141147
583.671186	40693.814577
584.024481	40970.793213
584.377721	40591.842117
584.730906	40895.367470
585.084037	40991.905566
585.437113	40788.439555
585.790135	40871.762267
586.143103	40577.195045
586.496016	40735.013407
586.848874	40802.927832
587.201679	40889.665925
587.554428	40425.350450
587.907124	40664.182675
588.259765	40480.956897
588.612352	40772.017997
588.964884	40243.823541
589.317362	40567.258930
589.669786	40560.922200
590.022155	40386.682279
590.374470	40814.247742
590.726731	40424.558988
591.078937	40003.443681
591.431090	40149.301906
591.783188	39854.230569
592.135232	39608.532292
592.487222	39875.670596
592.839157	39985.353501
593.191038	39718.537831
593.542866	39527.004231
593.894639	38989.740740
594.246358	39283.448445
594.598022	39291.179054
594.949633	38953.187333
595.301190	38952.552148
595.652692	38838.276752
596.004141	39180.934061
596.355535	38266.322560
596.706876	38251.103316
597.058162	38118.526011
597.409395	38579.710930
597.760573	38687.153042
598.111698	38301.434196
598.462768	38332.999381
598.813785	38393.896520
599.164748	37922.057123
599.515657	38307.649939
599.866511	37842.462344
600.217312	38451.494223
600.568060	37473.217990
600.918753	38212.220897
601.269392	38203.290493
601.619978	37874.934937
601.970510	38097.574976
602.320988	38289.685787
602.671412	38594.942776
603.021783	38373.565546
603.372100	38054.924294
603.722363	38182.765435
604.072572	38277.211452
604.422728	38291.934142
604.772830	38128.454564
605.122878	38235.347190
605.472872	38183.065383
605.822813	38482.136877
606.172701	38316.093872
606.522534	38566.377078
606.872314	38821.829987
607.222041	38618.144687
607.571714	38998.771967
607.921333	38477.302410
608.270899	38768.605485
608.620411	39109.770613
608.969870	38928.200854
609.319276	38934.724107
609.668627	39006.895786
610.017926	39487.655505
610.367171	39652.218931
610.716362	39745.966749
611.065500	39699.736847
611.414585	39917.164333
611.763616	40202.110513
612.112594	40136.688939
612.461518	40361.632786
612.810389	40650.309419
613.159207	40528.447087
613.507971	40614.156785
613.856682	41084.680441
614.205340	40960.037912
614.553945	41652.216061
614.902496	41131.918573
615.250994	41599.324275
615.599439	41682.246215
615.947830	41898.060531
616.296169	41949.591206
616.644454	42094.695778
616.992686	42266.266408
617.340864	42805.017040
617.688990	42513.494675
618.037063	43116.678815
618.385082	43087.994650
618.733048	43389.911874
619.080961	43383.754105
619.428821	43406.915686
619.776628	43513.949465
620.124382	43341.839431
620.472083	43487.942152
620.819731	43606.741983
621.167326	43297.893173
621.514868	43293.076350
621.862357	42861.732542
622.209793	42894.643715
622.557176	42551.182341
622.904506	42316.627535
623.251783	41975.510298
623.599007	41766.622527
623.946179	41542.765049
624.293297	41500.121929
624.640363	40916.252970
624.987376	40921.941912
625.334336	40692.743332
625.681243	40351.588287
626.028097	40313.560342
626.374899	40166.439309
626.721647	40146.801494
627.068343	40048.098222
627.414987	39816.852933
627.761577	39602.308988
628.108115	39919.475702
628.454600	39392.876772
628.801032	39584.579249
629.147412	39556.734436
629.493739	39563.663502
629.840014	39230.927184
630.186236	39565.932021
630.532405	39186.018065
630.878521	39406.155171
631.224585	39284.643198
631.570597	38983.419133
631.916556	39160.996298
632.262462	39123.636306
632.608316	39146.364348
632.954117	39027.783807
633.299866	39016.363073
633.645562	38940.160992
633.991206	38459.388670
634.336797	38029.799183
634.682336	38027.071919
635.027823	37773.892570
635.373257	37618.887171
635.718639	37381.045533
636.063968	37249.962930
636.409245	36676.813985
636.754470	36724.669658
637.099642	36494.089802
637.444762	36032.352877
637.789829	36170.291449
638.134845	35834.812743
638.479808	35792.371269
638.824719	35683.714239
639.169577	35314.835368
639.514383	35378.129575
