Dividing Wavelength (nm)	Counts (n)	Blue Motor Position (mm): 35.400000	Red Motor Position (mm): 0.000000	
326.493990	1968.878087
326.888308	1968.878087
327.282561	1968.878087
327.676750	1943.566454
328.070874	1947.160797
328.464933	1952.317897
328.858929	1962.881635
329.252859	1975.865127
329.646726	1989.617394
330.040528	2003.626761
330.434265	2023.672909
330.827938	2042.509180
331.221547	2061.416028
331.615091	2082.954358
332.008571	2103.149220
332.401986	2123.223095
332.795338	2146.810653
333.188625	2163.131389
333.581847	2183.666529
333.975006	2200.057841
334.368100	2220.469473
334.761129	2236.707029
335.154095	2250.542476
335.546996	2291.549742
335.939833	2372.666949
336.332606	2386.215050
336.725315	2395.599158
337.117960	2406.997206
337.510540	2414.977353
337.903056	2425.914136
338.295508	2428.757347
338.687896	2437.995261
339.080220	2444.337033
339.472480	2451.034206
339.864676	2454.303394
340.256807	2455.004114
340.648875	2460.718262
341.040879	2460.070474
341.432818	2460.985443
341.824694	2462.540639
342.216506	2461.918057
342.608253	2463.690022
342.999937	2459.614250
343.391557	2458.598457
343.783113	2459.828499
344.174605	2455.893878
344.566033	2454.976388
344.957397	2454.421861
345.348697	2451.971860
345.739934	2450.323403
346.131106	2449.226952
346.522215	2447.386931
346.913260	2444.049687
347.304241	2447.117229
347.695159	2438.484253
348.086012	2442.842331
348.476802	2439.374017
348.867528	2437.029880
349.258191	2436.233378
349.648789	2434.000147
350.039324	2435.756989
350.429796	2436.039294
350.820203	2433.821186
351.210548	2433.105342
351.600828	2433.327153
351.991045	2430.957811
352.381198	2430.098294
352.771288	2431.046031
353.161314	2428.457398
353.551276	2430.362954
353.941175	2426.756009
354.331010	2430.521751
354.720782	2431.265321
355.110490	2432.576021
355.500135	2432.540733
355.889717	2431.104004
356.279235	2432.941505
356.668689	2432.248346
357.058080	2432.220620
357.447408	2429.526123
357.836672	2429.997471
358.225873	2429.342121
358.615010	2431.466967
359.004084	2434.521906
359.393095	2435.751948
359.782043	2437.634819
360.170927	2435.915785
360.559748	2433.556525
360.948505	2439.043821
361.337199	2440.223451
361.725830	2438.088523
362.114398	2443.671601
362.502903	2440.720005
362.891344	2441.140941
363.279722	2437.952412
363.668037	2440.152875
364.056289	2444.221086
364.444478	2443.704368
364.832603	2442.754111
365.220665	2443.079265
365.608665	2444.518514
365.996601	2448.924483
366.384474	2447.225614
366.772284	2447.873402
367.160031	2447.505398
367.547715	2445.632609
367.935336	2450.880451
368.322893	2449.902467
368.710388	2446.686211
369.097820	2452.347426
369.485189	2449.186623
369.872495	2451.495471
370.259738	2448.518670
370.646918	2450.348609
371.034035	2451.440019
371.421090	2450.855245
371.808081	2451.359360
372.195010	2450.451952
372.581875	2449.869699
372.968678	2453.428754
373.355418	2452.591922
373.742096	2452.594443
374.128710	2454.691563
374.515262	2455.203240
374.901751	2456.894547
375.288177	2459.057202
375.674540	2458.598457
376.060841	2458.732048
376.447079	2460.115844
376.833254	2458.623663
377.219367	2457.209619
377.605417	2460.153653
377.991404	2455.273816
378.377329	2460.214147
378.763191	2457.373457
379.148991	2462.107100
379.534727	2462.190279
379.920402	2463.085084
380.306013	2461.986113
380.691563	2466.001392
381.077049	2465.373768
381.462474	2467.632205
381.847835	2468.680765
382.233134	2467.339818
382.618371	2465.721608
383.003545	2468.738738
383.388657	2468.582462
383.773706	2470.856023
384.158693	2470.223358
384.543618	2470.172946
384.928480	2471.173615
385.313280	2473.169912
385.698017	2474.848617
386.082692	2476.857516
386.467305	2476.403812
386.851856	2477.772486
387.236344	2478.480768
387.620770	2477.931282
388.005133	2479.899853
388.389435	2479.249544
388.773674	2478.463124
389.157851	2484.320945
389.541965	2480.167034
389.926018	2482.022178
390.310008	2486.410503
390.693936	2482.637199
391.077802	2486.518888
391.461606	2486.375215
391.845348	2486.869248
392.229027	2488.971409
392.612645	2484.056284
392.996200	2489.515854
393.379694	2489.457880
393.763125	2491.829743
394.146494	2493.689929
394.529801	2492.036431
394.913047	2494.854436
395.296230	2495.517347
395.679351	2496.969200
396.062410	2495.003150
396.445408	2497.564056
396.828343	2497.405259
397.211217	2495.600526
397.594028	2500.876094
397.976778	2497.649755
398.359466	2501.763337
398.742092	2504.477998
399.124656	2505.861795
399.507158	2506.416322
399.889598	2509.667866
400.271977	2511.177692
400.654294	2511.651560
401.036549	2514.174658
401.418742	2517.784124
401.800874	2519.288908
402.182944	2520.677746
402.564952	2523.510875
402.946898	2522.858045
403.328783	2526.414579
403.710606	2529.522451
404.092367	2536.212062
404.474067	2537.900848
404.855705	2544.305634
405.237282	2547.751263
405.618797	2556.144784
406.000250	2563.209961
406.381642	2573.783781
406.762972	2583.311562
407.144240	2590.621235
407.525447	2606.205962
407.906593	2613.308948
408.287677	2629.624642
408.668700	2650.691624
409.049661	2667.095539
409.430560	2691.245187
409.811399	2715.566233
410.192176	2742.155799
410.572891	2772.669903
410.953545	2817.410144
411.334138	2835.805314
411.714669	2894.388563
412.095139	2910.220307
412.475547	2975.742704
412.855894	3015.711492
413.236180	3083.656164
413.616405	3124.280302
413.996568	3203.128989
414.376670	3265.427568
414.756711	3324.398986
415.136691	3423.024120
415.516609	3511.302286
415.896466	3599.340996
416.276262	3718.171075
416.655997	3857.601828
417.035670	3962.954382
417.415283	4151.261643
417.794834	4264.128036
418.174324	4345.550233
418.553753	4440.316363
418.933121	4638.295078
419.312428	4729.602977
419.691674	4840.188248
420.070859	5060.940375
420.449983	5126.084686
420.829045	5382.076998
421.208047	5462.984997
421.586988	5716.522268
421.965867	5933.543941
422.344686	6091.107725
422.723444	6407.051960
423.102141	6186.514082
423.480777	6690.866401
423.859352	6707.282919
424.237866	7227.368679
424.616319	7317.524674
424.994712	7716.582413
425.373044	7831.301430
425.751314	8268.172863
426.129524	8121.296326
426.507673	8734.950942
426.885762	8812.667890
427.263789	9079.952388
427.641756	9348.928193
428.019662	9563.252848
428.397508	9775.866032
428.775292	10108.425910
429.153016	10294.197471
429.530679	10524.610969
429.908282	10731.646116
430.285824	10761.477144
430.663305	11338.538025
431.040726	11316.041876
431.418086	11398.305945
431.795385	11939.879623
432.172624	12380.897406
432.549802	12309.859986
432.926920	12611.179834
433.303977	12721.235784
433.680974	13066.955594
434.057910	13441.961988
434.434786	13640.228048
434.811601	13759.569804
435.188355	14634.923319
435.565050	14577.681017
435.941683	14700.947311
436.318257	15494.130019
436.694770	15529.271902
437.071222	16135.984850
437.447614	15607.172853
437.823946	15766.004487
438.200218	16048.430090
438.576429	16016.617889
438.952580	16370.998401
439.328670	16480.484701
439.704700	16950.627750
440.080670	16732.897795
440.456580	17348.034511
440.832429	17630.208056
441.208218	16907.057057
441.583947	17385.563380
441.959616	17592.684227
442.335224	17916.059123
442.710773	18138.545407
443.086261	18707.404330
443.461689	18244.578516
443.837057	18458.230178
444.212365	19110.048850
444.587612	19210.085507
444.962800	18920.168749
445.337927	19372.934941
445.712995	18301.092372
446.088002	20047.670698
446.462949	20301.376847
446.837837	20522.383553
447.212664	20555.289684
447.587431	23231.318148
447.962139	26015.267633
448.336786	28294.166600
448.711374	26915.690807
449.085901	23536.716289
449.460369	23530.959291
449.834776	23500.707327
450.209124	25896.213223
450.583412	25516.934452
450.957640	26060.844705
451.331808	24817.968389
451.705917	23560.056831
452.079965	23613.445171
452.453954	23997.543286
452.827883	23917.734258
453.201752	23759.373972
453.575562	23934.138173
453.949311	25009.207081
454.323001	25105.341884
454.696632	24891.118052
455.070202	26390.281588
455.443713	26560.685191
455.817164	27128.019166
456.190556	27669.076126
456.563888	27153.807188
456.937160	27577.556498
457.310373	25973.317671
457.683526	26401.719966
458.056619	26392.376188
458.429653	26350.509405
458.802628	26920.177434
459.175542	27039.688068
459.548398	28321.547627
459.921194	29860.289262
460.293930	30536.900328
460.666607	32516.886598
461.039224	34249.984879
461.411782	34613.048779
461.784280	33422.368570
462.156719	32920.032713
462.529099	32354.432895
462.901419	31096.672572
463.273680	30081.623642
463.645882	30175.220225
464.018024	30162.216569
464.390106	30992.045945
464.762130	33644.383506
465.134094	37676.275667
465.505999	42914.233638
465.877845	47421.945188
466.249631	48532.841575
466.621358	46737.684170
466.993026	44581.197022
467.364634	42498.935823
467.736184	40594.125760
468.107674	39347.506387
468.479105	38609.584808
468.850477	37933.477857
469.221790	36535.132356
469.593043	34861.159248
469.964238	33990.902339
470.335373	33915.612706
470.706449	35549.680040
471.077467	38054.798265
471.448425	42574.129674
471.819324	45408.140337
472.190164	43608.004793
472.560945	40104.375143
472.931667	37064.869405
473.302330	35983.012584
473.672934	35174.852608
474.043479	35675.028331
474.413965	34908.596506
474.784393	34536.947521
475.154761	35415.907982
475.525070	35451.100277
475.895321	35007.662740
476.265513	35587.309733
476.635645	36528.099946
477.005719	36356.063009
477.375734	36817.744482
477.745691	37499.550457
478.115588	38777.382134
478.485427	40726.635009
478.855207	44048.800764
479.224928	46641.002401
479.594591	48245.412627
479.964194	47206.145994
480.333739	47302.237948
480.703226	47329.525714
481.072653	47991.693875
481.442022	48478.437443
481.811333	48737.603162
482.180584	47451.267059
482.549777	46937.210519
482.918912	46404.388284
483.287988	46129.300080
483.657005	45314.483260
484.025964	44660.280123
484.394864	44672.187328
484.763706	44237.115587
485.132489	43371.529307
485.501213	43218.668919
485.869879	43352.677912
486.238487	42959.903972
486.607036	43170.576312
486.975527	42645.963595
487.343959	42835.944519
487.712333	42920.028445
488.080648	42841.222607
488.448905	43263.890590
488.817104	43077.808998
489.185244	44010.251061
489.553326	45675.462643
489.921350	48392.337056
490.289315	51307.895945
490.657222	51949.034932
491.025070	52239.438161
491.392861	51294.012607
491.760593	50022.719307
492.128267	48299.370617
492.495883	46763.807429
492.863440	45380.298044
493.230939	44063.939349
493.598380	42999.648429
493.965763	42678.239583
494.333088	41891.242371
494.700354	41430.561568
495.067563	41155.808601
495.434713	41027.891842
495.801805	41089.706471
496.168839	40728.807747
496.535815	40404.482593
496.902733	40440.925094
497.269593	40054.402185
497.636395	39968.652158
498.003139	40373.509744
498.369825	39845.698416
498.736453	40138.667592
499.103023	39675.055358
499.469535	39566.967978
499.835989	39639.847940
500.202385	39321.194084
500.568723	39343.057569
500.935003	39542.152899
501.301226	39338.765026
501.667390	39947.247419
502.033497	40180.612513
502.399546	39615.433632
502.765537	38954.803023
503.131470	39330.736989
503.497345	39665.015900
503.863163	38363.884010
504.228923	38951.619534
504.594625	39358.662460
504.960269	38660.407200
505.325856	39319.558230
505.691385	38716.487516
506.056856	38844.379068
506.422270	39267.427658
506.787625	38847.567598
507.152924	39035.970641
507.518164	39134.941094
507.883347	38376.189467
508.248472	38601.760937
508.613540	39066.278058
508.978550	39361.654385
509.343503	39109.576528
509.708398	39301.871342
510.073236	39810.669958
510.438016	39815.244805
510.802738	39283.360225
511.167403	39881.815763
511.532010	40126.160489
511.896561	40409.632132
512.261053	41216.592313
512.625488	40775.471187
512.989866	40651.993165
513.354186	40506.971772
513.718449	40496.579433
514.082655	41157.981338
514.446803	40829.953457
514.810894	41340.385408
515.174927	41258.786771
515.538904	41165.301093
515.902822	41824.502535
516.266684	41272.838987
516.630488	41676.456449
516.994235	41525.531865
517.357925	42071.594691
517.721558	42231.610996
518.085133	42526.503373
518.448651	42676.802854
518.812112	42461.099443
519.175516	42555.817682
519.538863	42894.298396
519.902152	42855.017725
520.265385	43300.703616
520.628560	43338.759286
520.991678	43126.357831
521.354739	43370.637023
521.717743	43664.679965
522.080690	43564.580293
522.443580	44117.370539
522.806413	44165.601778
523.169189	44099.320688
523.531908	44280.431701
523.894569	44132.998116
524.257174	44296.646572
524.619722	44618.791427
524.982213	44577.169140
525.344647	44508.957287
525.707025	44551.033278
526.069345	44945.949708
526.431608	44873.788112
526.793815	45170.578483
527.155964	44715.846241
527.518057	44883.449483
527.880093	44686.806674
528.242072	45194.251741
528.603995	44909.529892
528.965860	44901.269962
529.327669	44981.431870
529.689421	44904.975210
530.051117	44874.506476
530.412755	44999.453995
530.774337	45073.594244
531.135862	44861.681781
531.497331	45086.749135
531.858743	45002.256876
532.220098	45333.664851
532.581396	45042.061827
532.942638	44725.681532
533.303824	45003.456671
533.664953	44979.866592
534.026025	44708.471033
534.387040	45171.498493
534.747999	45126.299508
535.108902	45273.463392
535.469748	44822.388507
535.830537	44933.394715
536.191270	45133.263862
536.551947	44785.204956
536.912567	45092.826246
537.273131	45199.572679
537.633638	44715.778186
537.994089	45050.462910
538.354483	44656.693342
538.714821	45218.482047
539.075103	45562.583647
539.435328	45336.808010
539.795497	45227.241052
540.155609	45234.515437
540.515665	45675.417273
540.875665	45151.399413
541.235609	45472.233567
541.595496	45451.690865
541.955328	46115.593183
542.315102	45487.586401
542.674821	45299.619418
543.034483	45316.968549
543.394090	45300.105890
543.753640	45255.380773
544.113134	46246.910199
544.472571	45294.600950
544.831953	46507.855446
545.191278	45745.620381
545.550548	45472.997302
545.909761	45910.808911
546.268918	46123.071734
546.628019	46445.330015
546.987064	45994.292939
547.346053	45291.407379
547.704986	46160.093968
548.063863	45735.031438
548.422684	45937.640452
548.781449	45782.647656
549.140158	46194.056222
549.498811	46029.848197
549.857408	45487.296535
550.215949	46305.203582
550.574434	46246.264932
550.932864	46039.335648
551.291237	46731.052532
551.649555	46358.755759
552.007817	46592.506501
552.366022	46248.714932
552.724173	46434.824250
553.082267	46820.792632
553.440305	47112.572097
553.798288	46452.143134
554.156215	46759.373735
554.514086	46956.407233
554.871902	46712.896817
555.229661	46732.338027
555.587365	46546.740386
555.945014	46649.925243
556.302606	46589.242354
556.660143	46819.555029
557.017625	46901.148625
557.375050	46690.748507
557.732421	47035.160138
558.089735	47013.825975
558.446994	46947.015563
558.804197	47404.326355
559.161345	47348.777881
559.518437	46635.167266
559.875474	46919.107735
560.232455	47058.888849
560.589381	47239.324348
560.946251	46945.601519
561.303065	47604.109802
561.659825	47440.209288
562.016528	47109.640666
562.373177	46831.845362
562.729770	47304.448494
563.086307	46836.321907
563.442789	47282.229609
563.799216	47330.382710
564.155587	47125.621123
564.511904	47145.321952
564.868164	47245.030934
565.224370	47496.493771
565.580520	47222.363386
565.936615	47430.121939
566.292654	47145.223650
566.648638	47381.545381
567.004567	47351.459774
567.360441	47374.432312
567.716260	47227.396978
568.072023	47539.908188
568.427732	47514.357099
568.783385	47069.588698
569.138982	47461.989593
569.494525	47443.528888
569.850013	47194.228707
570.205445	47160.105136
570.560823	47124.174312
570.916145	46979.261304
571.271412	47023.462141
571.626625	46774.156918
571.981782	46834.272678
572.336884	46533.943417
572.691931	46847.881273
573.046923	46456.274360
573.401860	46312.099880
573.756743	46292.552806
574.111570	46407.438182
574.466342	46254.287928
574.821059	46373.604478
575.175722	45888.466517
575.530330	45924.563699
575.884882	45632.756508
576.239380	45596.477845
576.593823	45570.775522
576.948211	45488.571947
577.302544	45024.430392
577.656823	45063.174179
578.011047	45281.549402
578.365216	45001.485580
578.719330	44806.392926
579.073389	44664.963355
579.427394	44745.679790
579.781344	44698.252614
580.135239	44363.502355
580.489080	44444.942195
580.842866	43939.566522
581.196597	44394.258434
581.550273	44337.084188
581.903895	44207.811359
582.257463	44622.418537
582.610975	44024.633473
582.964434	44310.991176
583.317837	43954.906753
583.671186	43780.858396
584.024481	43997.562477
584.377721	43550.644023
584.730906	43825.308770
585.084037	43843.320813
585.437113	43561.671547
585.790135	43607.788023
586.143103	43212.425450
586.496016	43334.176877
586.848874	43364.007905
587.201679	43364.607802
587.554428	42858.627191
587.907124	43061.097573
588.259765	42813.009790
588.612352	43063.222420
588.964884	42456.229688
589.317362	42741.964809
589.669786	42681.473483
590.022155	42444.955148
590.374470	42870.229407
590.726731	42392.174267
591.078937	41920.791094
591.431090	42015.310208
591.783188	41660.352483
592.135232	41356.338139
592.487222	41609.439350
592.839157	41688.257791
593.191038	41365.180323
593.542866	41129.942440
593.894639	40549.060365
594.246358	40815.069451
594.598022	40802.469087
594.949633	40404.888406
595.301190	40363.956758
595.652692	40195.642713
596.004141	40515.985355
596.355535	39545.104494
596.706876	39499.940797
597.058162	39329.196916
597.409395	39791.982401
597.760573	39866.223474
598.111698	39456.125608
598.462768	39466.354109
598.813785	39512.064772
599.164748	38972.338677
599.515657	39347.730718
599.866511	38832.749127
600.217312	39436.621384
600.568060	38410.988552
600.918753	39147.765789
601.269392	39112.197928
601.619978	38765.442161
601.970510	38965.734765
602.320988	39150.896346
602.671412	39460.639962
603.021783	39194.940907
603.372100	38848.893422
603.722363	38949.053587
604.072572	39041.042042
604.422728	39040.981548
604.772830	38859.159732
605.122878	38960.096234
605.472872	38900.857636
605.822813	39156.086214
606.172701	39000.100311
606.522534	39237.102597
606.872314	39484.164506
607.222041	39255.631358
607.571714	39648.367490
607.921333	39090.919218
608.270899	39393.748891
608.620411	39724.095703
608.969870	39513.516624
609.319276	39514.590390
609.668627	39558.639992
610.017926	40050.139889
610.367171	40206.425741
610.716362	40298.010903
611.065500	40243.735321
611.414585	40442.273603
611.763616	40725.094937
612.112594	40639.876752
612.461518	40868.326720
612.810389	41127.724333
613.159207	41016.632425
613.507971	41087.231264
613.856682	41544.418548
614.205340	41441.788217
614.553945	42149.399859
614.902496	41598.996600
615.250994	42052.561814
615.599439	42129.225162
615.947830	42342.415558
616.296169	42380.254458
616.644454	42513.968544
616.992686	42680.581199
617.340864	43198.408522
617.688990	42925.866101
618.037063	43521.836350
618.385082	43488.456350
618.733048	43806.739680
619.080961	43801.070902
619.428821	43813.144466
619.776628	43917.098099
620.124382	43740.937499
620.472083	43872.559505
620.819731	43996.029966
621.167326	43658.481866
621.514868	43634.314574
621.862357	43197.934653
622.209793	43225.688726
622.557176	42884.498392
622.904506	42647.428051
623.251783	42303.170175
623.599007	42082.952410
623.946179	41856.460930
624.293297	41822.866681
624.640363	41226.480537
624.987376	41227.811401
625.334336	40981.183032
625.681243	40637.615794
626.028097	40607.184869
626.374899	40459.673146
626.721647	40429.927817
627.068343	40312.274848
627.414987	40087.883008
627.761577	39858.162669
628.108115	40202.617149
628.454600	39666.175366
628.801032	39826.720992
629.147412	39802.510851
629.493739	39816.847892
629.840014	39478.868774
630.186236	39796.537083
630.532405	39417.827963
630.878521	39638.378443
631.224585	39519.598776
631.570597	39211.440603
631.916556	39387.066842
632.262462	39342.172846
632.608316	39364.346361
632.954117	39249.387889
633.299866	39237.642001
633.645562	39154.142849
633.991206	38653.427723
634.336797	38241.767099
634.682336	38244.454034
635.027823	37994.581682
635.373257	37792.383522
635.718639	37574.066272
