Dividing Wavelength (nm)	Counts (n)	Blue Motor Position (mm): 17.000000	Red Motor Position (mm): 0.000000	
326.493990	1975.671042
326.888308	1975.671042
327.282561	1975.671042
327.676750	1950.392176
328.070874	1952.756477
328.464933	1958.556325
328.858929	1966.791050
329.252859	1980.092134
329.646726	1995.525627
330.040528	2008.463748
330.434265	2028.530061
330.827938	2048.608977
331.221547	2068.627398
331.615091	2089.097004
332.008571	2107.295569
332.401986	2130.482356
332.795338	2147.342495
333.188625	2170.030208
333.581847	2186.645851
333.975006	2205.638398
334.368100	2224.714124
334.761129	2241.647360
335.154095	2256.549011
335.546996	2288.814916
335.939833	2347.345233
336.332606	2359.605319
336.725315	2371.247864
337.117960	2380.866385
337.510540	2385.988198
337.903056	2396.022614
338.295508	2401.048645
338.687896	2409.376631
339.080220	2418.349885
339.472480	2421.114958
339.864676	2425.286513
340.256807	2431.436720
340.648875	2431.224992
341.040879	2434.892431
341.432818	2434.221958
341.824694	2435.333532
342.216506	2434.358069
342.608253	2432.276072
342.999937	2432.838161
343.391557	2432.127358
343.783113	2431.575352
344.174605	2430.413366
344.566033	2428.268355
344.957397	2427.179466
345.348697	2424.316090
345.739934	2423.244845
346.131106	2422.080339
346.522215	2420.547828
346.913260	2418.642272
347.304241	2415.607497
347.695159	2414.097672
348.086012	2415.577250
348.476802	2411.844276
348.867528	2409.338822
349.258191	2410.652043
349.648789	2407.763462
350.039324	2407.597104
350.429796	2405.653739
350.820203	2406.021743
351.210548	2402.573594
351.600828	2404.574932
351.991045	2401.603172
352.381198	2399.957235
352.771288	2405.744480
353.161314	2400.247101
353.551276	2402.825652
353.941175	2400.448747
354.331010	2399.233829
354.720782	2405.323543
355.110490	2407.385375
355.500135	2402.210631
355.889717	2402.361865
356.279235	2402.152658
356.668689	2404.832031
357.058080	2403.120559
357.447408	2401.585528
357.836672	2399.679972
358.225873	2401.895559
358.615010	2400.559653
359.004084	2405.515107
359.393095	2409.845458
359.782043	2406.926630
360.170927	2408.567526
360.559748	2407.828997
360.948505	2409.041394
361.337199	2409.979049
361.725830	2409.878226
362.114398	2410.044584
362.502903	2408.413771
362.891344	2408.532238
363.279722	2409.301014
363.668037	2414.506005
364.056289	2412.895356
364.444478	2412.925603
364.832603	2412.635737
365.220665	2413.981725
365.608665	2413.207908
365.996601	2413.349060
366.384474	2414.158165
366.772284	2418.281829
367.160031	2414.301838
367.547715	2416.308218
367.935336	2413.235634
368.322893	2417.394586
368.710388	2418.309556
369.097820	2418.604463
369.485189	2417.820564
369.872495	2419.557241
370.259738	2416.892991
370.646918	2417.611356
371.034035	2415.869637
371.421090	2418.483475
371.808081	2416.182189
372.195010	2417.306366
372.581875	2419.731161
372.968678	2420.646130
373.355418	2418.972467
373.742096	2421.304001
374.128710	2419.199319
374.515262	2421.722417
374.901751	2419.038002
375.288177	2420.930956
375.674540	2423.035637
376.060841	2424.323652
376.447079	2421.372057
376.833254	2422.372726
377.219367	2416.981212
377.605417	2422.526481
377.991404	2419.282498
378.377329	2420.865421
378.763191	2419.579926
379.148991	2426.990423
379.534727	2423.239804
379.920402	2424.389187
380.306013	2423.028076
380.691563	2426.176276
381.077049	2425.236101
381.462474	2425.624270
381.847835	2424.106882
382.233134	2426.025042
382.618371	2426.196441
383.003545	2423.169228
383.388657	2427.791966
383.773706	2424.863056
384.158693	2423.804413
384.543618	2429.763057
384.928480	2427.035793
385.313280	2427.292892
385.698017	2425.851122
386.082692	2427.577717
386.467305	2428.318767
386.851856	2429.390012
387.236344	2429.768098
387.620770	2431.020825
388.005133	2431.640887
388.389435	2429.589137
388.773674	2430.199117
389.157851	2430.357913
389.541965	2429.604261
389.926018	2430.743562
390.310008	2431.149374
390.693936	2433.266659
391.077802	2430.428489
391.461606	2431.802204
391.845348	2434.143820
392.229027	2432.974272
392.612645	2433.924530
392.996200	2433.798501
393.379694	2432.860846
393.763125	2435.769592
394.146494	2432.875970
394.529801	2433.231371
394.913047	2432.576021
395.296230	2436.384613
395.679351	2433.861515
396.062410	2436.878646
396.445408	2434.330343
396.828343	2434.708429
397.211217	2433.753130
397.594028	2435.913265
397.976778	2434.559715
398.359466	2433.324632
398.742092	2433.979982
399.124656	2436.916454
399.507158	2435.202462
399.889598	2437.662545
400.271977	2433.848912
400.654294	2437.549119
401.036549	2439.157247
401.418742	2438.902669
401.800874	2440.304110
402.182944	2439.615992
402.564952	2441.138421
402.946898	2438.706064
403.328783	2441.629933
403.710606	2440.352001
404.092367	2438.910231
404.474067	2439.633636
404.855705	2438.080961
405.237282	2438.743873
405.618797	2440.251178
406.000250	2439.671445
406.381642	2441.211518
406.762972	2443.311158
407.144240	2443.217897
407.525447	2441.569439
407.906593	2441.851744
408.287677	2438.776640
408.668700	2441.937444
409.049661	2444.558844
409.430560	2445.007506
409.811399	2443.233020
410.192176	2441.403081
410.572891	2443.996755
410.953545	2442.668411
411.334138	2442.439038
411.714669	2443.575819
412.095139	2444.057249
412.475547	2444.135387
412.855894	2443.401899
413.236180	2444.170675
413.616405	2446.729060
413.996568	2447.286108
414.376670	2442.703699
414.756711	2443.399378
415.136691	2443.472475
415.516609	2446.353494
415.896466	2447.202929
416.276262	2446.802157
416.655997	2443.477516
417.035670	2443.991714
417.415283	2446.643361
417.794834	2441.214038
418.174324	2446.103957
418.553753	2443.180088
418.933121	2445.804009
419.312428	2445.393155
419.691674	2449.756273
420.070859	2447.860799
420.449983	2447.891046
420.829045	2449.000100
421.208047	2448.914401
421.586988	2448.153186
421.965867	2447.633947
422.344686	2449.534463
422.723444	2449.481530
423.102141	2449.307611
423.480777	2447.054215
423.859352	2450.701490
424.237866	2450.351129
424.616319	2450.220059
424.994712	2450.920780
425.373044	2450.862807
425.751314	2451.505554
426.129524	2448.453135
426.507673	2452.430605
426.885762	2447.702003
427.263789	2451.329113
427.641756	2452.289453
428.019662	2451.918928
428.397508	2449.415995
428.775292	2453.451439
429.153016	2451.845832
429.530679	2452.163424
429.908282	2451.891202
430.285824	2452.420523
430.663305	2451.190482
431.040726	2451.566048
431.418086	2451.896243
431.795385	2453.327931
432.172624	2453.050667
432.549802	2454.104268
432.926920	2453.045626
433.303977	2452.670060
433.680974	2453.234669
434.057910	2454.028651
434.434786	2457.353292
434.811601	2456.730710
435.188355	2457.756584
435.565050	2456.904629
435.941683	2457.522171
436.318257	2453.148970
436.694770	2453.209464
437.071222	2451.964299
437.447614	2451.747529
437.823946	2453.867334
438.200218	2455.982098
438.576429	2458.626183
438.952580	2459.941925
439.328670	2457.827161
439.704700	2457.743982
440.080670	2458.873200
440.456580	2458.245576
440.832429	2459.609208
441.208218	2456.050154
441.583947	2459.647017
441.959616	2458.900926
442.335224	2460.945114
442.710773	2459.503344
443.086261	2459.344548
443.461689	2462.404528
443.837057	2460.400670
444.212365	2464.025259
444.587612	2462.553242
444.962800	2460.420834
445.337927	2461.189610
445.712995	2460.481328
446.088002	2465.772019
446.462949	2461.565176
446.837837	2462.938891
447.212664	2464.231947
447.587431	2465.003243
447.962139	2470.286372
448.336786	2473.537917
448.711374	2470.114973
449.085901	2470.341825
449.460369	2467.538943
449.834776	2468.864767
450.209124	2469.497432
450.583412	2471.319809
450.957640	2471.735704
451.331808	2473.326188
451.705917	2469.013481
452.079965	2471.410550
452.453954	2466.543316
452.827883	2471.826445
453.201752	2469.993985
453.575562	2471.503811
453.949311	2473.225365
454.323001	2471.796198
454.696632	2472.249902
455.070202	2473.979018
455.443713	2475.566981
455.817164	2473.280818
456.190556	2472.138996
456.563888	2475.327526
456.937160	2470.331743
457.310373	2478.261478
457.683526	2474.934316
458.056619	2477.026395
458.429653	2475.703092
458.802628	2478.977322
459.175542	2477.104533
459.548398	2478.299286
459.921194	2484.318424
460.293930	2484.207519
460.666607	2486.581902
461.039224	2490.632469
461.411782	2486.508805
461.784280	2488.202633
462.156719	2485.372025
462.529099	2487.121306
462.901419	2485.440081
463.273680	2484.817498
463.645882	2487.718682
464.018024	2485.840853
464.390106	2489.825885
464.762130	2492.091883
465.134094	2496.218068
465.505999	2502.128821
465.877845	2512.354801
466.249631	2511.996879
466.621358	2511.182733
466.993026	2511.583505
467.364634	2510.295490
467.736184	2504.757782
468.107674	2503.540344
468.479105	2504.596465
468.850477	2502.983296
469.221790	2505.773575
469.593043	2503.192504
469.964238	2501.382730
470.335373	2502.466578
470.706449	2503.373986
471.077467	2506.255005
471.448425	2517.416120
471.819324	2523.457942
472.190164	2523.462984
472.560945	2515.724813
472.931667	2512.311951
473.302330	2511.737260
473.672934	2509.226765
474.043479	2510.345901
474.413965	2510.741632
474.784393	2505.534120
475.154761	2512.400172
475.525070	2512.790861
475.895321	2514.348577
476.265513	2512.695079
476.635645	2522.419465
477.005719	2525.290402
477.375734	2525.744106
477.745691	2529.688809
478.115588	2530.142512
478.485427	2537.031249
478.855207	2545.202960
479.224928	2551.602704
479.594591	2557.989846
479.964194	2558.138560
480.333739	2561.715259
480.703226	2561.347255
481.072653	2564.893707
481.442022	2567.691547
481.811333	2572.233627
482.180584	2570.317988
482.549777	2574.529872
482.918912	2573.259501
483.287988	2572.503328
483.657005	2577.292424
484.025964	2574.570201
484.394864	2576.712692
484.763706	2580.506160
485.132489	2579.369380
485.501213	2579.918866
485.869879	2583.288877
486.238487	2584.904567
486.607036	2584.629824
486.975527	2589.784404
487.343959	2594.500403
487.712333	2594.659199
488.080648	2599.269335
488.448905	2601.497525
488.817104	2602.687237
489.185244	2609.951540
489.553326	2618.655092
489.921350	2630.653038
490.289315	2643.686941
490.657222	2651.825884
491.025070	2656.005001
491.392861	2655.526091
491.760593	2655.538694
492.128267	2652.675318
492.495883	2648.586943
492.863440	2645.020326
493.230939	2640.531179
493.598380	2641.176447
493.965763	2641.534368
494.333088	2641.403298
494.700354	2641.894811
495.067563	2645.534524
495.434713	2646.331026
495.801805	2652.335041
496.168839	2655.208498
496.535815	2658.407110
496.902733	2659.337203
497.269593	2660.509272
497.636395	2663.561690
498.003139	2670.810869
498.369825	2671.241888
498.736453	2674.911848
499.103023	2675.093330
499.469535	2676.981242
499.835989	2683.605318
500.202385	2684.532890
500.568723	2690.224353
500.935003	2694.952955
501.301226	2698.317925
501.667390	2705.617516
502.033497	2713.217056
502.399546	2712.327292
502.765537	2712.349977
503.131470	2721.096379
503.497345	2728.360682
503.863163	2725.121740
504.228923	2732.300343
504.594625	2741.054307
504.960269	2743.340470
505.325856	2751.902870
505.691385	2755.426637
506.056856	2761.594488
506.422270	2770.749224
506.787625	2775.883639
507.152924	2783.647016
507.518164	2792.590023
507.883347	2791.798562
508.248472	2801.165026
508.613540	2814.077941
508.978550	2829.544201
509.343503	2834.119048
509.708398	2845.249916
510.073236	2857.880527
510.438016	2868.966024
510.802738	2872.799822
511.167403	2892.230949
511.532010	2905.542116
511.896561	2924.133891
512.261053	2944.359001
512.625488	2949.977367
512.989866	2959.641258
513.354186	2974.873105
513.718449	2987.488592
514.082655	3017.685104
514.446803	3026.746578
514.810894	3054.596432
515.174927	3070.871798
515.538904	3086.529621
515.902822	3112.786471
516.266684	3124.749129
516.630488	3151.631082
516.994235	3172.128414
517.357925	3200.386602
517.721558	3228.997670
518.085133	3257.608739
518.448651	3286.411371
518.812112	3305.570277
519.175516	3334.803928
519.538863	3370.770040
519.902152	3395.766601
520.265385	3435.362344
520.628560	3469.198569
520.991678	3494.399297
521.354739	3533.647200
521.717743	3576.330650
522.080690	3609.960187
522.443580	3660.054133
522.806413	3702.500648
523.169189	3738.703694
523.531908	3784.187505
523.894569	3824.471365
524.257174	3868.014332
524.619722	3925.203702
524.982213	3969.386894
525.344647	4012.929861
525.707025	4061.551790
526.069345	4128.082418
526.431608	4178.972866
526.793815	4241.155498
527.155964	4276.123462
527.518057	4339.430272
527.880093	4384.684710
528.242072	4461.771514
528.603995	4511.510058
528.965860	4569.606836
529.327669	4633.599243
529.689421	4690.468499
530.051117	4756.618520
530.412755	4825.881453
530.774337	4895.741763
531.135862	4953.031956
531.497331	5029.397875
531.858743	5086.337708
532.220098	5180.733314
532.581396	5237.743723
532.942638	5287.683913
533.303824	5384.453902
533.664953	5453.046362
534.026025	5512.683212
534.387040	5621.806549
534.747999	5697.338157
535.108902	5789.808042
535.469748	5837.860321
535.830537	5920.323515
536.191270	6024.559453
536.551947	6083.351910
536.912567	6190.262180
537.273131	6292.247243
537.633638	6333.471279
537.994089	6457.284538
538.354483	6508.822774
538.714821	6653.292161
539.075103	6774.877230
539.435328	6859.089705
539.795497	6937.378824
540.155609	7033.732918
540.515665	7180.659868
540.875665	7218.304684
541.235609	7350.342586
541.595496	7452.806558
541.955328	7638.641133
542.315102	7666.954773
542.674821	7748.472752
543.034483	7860.421655
543.394090	7964.448385
543.753640	8065.221051
544.113134	8305.699213
544.472571	8286.862941
544.831953	8565.979027
545.191278	8580.384124
545.550548	8656.056884
545.909761	8838.571859
546.268918	8989.115837
546.628019	9161.500613
546.987064	9213.484992
547.346053	9217.364159
547.704986	9473.994178
548.063863	9537.462305
548.422684	9692.928969
548.781449	9801.744796
549.140158	9991.748405
549.498811	10107.326939
549.857408	10130.178489
550.215949	10414.623074
550.574434	10531.628255
550.932864	10632.242124
551.291237	10901.601057
551.649555	10977.477984
552.007817	11161.384317
552.366022	11237.591440
552.724173	11409.663665
553.082267	11648.707618
553.440305	11859.127900
553.798288	11866.324148
554.156215	12084.316243
554.514086	12282.683126
554.871902	12385.452088
555.229661	12553.738407
555.587365	12671.865244
555.945014	12863.978576
556.302606	13017.370805
556.660143	13237.671749
557.017625	13420.718566
557.375050	13536.788612
557.732421	13791.535760
558.089735	13964.119662
558.446994	14101.057565
558.804197	14399.224171
559.161345	14558.854828
559.518437	14521.537687
559.875474	14776.007571
560.232455	15007.310833
560.589381	15233.930863
560.946251	15325.516026
561.303065	15705.485435
561.659825	15834.417986
562.016528	15913.372538
562.373177	16014.301479
562.729770	16352.015937
563.086307	16383.472737
563.442789	16720.700723
563.799216	16930.740398
564.155587	17049.744396
564.511904	17253.901045
564.868164	17476.742730
565.224370	17765.452131
565.580520	17884.756078
565.936615	18166.049942
566.292654	18249.085308
566.648638	18545.187561
567.004567	18736.421212
567.360441	18952.230487
567.716260	19094.764071
568.072023	19420.460418
568.427732	19628.299630
568.783385	19658.435647
569.138982	20012.216263
569.494525	20198.265087
569.850013	20305.180398
570.205445	20519.336175
570.560823	20703.144206
570.916145	20839.305771
571.271412	21075.529199
571.626625	21160.787714
571.981782	21405.971793
572.336884	21468.245166
572.691931	21829.990805
573.046923	21843.843895
573.401860	21980.524700
573.756743	22192.439684
574.111570	22443.216923
574.466342	22576.429413
574.821059	22845.627029
575.175722	22821.797495
575.530330	23032.638713
575.884882	23111.230302
576.239380	23297.556389
576.593823	23486.725687
576.948211	23648.763495
577.302544	23605.568368
577.656823	23839.303987
578.011047	24150.171780
578.365216	24210.158990
578.719330	24305.862775
579.073389	24433.376241
579.427394	24675.391955
579.781344	24859.426838
580.135239	24879.697318
580.489080	25114.720951
580.842866	25028.423959
581.196597	25490.909495
581.550273	25646.850028
581.903895	25773.095643
582.257463	26226.502062
582.610975	26059.407976
582.964434	26418.161690
583.317837	26408.079382
583.671186	26505.877767
584.024481	26835.906985
584.377721	26746.567657
584.730906	27105.265918
585.084037	27323.177354
585.437113	27337.542122
585.790135	27546.427373
586.143103	27489.270771
586.496016	27748.436490
586.848874	27955.690927
587.201679	28154.476227
587.554428	27997.766918
587.907124	28299.830336
588.259765	28327.959974
588.612352	28664.588064
588.964884	28443.160422
589.317362	28817.312340
589.669786	28935.973540
590.022155	28974.230856
590.374470	29428.133828
590.726731	29281.950449
591.078937	29117.387023
591.431090	29366.853562
591.783188	29297.119281
592.135232	29236.413706
592.487222	29558.392202
592.839157	29787.147161
593.191038	29722.048221
593.542866	29694.407574
593.894639	29421.466902
594.246358	29784.745051
594.598022	29913.407900
594.949633	29785.677665
595.301190	29896.704037
595.652692	29939.765573
596.004141	30305.634875
596.355535	29746.938918
596.706876	29853.758447
597.058162	29866.968791
597.409395	30349.334117
597.760573	30556.041590
598.111698	30361.175788
598.462768	30502.764155
598.813785	30673.870999
599.164748	30404.746480
599.515657	30819.295685
599.866511	30557.780788
600.217312	31157.627684
600.568060	30471.181326
600.918753	31180.448987
601.269392	31279.472372
601.619978	31117.106889
601.970510	31397.642060
602.320988	31661.841371
602.671412	32025.152287
603.021783	31936.642229
603.372100	31777.021654
603.722363	31984.228201
604.072572	32151.639879
604.422728	32277.993879
604.772830	32231.766498
605.122878	32407.564136
605.472872	32468.327684
605.822813	32821.069821
606.172701	32774.005609
606.522534	33063.287181
606.872314	33383.402971
607.222041	33291.560710
607.571714	33708.731314
607.921333	33336.283306
608.270899	33695.195816
608.620411	34059.260385
608.969870	34004.180738
609.319276	34085.970939
609.668627	34218.969180
610.017926	34719.916199
610.367171	34952.545285
610.716362	35117.756499
611.065500	35174.580385
611.414585	35405.596302
611.763616	35761.176609
612.112594	35772.569616
612.461518	36041.096758
612.810389	36390.728504
613.159207	36341.632707
613.507971	36498.979721
613.856682	36985.816551
614.205340	36952.572662
614.553945	37636.233782
614.902496	37229.032059
615.250994	37715.609270
615.599439	37868.648618
615.947830	38125.313925
616.296169	38252.272864
616.644454	38426.704349
616.992686	38664.898868
617.340864	39196.337307
617.688990	38991.815174
618.037063	39607.967683
618.385082	39642.378599
618.733048	39961.687804
619.080961	40037.073219
619.428821	40109.842274
619.776628	40269.752716
620.124382	40169.166573
620.472083	40348.964366
620.819731	40518.069872
621.167326	40297.022837
621.514868	40334.881903
621.862357	40000.645841
622.209793	40082.713305
622.557176	39829.430612
622.904506	39652.755814
623.251783	39379.762210
623.599007	39227.370650
623.946179	39083.423022
624.293297	39072.445910
624.640363	38570.780526
624.987376	38633.358889
625.334336	38431.178373
625.681243	38157.295005
626.028097	38163.752723
626.374899	38085.836649
626.721647	38091.228163
627.068343	38029.912609
627.414987	37842.595935
627.761577	37674.256685
628.108115	38040.975421
628.454600	37545.041829
628.801032	37764.102649
629.147412	37755.759539
629.493739	37807.756521
629.840014	37513.781634
630.186236	37869.939153
630.532405	37524.282358
630.878521	37778.268291
631.224585	37674.917076
631.570597	37434.413708
631.916556	37605.386961
632.262462	37589.640917
632.608316	37630.353276
632.954117	37562.930364
633.299866	37574.870337
633.645562	37535.057824
633.991206	37105.838862
634.336797	36719.847794
634.682336	36755.004801
635.027823	36553.149440
635.373257	36411.455208
635.718639	36218.212658
636.063968	36102.490450
636.409245	35576.705666
636.754470	35660.565260
637.099642	35454.964321
637.444762	35010.281620
637.789829	35169.440929
638.134845	34864.816605
638.479808	34843.585786
638.824719	34768.288591
639.169577	34404.402983
639.514383	34495.239534
639.859137	34219.216197
640.203839	34464.382632
640.548489	34142.172242
