Dividing Wavelength (nm)	Counts (n)	Blue Motor Position (mm): 2.200000	Red Motor Position (mm): 0.000000	
326.493990	1980.434932
326.888308	1980.434932
327.282561	1980.434932
327.676750	1956.542384
328.070874	1957.543053
328.464933	1962.793415
328.858929	1973.977214
329.252859	1983.933493
329.646726	1996.977479
330.040528	2016.038082
330.434265	2033.120031
330.827938	2053.932435
331.221547	2072.846844
331.615091	2093.124886
332.008571	2113.115581
332.401986	2134.258180
332.795338	2154.984884
333.188625	2175.404078
333.581847	2191.185410
333.975006	2212.156610
334.368100	2228.767212
334.761129	2245.869327
335.154095	2257.574886
335.546996	2274.351846
335.939833	2287.138733
336.332606	2299.212296
336.725315	2314.978505
337.117960	2317.675522
337.510540	2326.837819
337.903056	2339.337360
338.295508	2339.433142
338.687896	2350.506036
339.080220	2358.090452
339.472480	2362.471215
339.864676	2365.334590
340.256807	2370.441279
340.648875	2371.590662
341.040879	2371.751979
341.432818	2371.106712
341.824694	2373.970087
342.216506	2373.221476
342.608253	2374.484285
342.999937	2372.092257
343.391557	2373.619727
343.783113	2368.800384
344.174605	2366.466329
344.566033	2369.798532
344.957397	2366.189066
345.348697	2361.951976
345.739934	2365.347193
346.131106	2357.666995
346.522215	2359.527181
346.913260	2355.443847
347.304241	2353.649196
347.695159	2353.770183
348.086012	2349.580985
348.476802	2350.798423
348.867528	2348.124091
349.258191	2350.684997
349.648789	2346.339523
350.039324	2344.963288
350.429796	2343.854234
350.820203	2343.897084
351.210548	2345.048987
351.600828	2344.275170
351.991045	2343.380365
352.381198	2342.591425
352.771288	2342.276353
353.161314	2340.874912
353.551276	2344.060921
353.941175	2339.924654
354.331010	2343.022443
354.720782	2342.460355
355.110490	2342.760303
355.500135	2342.556137
355.889717	2340.254850
356.279235	2343.329954
356.668689	2343.773575
357.058080	2344.108812
357.447408	2342.150324
357.836672	2339.433142
358.225873	2343.277022
358.615010	2343.229131
359.004084	2348.492095
359.393095	2346.689883
359.782043	2347.670387
360.170927	2347.486385
360.559748	2346.452949
360.948505	2348.701303
361.337199	2348.504698
361.725830	2347.498988
362.114398	2350.460666
362.502903	2349.124760
362.891344	2350.851355
363.279722	2353.777745
363.668037	2352.088959
364.056289	2351.967971
364.444478	2353.046778
364.832603	2352.217508
365.220665	2352.945955
365.608665	2353.863445
365.996601	2353.185410
366.384474	2352.822447
366.772284	2352.630883
367.160031	2354.808661
367.547715	2356.250431
367.935336	2354.097858
368.322893	2355.464011
368.710388	2357.447705
369.097820	2357.278827
369.485189	2354.206243
369.872495	2357.419979
370.259738	2356.913343
370.646918	2357.762777
371.034035	2356.230267
371.421090	2358.629856
371.808081	2357.172962
372.195010	2358.191275
372.581875	2356.101717
372.968678	2358.518950
373.355418	2356.862931
373.742096	2361.029445
374.128710	2359.728827
374.515262	2360.016173
374.901751	2359.968282
375.288177	2360.825278
375.674540	2360.580782
376.060841	2358.841584
376.447079	2357.389732
376.833254	2358.317304
377.219367	2357.654393
377.605417	2358.307222
377.991404	2359.086080
378.377329	2358.471059
378.763191	2356.918384
379.148991	2361.132789
379.534727	2360.873169
379.920402	2363.411390
380.306013	2361.473067
380.691563	2362.874507
381.077049	2363.320649
381.462474	2361.967100
381.847835	2362.987933
382.233134	2363.572707
382.618371	2364.583458
383.003545	2363.456761
383.388657	2361.853674
383.773706	2366.355424
384.158693	2363.116483
384.543618	2362.302336
384.928480	2364.994313
385.313280	2366.650332
385.698017	2366.708305
386.082692	2366.715867
386.467305	2366.078161
386.851856	2368.984386
387.236344	2366.214272
387.620770	2365.974817
388.005133	2367.560260
388.389435	2364.301154
388.773674	2365.745444
389.157851	2368.969262
389.541965	2364.210413
389.926018	2367.290558
390.310008	2368.639067
390.693936	2365.082533
391.077802	2367.159488
391.461606	2367.018336
391.845348	2368.182842
392.229027	2368.830631
392.612645	2368.255939
392.996200	2367.164529
393.379694	2366.821731
393.763125	2368.414735
394.146494	2368.359283
394.529801	2371.426825
394.913047	2370.353059
395.296230	2368.936495
395.679351	2369.133100
396.062410	2372.828266
396.445408	2371.416743
396.828343	2370.418594
397.211217	2365.664786
397.594028	2369.501104
397.976778	2366.131093
398.359466	2370.630322
398.742092	2366.567153
399.124656	2368.485312
399.507158	2372.845910
399.889598	2372.535879
400.271977	2369.675024
400.654294	2371.255426
401.036549	2370.332894
401.418742	2373.319778
401.800874	2372.717360
402.182944	2373.760879
402.564952	2374.262474
402.946898	2371.557895
403.328783	2373.100488
403.710606	2373.428163
404.092367	2375.578215
404.474067	2372.931609
404.855705	2371.595703
405.237282	2373.143338
405.618797	2375.366487
406.000250	2374.075951
406.381642	2374.885056
406.762972	2374.302803
407.144240	2375.996631
407.525447	2374.822042
407.906593	2372.682072
408.287677	2373.839017
408.668700	2371.812473
409.049661	2376.810777
409.430560	2376.168030
409.811399	2373.173585
410.192176	2374.867412
410.572891	2375.754655
410.953545	2374.746425
411.334138	2376.868750
411.714669	2376.798174
412.095139	2379.875799
412.475547	2378.025695
412.855894	2376.503267
413.236180	2377.244316
413.616405	2377.776158
413.996568	2378.381097
414.376670	2379.464945
414.756711	2378.025695
415.136691	2375.870602
415.516609	2378.492002
415.896466	2378.519728
416.276262	2379.865716
416.655997	2375.810108
417.035670	2373.803729
417.415283	2376.258771
417.794834	2374.091075
418.174324	2378.532331
418.553753	2376.306662
418.933121	2380.745398
419.312428	2377.882022
419.691674	2378.733977
420.070859	2380.387476
420.449983	2381.322610
420.829045	2378.917979
421.208047	2379.225490
421.586988	2380.407640
421.965867	2381.317569
422.344686	2381.438556
422.723444	2382.688763
423.102141	2379.699358
423.480777	2381.718340
423.859352	2381.178937
424.237866	2381.551982
424.616319	2382.885368
424.994712	2385.363095
425.373044	2381.645244
425.751314	2381.952754
426.129524	2382.378732
426.507673	2381.178937
426.885762	2383.868393
427.263789	2384.803527
427.641756	2383.886037
428.019662	2381.413351
428.397508	2381.804040
428.775292	2382.058618
429.153016	2383.656664
429.530679	2381.211704
429.908282	2382.426623
430.285824	2384.440563
430.663305	2381.360418
431.040726	2384.196068
431.418086	2385.297560
431.795385	2384.982487
432.172624	2384.256561
432.549802	2384.785882
432.926920	2386.893085
433.303977	2386.396531
433.680974	2383.374359
434.057910	2385.499206
434.434786	2385.252189
434.811601	2383.883516
435.188355	2385.554658
435.565050	2388.932232
435.941683	2385.499206
436.318257	2383.775131
436.694770	2382.484596
437.071222	2383.838146
437.447614	2380.211035
437.823946	2384.639689
438.200218	2387.858466
438.576429	2387.674464
438.952580	2383.883516
439.328670	2385.423588
439.704700	2384.818650
440.080670	2385.743702
440.456580	2384.748074
440.832429	2388.970040
441.208218	2385.272354
441.583947	2386.928373
441.959616	2386.089021
442.335224	2385.587426
442.710773	2387.838301
443.086261	2388.639845
443.461689	2382.635830
443.837057	2386.285626
444.212365	2383.308824
444.587612	2390.374002
444.962800	2386.860317
445.337927	2388.501213
445.712995	2388.584392
446.088002	2386.202447
446.462949	2389.045658
446.837837	2386.368805
447.212664	2386.215050
447.587431	2387.641696
447.962139	2386.121788
448.336786	2387.213198
448.711374	2387.127498
449.085901	2387.845863
449.460369	2388.027344
449.834776	2388.970040
450.209124	2389.292674
450.583412	2386.550286
450.957640	2387.805534
451.331808	2389.360730
451.705917	2389.267468
452.079965	2389.275030
452.453954	2386.898126
452.827883	2390.126985
453.201752	2387.616490
453.575562	2388.649927
453.949311	2387.762684
454.323001	2389.070863
454.696632	2386.638507
455.070202	2391.601523
455.443713	2388.662530
455.817164	2385.547097
456.190556	2388.367622
456.563888	2383.729761
456.937160	2385.186654
457.310373	2388.433157
457.683526	2388.077756
458.056619	2390.502551
458.429653	2388.589433
458.802628	2388.982643
459.175542	2387.797972
459.548398	2391.525905
459.921194	2392.566903
460.293930	2390.205123
460.666607	2389.448950
461.039224	2389.504403
461.411782	2388.564227
461.784280	2392.887017
462.156719	2389.733775
462.529099	2391.793086
462.901419	2390.242932
463.273680	2391.793086
463.645882	2392.703015
464.018024	2391.823333
464.390106	2390.089176
464.762130	2391.122613
465.134094	2393.557490
465.505999	2392.103117
465.877845	2390.709238
466.249631	2392.498848
466.621358	2391.588920
466.993026	2393.053375
467.364634	2395.447923
467.736184	2394.480021
468.107674	2392.753426
468.479105	2391.092366
468.850477	2392.269475
469.221790	2393.370968
469.593043	2389.706049
469.964238	2392.884496
470.335373	2390.810061
470.706449	2392.760988
471.077467	2393.421379
471.448425	2394.540515
471.819324	2391.344424
472.190164	2393.204609
472.560945	2393.665875
472.931667	2389.781666
473.302330	2392.481204
473.672934	2394.515309
474.043479	2392.224105
474.413965	2392.410628
474.784393	2387.646737
475.154761	2390.333672
475.525070	2387.041799
475.895321	2389.312839
476.265513	2388.733106
476.635645	2391.024310
477.005719	2391.389794
477.375734	2391.152860
477.745691	2392.314846
478.115588	2392.067829
478.485427	2390.832747
478.855207	2391.916595
479.224928	2392.534136
479.594591	2394.129661
479.964194	2396.841802
480.333739	2395.072357
480.703226	2391.596481
481.072653	2394.018756
481.442022	2394.112017
481.811333	2394.550598
482.180584	2396.476318
482.549777	2396.080588
482.918912	2392.211502
483.287988	2392.748385
483.657005	2393.590258
484.025964	2395.836092
484.394864	2394.858108
484.763706	2395.581513
485.132489	2395.480690
485.501213	2393.751575
485.869879	2393.121430
486.238487	2396.385578
486.607036	2392.952552
486.975527	2395.258880
487.343959	2392.271996
487.712333	2393.640669
488.080648	2393.126472
488.448905	2395.331976
488.817104	2394.958931
489.185244	2393.928015
489.553326	2393.265103
489.921350	2396.322563
490.289315	2393.285268
490.657222	2397.151833
491.025070	2395.137892
491.392861	2395.967162
491.760593	2396.191493
492.128267	2395.727707
492.495883	2396.677964
492.863440	2394.411966
493.230939	2394.969013
493.598380	2393.859959
493.965763	2389.214536
494.333088	2390.452139
494.700354	2392.211502
495.067563	2393.580175
495.434713	2390.041285
495.801805	2396.683006
496.168839	2395.228633
496.535815	2400.380692
496.902733	2396.244425
497.269593	2395.737789
497.636395	2397.436658
498.003139	2394.348951
498.369825	2397.570249
498.736453	2393.358365
499.103023	2395.122768
499.469535	2394.608571
499.835989	2395.468088
500.202385	2396.141082
500.568723	2395.304250
500.935003	2394.648900
501.301226	2395.160577
501.667390	2392.476163
502.033497	2398.631412
502.399546	2394.578324
502.765537	2393.660834
503.131470	2394.941287
503.497345	2394.696791
503.863163	2395.883983
504.228923	2397.451782
504.594625	2396.504045
504.960269	2396.297357
505.325856	2397.542522
505.691385	2396.579662
506.056856	2395.057233
506.422270	2398.316339
506.787625	2397.562687
507.152924	2395.331976
507.518164	2397.489590
507.883347	2396.531771
508.248472	2397.547563
508.613540	2397.537481
508.978550	2396.476318
509.343503	2397.358520
509.708398	2398.500342
510.073236	2397.310629
510.438016	2400.035373
510.802738	2396.166287
511.167403	2398.596123
511.532010	2397.292985
511.896561	2396.070505
512.261053	2397.673592
512.625488	2394.570762
512.989866	2394.043962
513.354186	2396.307440
513.718449	2392.985319
514.082655	2397.406411
514.446803	2396.067985
514.810894	2396.619991
515.174927	2398.013870
515.538904	2397.769374
515.902822	2396.279713
516.266684	2397.938253
516.630488	2397.282903
516.994235	2397.451782
517.357925	2399.188459
517.721558	2396.630073
518.085133	2396.703170
518.448651	2397.718963
518.812112	2395.818448
519.175516	2395.515978
519.538863	2398.732235
519.902152	2397.860115
520.265385	2398.374313
520.628560	2396.710732
520.991678	2397.033366
521.354739	2399.644683
521.717743	2397.116545
522.080690	2394.290978
522.443580	2396.950187
522.806413	2397.461864
523.169189	2398.548233
523.531908	2397.156874
523.894569	2397.847512
524.257174	2400.229457
524.619722	2396.259549
524.982213	2398.497821
525.344647	2397.784498
525.707025	2397.998747
526.069345	2397.242574
526.431608	2395.019425
526.793815	2394.739641
527.155964	2398.371792
527.518057	2396.004970
527.880093	2399.916906
528.242072	2399.372461
528.603995	2400.431103
528.965860	2399.891700
529.327669	2397.476987
529.689421	2398.588562
530.051117	2399.589231
530.412755	2396.274672
530.774337	2401.441855
531.135862	2397.424055
531.497331	2396.982954
531.858743	2393.920453
532.220098	2397.726524
532.581396	2392.834085
532.942638	2395.334497
533.303824	2397.734086
533.664953	2397.638304
534.026025	2398.964128
534.387040	2399.611916
534.747999	2397.277862
535.108902	2400.794067
535.469748	2395.710063
535.830537	2396.811555
536.191270	2397.570249
536.551947	2399.589231
536.912567	2399.690054
537.273131	2397.794580
537.633638	2398.896072
537.994089	2400.809190
538.354483	2398.366751
538.714821	2399.337173
539.075103	2395.977244
539.435328	2399.082595
539.795497	2398.404560
540.155609	2398.238202
540.515665	2400.163922
540.875665	2397.197203
541.235609	2400.146278
541.595496	2397.416493
541.955328	2399.584190
542.315102	2399.591751
542.674821	2396.819117
543.034483	2398.021432
543.394090	2397.224930
543.753640	2400.564694
544.113134	2398.074364
544.472571	2401.744324
544.831953	2397.774415
545.191278	2399.662327
545.550548	2399.188459
545.909761	2401.177194
546.268918	2400.726011
546.628019	2399.470764
546.987064	2399.828686
547.346053	2399.261556
547.704986	2396.141082
548.063863	2397.424055
548.422684	2399.732904
548.781449	2399.566546
549.140158	2400.282389
549.498811	2399.150650
549.857408	2399.556463
550.215949	2398.822975
550.574434	2394.782491
550.932864	2398.011350
551.291237	2395.962121
551.649555	2396.781308
552.007817	2398.533109
552.366022	2398.644014
552.724173	2398.417163
553.082267	2399.669889
553.440305	2398.172667
553.798288	2399.816083
554.156215	2398.928840
554.514086	2400.486556
554.871902	2398.916237
555.229661	2399.127965
555.587365	2398.245763
555.945014	2399.019580
556.302606	2400.247101
556.660143	2399.863974
557.017625	2400.501680
557.375050	2399.022101
557.732421	2399.448078
558.089735	2399.843809
558.446994	2397.842471
558.804197	2399.969838
559.161345	2399.082595
559.518437	2398.099570
559.875474	2398.452451
560.232455	2397.356000
560.589381	2399.662327
560.946251	2400.741134
561.303065	2400.771381
561.659825	2397.156874
562.016528	2399.160733
562.373177	2400.179046
562.729770	2398.603685
563.086307	2398.412121
563.442789	2399.969838
563.799216	2401.719118
564.155587	2400.078223
564.511904	2398.212996
564.868164	2399.397667
565.224370	2399.871535
565.580520	2400.897410
565.936615	2401.114180
566.292654	2400.824313
566.648638	2398.074364
567.004567	2398.454971
567.360441	2402.185425
567.716260	2397.965979
568.072023	2400.801628
568.427732	2394.522871
568.783385	2398.379354
569.138982	2396.516647
569.494525	2397.073695
569.850013	2393.900289
570.205445	2396.355331
570.560823	2399.538819
570.916145	2396.814076
571.271412	2400.801628
571.626625	2398.313819
571.981782	2399.480846
572.336884	2401.688871
572.691931	2401.094015
573.046923	2399.478325
573.401860	2400.942781
573.756743	2400.761299
574.111570	2397.794580
574.466342	2400.577297
574.821059	2400.196690
575.175722	2401.530075
575.530330	2400.383212
575.884882	2400.967986
576.239380	2400.915054
576.593823	2400.491597
576.948211	2400.567215
577.302544	2399.054868
577.656823	2397.111504
578.011047	2400.365568
578.365216	2401.308264
578.719330	2398.288613
579.073389	2399.422873
579.427394	2401.525034
579.781344	2396.584703
580.135239	2401.494787
580.489080	2401.335991
580.842866	2398.941442
581.196597	2405.043759
581.550273	2400.128634
581.903895	2402.180384
582.257463	2400.196690
582.610975	2399.064951
582.964434	2401.519993
583.317837	2397.913047
583.671186	2399.664848
584.024481	2399.039745
584.377721	2398.815414
584.730906	2400.962945
585.084037	2400.451268
585.437113	2400.277348
585.790135	2399.362379
586.143103	2398.238202
586.496016	2396.592265
586.848874	2396.579662
587.201679	2399.498490
587.554428	2396.115876
587.907124	2399.221227
588.259765	2396.395660
588.612352	2401.688871
588.964884	2399.579148
589.317362	2401.819941
589.669786	2400.993192
590.022155	2399.894221
590.374470	2396.987995
590.726731	2401.983779
591.078937	2399.685013
591.431090	2399.926988
591.783188	2399.962276
592.135232	2399.674930
592.487222	2400.413459
592.839157	2399.644683
593.191038	2399.644683
593.542866	2398.724673
593.894639	2396.428427
594.246358	2400.758778
594.598022	2400.592420
594.949633	2401.484705
595.301190	2401.830024
595.652692	2400.607544
596.004141	2397.086298
596.355535	2400.801628
596.706876	2398.253325
597.058162	2401.000754
597.409395	2399.261556
597.760573	2398.618809
598.111698	2400.610064
598.462768	2400.136196
598.813785	2401.557801
599.164748	2400.350445
599.515657	2399.221227
599.866511	2402.427400
600.217312	2400.242060
600.568060	2397.603016
600.918753	2398.298695
601.269392	2399.997564
601.619978	2399.690054
601.970510	2398.822975
602.320988	2400.710888
602.671412	2400.163922
603.021783	2399.702657
603.372100	2400.058058
603.722363	2397.973541
604.072572	2399.564025
604.422728	2398.686864
604.772830	2396.047820
605.122878	2396.985475
605.472872	2400.070661
605.822813	2395.493293
606.172701	2399.974879
606.522534	2398.449930
606.872314	2399.072513
607.222041	2398.714591
607.571714	2400.015208
607.921333	2398.079405
608.270899	2401.116700
608.620411	2398.157543
608.969870	2400.403377
609.319276	2398.938922
609.668627	2401.772050
610.017926	2398.528068
610.367171	2399.911865
610.716362	2398.926319
611.065500	2400.473953
611.414585	2400.352966
611.763616	2398.719632
612.112594	2398.661658
612.461518	2399.443037
612.810389	2398.739796
613.159207	2399.712739
613.507971	2399.024622
613.856682	2400.289951
614.205340	2399.385064
614.553945	2400.521844
614.902496	2399.095198
615.250994	2400.347924
615.599439	2399.226268
615.947830	2398.457492
616.296169	2398.517986
616.644454	2398.117214
616.992686	2399.871535
617.340864	2401.076371
617.688990	2398.747358
618.037063	2400.673079
618.385082	2398.961607
618.733048	2397.542522
619.080961	2399.531258
619.428821	2401.998902
619.776628	2397.872718
620.124382	2401.512431
620.472083	2398.601165
620.819731	2400.756258
621.167326	2400.768861
621.514868	2400.831875
621.862357	2399.352297
622.209793	2400.889848
622.557176	2398.752399
622.904506	2397.270300
623.251783	2395.132851
623.599007	2397.469426
623.946179	2393.847357
624.293297	2395.495814
624.640363	2399.425393
624.987376	2398.391957
625.334336	2398.495300
625.681243	2400.531927
626.028097	2396.461195
626.374899	2397.991185
626.721647	2401.709036
627.068343	2400.660476
627.414987	2400.186607
627.761577	2399.367420
628.108115	2397.870197
628.454600	2397.955897
628.801032	2398.018911
629.147412	2398.608726
629.493739	2398.361710
629.840014	2397.411452
630.186236	2399.682492
630.532405	2398.918757
630.878521	2399.221227
631.224585	2397.182080
631.570597	2398.979251
631.916556	2401.590569
632.262462	2399.674930
632.608316	2399.253994
632.954117	2399.105280
633.299866	2400.549571
633.645562	2399.130486
633.991206	2398.313819
634.336797	2401.638460
634.682336	2400.531927
635.027823	2399.238871
635.373257	2399.173336
635.718639	2399.808521
636.063968	2400.005126
636.409245	2400.070661
636.754470	2400.509241
637.099642	2400.393295
637.444762	2397.837430
637.789829	2399.311967
638.134845	2399.783315
638.479808	2400.088305
638.824719	2398.046638
639.169577	2400.814231
639.514383	2397.930691
639.859137	2400.524365
640.203839	2400.907493
640.548489	2399.493449
640.893086	2396.814076
641.237632	2394.656462
641.582125	2400.804149
641.926566	2394.754764
642.270955	2396.861967
642.615292	2397.287944
642.959576	2400.587379
643.303809	2398.659138
643.647990	2400.158881
643.992118	2399.392626
644.336195	2401.590569
