Dividing Wavelength (nm)	Counts (n)	Blue Motor Position (mm): 9.600000	Red Motor Position (mm): 0.000000	
326.493990	1974.803964
326.888308	1974.803964
327.282561	1974.803964
327.676750	1951.092897
328.070874	1950.331682
328.464933	1958.999946
328.858929	1969.115022
329.252859	1982.358133
329.646726	1993.814155
330.040528	2013.207474
330.434265	2029.805473
330.827938	2048.976981
331.221547	2070.081771
331.615091	2088.686150
332.008571	2107.981166
332.401986	2131.031842
332.795338	2150.614204
333.188625	2172.167657
333.581847	2189.897395
333.975006	2207.324664
334.368100	2225.276213
334.761129	2240.790364
335.154095	2256.743095
335.546996	2282.843669
335.939833	2322.149546
336.332606	2334.853254
336.725315	2346.526045
337.117960	2353.893692
337.510540	2359.738910
337.903056	2370.234592
338.295508	2378.018133
338.687896	2384.508619
339.080220	2389.264948
339.472480	2393.441544
339.864676	2401.424211
340.256807	2400.133675
340.648875	2403.428069
341.040879	2407.929820
341.432818	2408.000396
341.824694	2410.420150
342.216506	2409.384193
342.608253	2410.324368
342.999937	2407.372772
343.391557	2406.588873
343.783113	2404.070817
344.174605	2401.421690
344.566033	2402.175343
344.957397	2398.724673
345.348697	2395.629404
345.739934	2397.245094
346.131106	2394.258211
346.522215	2390.772253
346.913260	2391.440206
347.304241	2388.319731
347.695159	2388.917108
348.086012	2385.632796
348.476802	2380.269009
348.867528	2383.492827
349.258191	2379.449821
349.648789	2380.712630
350.039324	2381.826725
350.429796	2376.757845
350.820203	2377.929913
351.210548	2379.898484
351.600828	2373.776003
351.991045	2374.340612
352.381198	2374.799357
352.771288	2378.958309
353.161314	2375.137114
353.551276	2373.458410
353.941175	2375.507639
354.331010	2373.682741
354.720782	2373.944881
355.110490	2375.641229
355.500135	2376.790613
355.889717	2375.769779
356.279235	2375.487474
356.668689	2375.048894
357.058080	2377.221631
357.447408	2376.087372
357.836672	2372.495549
358.225873	2377.766076
358.615010	2376.286497
359.004084	2379.207846
359.393095	2378.184492
359.782043	2378.882691
360.170927	2380.510984
360.559748	2382.237579
360.948505	2382.749256
361.337199	2381.970398
361.725830	2379.843031
362.114398	2383.150028
362.502903	2382.900491
362.891344	2385.446274
363.279722	2382.885368
363.668037	2384.952241
364.056289	2383.182796
364.444478	2384.657333
364.832603	2384.997611
365.220665	2385.128681
365.608665	2384.163300
365.996601	2385.504247
366.384474	2383.742364
366.772284	2389.718652
367.160031	2389.685884
367.547715	2386.918291
367.935336	2384.531304
368.322893	2387.072046
368.710388	2389.660678
369.097820	2393.287788
369.485189	2390.132026
369.872495	2388.052550
370.259738	2390.570607
370.646918	2392.256873
371.034035	2390.482386
371.421090	2386.091541
371.808081	2390.779814
372.195010	2391.634290
372.581875	2389.532129
372.968678	2390.537839
373.355418	2391.296533
373.742096	2391.599002
374.128710	2392.017418
374.515262	2391.435164
374.901751	2391.614125
375.288177	2390.862993
375.674540	2391.843498
376.060841	2393.781822
376.447079	2392.844167
376.833254	2394.011194
377.219367	2390.928528
377.605417	2391.735113
377.991404	2391.755278
378.377329	2391.412479
378.763191	2389.890051
379.148991	2393.930536
379.534727	2393.323077
379.920402	2395.402553
380.306013	2395.168139
380.691563	2395.629404
381.077049	2395.614281
381.462474	2394.709394
381.847835	2398.313819
382.233134	2394.966493
382.618371	2395.770557
383.003545	2396.143602
383.388657	2397.597975
383.773706	2397.960938
384.158693	2396.877090
384.543618	2399.427914
384.928480	2398.303737
385.313280	2400.229457
385.698017	2397.557646
386.082692	2399.821124
386.467305	2401.522513
386.851856	2398.641494
387.236344	2400.668038
387.620770	2401.638460
388.005133	2399.538819
388.389435	2402.031670
388.773674	2398.018911
389.157851	2402.102246
389.541965	2399.110321
389.926018	2400.199210
390.310008	2401.240209
390.693936	2401.683830
391.077802	2403.327246
391.461606	2401.537637
391.845348	2403.143244
392.229027	2401.714077
392.612645	2400.675599
392.996200	2404.343039
393.379694	2400.693243
393.763125	2404.958060
394.146494	2404.438821
394.529801	2404.680796
394.913047	2402.918913
395.296230	2404.494273
395.679351	2403.995199
396.062410	2403.536454
396.445408	2403.380178
396.828343	2405.016033
397.211217	2401.494787
397.594028	2400.630229
397.976778	2403.649880
398.359466	2404.516959
398.742092	2400.965466
399.124656	2406.316651
399.507158	2403.206259
399.889598	2406.682134
400.271977	2403.569222
400.654294	2406.152813
401.036549	2407.171126
401.418742	2410.221024
401.800874	2405.555436
402.182944	2406.074675
402.564952	2409.348905
402.946898	2407.297155
403.328783	2409.674059
403.710606	2407.624830
404.092367	2409.353946
404.474067	2409.401837
404.855705	2406.752710
405.237282	2408.948133
405.618797	2410.165572
406.000250	2409.230438
406.381642	2407.927299
406.762972	2410.278998
407.144240	2410.031981
407.525447	2408.456620
407.906593	2409.651374
408.287677	2408.446538
408.668700	2410.195818
409.049661	2408.958215
409.430560	2408.159192
409.811399	2412.461817
410.192176	2411.856879
410.572891	2412.350912
410.953545	2411.718247
411.334138	2412.406364
411.714669	2409.858061
412.095139	2411.577095
412.475547	2411.561971
412.855894	2409.469892
413.236180	2413.134811
413.616405	2412.421488
413.996568	2410.026940
414.376670	2413.056673
414.756711	2411.745973
415.136691	2414.614390
415.516609	2412.867630
415.896466	2413.321334
416.276262	2411.191446
416.655997	2411.690521
417.035670	2407.937382
417.415283	2413.157496
417.794834	2409.459810
418.174324	2416.973650
418.553753	2412.958371
418.933121	2415.098341
419.312428	2412.572722
419.691674	2412.761766
420.070859	2414.705131
420.449983	2414.511046
420.829045	2418.249062
421.208047	2413.210428
421.586988	2415.534400
421.965867	2411.771179
422.344686	2414.730336
422.723444	2414.271591
423.102141	2414.047260
423.480777	2416.870306
423.859352	2417.190419
424.237866	2415.052970
424.616319	2414.919380
424.994712	2416.877868
425.373044	2415.000038
425.751314	2416.562796
426.129524	2417.230749
426.507673	2414.972312
426.885762	2415.547003
427.263789	2417.699576
427.641756	2415.978022
428.019662	2415.887281
428.397508	2414.379976
428.775292	2417.467683
429.153016	2413.283525
429.530679	2415.930131
429.908282	2417.853331
430.285824	2419.637900
430.663305	2414.639596
431.040726	2415.143711
431.418086	2416.419123
431.795385	2418.904412
432.172624	2418.604463
432.549802	2416.051119
432.926920	2420.968764
433.303977	2418.075142
433.680974	2416.686304
434.057910	2416.557755
434.434786	2417.944072
434.811601	2419.963054
435.188355	2416.726633
435.565050	2416.527508
435.941683	2422.337437
436.318257	2414.947106
436.694770	2414.488361
437.071222	2416.046077
437.447614	2417.019020
437.823946	2414.437949
438.200218	2417.916346
438.576429	2417.997004
438.952580	2418.014648
439.328670	2422.040009
439.704700	2422.408014
440.080670	2419.078332
440.456580	2416.963568
440.832429	2420.041192
441.208218	2419.826943
441.583947	2418.745615
441.959616	2421.538415
442.335224	2420.862900
442.710773	2418.851480
443.086261	2420.741912
443.461689	2420.084042
443.837057	2420.968764
444.212365	2420.404155
444.587612	2419.128743
444.962800	2423.391039
445.337927	2420.792324
445.712995	2420.131933
446.088002	2423.207037
446.462949	2421.740061
446.837837	2421.099834
447.212664	2421.102355
447.587431	2421.866090
447.962139	2421.568662
448.336786	2423.897675
448.711374	2423.408683
449.085901	2425.467994
449.460369	2422.347520
449.834776	2422.211409
450.209124	2424.684095
450.583412	2421.525812
450.957640	2424.684095
451.331808	2424.976482
451.705917	2423.491862
452.079965	2421.614032
452.453954	2425.863725
452.827883	2423.204516
453.201752	2427.020669
453.575562	2423.247366
453.949311	2425.838519
454.323001	2423.678384
454.696632	2424.124527
455.070202	2425.132757
455.443713	2423.330545
455.817164	2423.262489
456.190556	2420.963723
456.563888	2426.965217
456.937160	2424.316090
457.310373	2425.412541
457.683526	2426.657706
458.056619	2423.622932
458.429653	2426.370361
458.802628	2426.841708
459.175542	2428.366658
459.548398	2428.338931
459.921194	2428.525454
460.293930	2429.962183
460.666607	2429.574014
461.039224	2430.496545
461.411782	2429.561411
461.784280	2428.908582
462.156719	2432.354210
462.529099	2428.898499
462.901419	2430.042841
463.273680	2432.054262
463.645882	2432.825558
464.018024	2430.325146
464.390106	2430.940167
464.762130	2436.556012
465.134094	2432.729776
465.505999	2437.884356
465.877845	2438.890066
466.249631	2437.324788
466.621358	2440.694799
466.993026	2440.001641
467.364634	2441.072886
467.736184	2438.958122
468.107674	2435.129365
468.479105	2439.442073
468.850477	2437.992741
469.221790	2438.390992
469.593043	2436.669438
469.964238	2434.211875
470.335373	2436.064499
470.706449	2437.864191
471.077467	2439.101795
471.448425	2439.457196
471.819324	2442.343257
472.190164	2445.367949
472.560945	2437.806218
472.931667	2441.551795
473.302330	2439.706733
473.672934	2438.408636
474.043479	2437.387802
474.413965	2437.702874
474.784393	2431.587955
475.154761	2435.126845
475.525070	2433.881680
475.895321	2437.294541
476.265513	2429.778181
476.635645	2442.330654
477.005719	2438.262442
477.375734	2441.622372
477.745691	2439.661363
478.115588	2440.054573
478.485427	2443.122115
478.855207	2444.037084
479.224928	2448.806016
479.594591	2447.535645
479.964194	2445.667897
480.333739	2445.670418
480.703226	2443.837959
481.072653	2448.367435
481.442022	2443.835438
481.811333	2447.986828
482.180584	2445.050356
482.549777	2445.511622
482.918912	2443.301076
483.287988	2445.718309
483.657005	2445.907352
484.025964	2444.929368
484.394864	2445.811570
484.763706	2447.117229
485.132489	2441.980293
485.501213	2443.958946
485.869879	2442.295366
486.238487	2448.248968
486.607036	2444.810901
486.975527	2445.514142
487.343959	2446.567743
487.712333	2446.676128
488.080648	2441.720674
488.448905	2446.834925
488.817104	2441.776127
489.185244	2446.091354
489.553326	2448.120419
489.921350	2448.553958
490.289315	2448.720316
490.657222	2452.458332
491.025070	2452.352467
491.392861	2450.683846
491.760593	2451.147632
492.128267	2448.634617
492.495883	2450.411623
492.863440	2447.218052
493.230939	2444.354677
493.598380	2445.642692
493.965763	2442.229831
494.333088	2444.195881
494.700354	2442.318051
495.067563	2444.004317
495.434713	2438.912751
495.801805	2445.882147
496.168839	2446.988680
496.535815	2448.226283
496.902733	2445.514142
497.269593	2446.411468
497.636395	2446.149328
498.003139	2448.480861
498.369825	2448.410285
498.736453	2445.521704
499.103023	2448.183433
499.469535	2448.405244
499.835989	2448.775769
500.202385	2452.276850
500.568723	2453.932869
500.935003	2451.888681
501.301226	2451.276181
501.667390	2452.687704
502.033497	2453.683332
502.399546	2451.263578
502.765537	2452.508743
503.131470	2453.922787
503.497345	2457.295319
503.863163	2454.794907
504.228923	2455.571244
504.594625	2456.133333
504.960269	2455.268775
505.325856	2462.399487
505.691385	2458.353961
506.056856	2461.734055
506.422270	2459.460494
506.787625	2462.374281
507.152924	2462.724642
507.518164	2464.872173
507.883347	2462.243211
508.248472	2466.364355
508.613540	2467.798563
508.978550	2472.844758
509.343503	2472.970787
509.708398	2477.747280
510.073236	2476.718885
510.438016	2476.630664
510.802738	2477.522949
511.167403	2480.850110
511.532010	2480.446818
511.896561	2483.390852
512.261053	2487.537201
512.625488	2485.024186
512.989866	2486.352530
513.354186	2487.847232
513.718449	2487.892602
514.082655	2494.728407
514.446803	2498.552122
514.810894	2498.781494
515.174927	2504.629233
515.538904	2503.741990
515.902822	2506.678462
516.266684	2509.128463
516.630488	2511.863289
516.994235	2513.821777
517.357925	2517.968126
517.721558	2519.848476
518.085133	2520.594567
518.448651	2523.289064
518.812112	2524.193951
519.175516	2526.921215
519.538863	2532.358100
519.902152	2532.776515
520.265385	2537.653832
520.628560	2538.079809
520.991678	2541.686755
521.354739	2543.854451
521.717743	2548.015923
522.080690	2549.440049
522.443580	2553.714948
522.806413	2555.139074
523.169189	2556.681667
523.531908	2561.473284
523.894569	2561.357337
524.257174	2563.419169
524.619722	2566.315312
524.982213	2572.692372
525.344647	2571.747155
525.707025	2573.786302
526.069345	2577.483988
526.431608	2576.591704
526.793815	2582.648650
527.155964	2584.266861
527.518057	2588.098138
527.880093	2588.655185
528.242072	2592.015114
528.603995	2594.369333
528.965860	2594.044179
529.327669	2598.417380
529.689421	2599.254211
530.051117	2599.551639
530.412755	2605.359048
530.774337	2608.529934
531.135862	2609.213011
531.497331	2607.914913
531.858743	2605.028853
532.220098	2613.714761
532.581396	2612.177209
532.942638	2612.696448
533.303824	2618.823970
533.664953	2619.670884
534.026025	2621.236163
534.387040	2625.125413
534.747999	2626.794035
535.108902	2630.043058
535.469748	2631.590692
535.830537	2630.960548
536.191270	2632.994654
536.551947	2635.237967
536.912567	2636.957001
537.273131	2640.097640
537.633638	2638.328195
537.994089	2641.511683
538.354483	2639.593524
538.714821	2644.916983
539.075103	2647.460245
539.435328	2651.283960
539.795497	2649.522077
540.155609	2652.040133
540.515665	2651.997283
540.875665	2650.230359
541.235609	2655.697490
541.595496	2656.161276
541.955328	2662.152688
542.315102	2657.852583
542.674821	2661.441885
543.034483	2659.551452
543.394090	2662.160249
543.753640	2664.892555
544.113134	2668.441527
544.472571	2663.702842
544.831953	2671.738442
545.191278	2671.065448
545.550548	2667.289623
545.909761	2674.516118
546.268918	2672.154337
546.628019	2676.151972
546.987064	2674.352280
547.346053	2670.541168
547.704986	2675.257167
548.063863	2676.260357
548.422684	2676.698937
548.781449	2673.659121
549.140158	2677.051818
549.498811	2680.608352
549.857408	2676.404030
550.215949	2679.774041
550.574434	2676.532579
550.932864	2677.447548
551.291237	2680.605831
551.649555	2682.057684
552.007817	2679.637930
552.366022	2682.251768
552.724173	2684.782427
553.082267	2686.705627
553.440305	2686.660257
553.798288	2686.400638
554.156215	2684.444670
554.514086	2689.284178
554.871902	2686.670339
555.229661	2685.921728
555.587365	2682.839062
555.945014	2684.734536
556.302606	2682.219001
556.660143	2688.573375
557.017625	2686.551872
557.375050	2682.985256
557.732421	2686.367870
558.089735	2687.398786
558.446994	2686.796368
558.804197	2689.309383
559.161345	2692.853315
559.518437	2685.407530
559.875474	2686.423323
560.232455	2686.836697
560.589381	2687.492047
560.946251	2687.973478
561.303065	2690.511699
561.659825	2693.216278
562.016528	2688.999352
562.373177	2689.720237
562.729770	2690.899868
563.086307	2687.681091
563.442789	2692.568489
563.799216	2690.962882
564.155587	2692.276102
564.511904	2693.491021
564.868164	2692.734847
565.224370	2694.829447
565.580520	2694.272399
565.936615	2694.405990
566.292654	2693.498582
566.648638	2696.893799
567.004567	2695.530167
567.360441	2699.248018
567.716260	2702.610468
568.072023	2702.958307
568.427732	2700.654500
568.783385	2700.498224
569.138982	2702.275231
569.494525	2705.751107
569.850013	2705.806559
570.205445	2710.613300
570.560823	2708.896787
570.916145	2712.909545
571.271412	2715.936758
571.626625	2718.303580
571.981782	2721.434136
572.336884	2719.203426
572.691931	2723.606874
573.046923	2725.194837
573.401860	2728.791700
573.756743	2728.632904
574.111570	2734.251270
574.466342	2735.955180
574.821059	2743.325347
575.175722	2741.029101
575.530330	2745.367014
575.884882	2747.582601
576.239380	2749.626789
576.593823	2753.155597
576.948211	2755.603077
577.302544	2759.235228
577.656823	2766.081115
578.011047	2772.206117
578.365216	2773.718463
578.719330	2780.483692
579.073389	2783.120215
579.427394	2793.081535
579.781344	2797.744603
580.135239	2800.411373
580.489080	2807.655511
580.842866	2810.060142
581.196597	2824.679488
581.550273	2829.881958
581.903895	2838.595593
582.257463	2856.282481
582.610975	2857.510002
582.964434	2870.072557
583.317837	2875.832076
583.671186	2885.654764
584.024481	2894.970816
584.377721	2900.614388
584.730906	2911.392375
585.084037	2924.680857
585.437113	2927.100610
585.790135	2939.191818
586.143103	2941.795574
586.496016	2953.531380
586.848874	2960.054633
587.201679	2978.328816
587.554428	2983.909373
587.907124	3004.820079
588.259765	3010.380472
588.612352	3030.323277
588.964884	3037.305275
589.317362	3054.278840
589.669786	3068.159657
590.022155	3079.333374
590.374470	3099.041765
590.726731	3103.908999
591.078937	3110.855709
591.431090	3124.572689
591.783188	3133.369502
592.135232	3141.773106
592.487222	3162.126764
592.839157	3176.030267
593.191038	3189.003676
593.542866	3200.605892
593.894639	3203.552446
594.246358	3223.248234
594.598022	3240.345307
594.949633	3246.140114
595.301190	3262.770880
595.652692	3273.886625
596.004141	3297.469142
596.355535	3293.809265
596.706876	3306.639001
597.058162	3314.871205
597.409395	3343.351204
597.760573	3362.631097
598.111698	3373.981255
598.462768	3391.186713
598.813785	3407.956111
599.164748	3414.219745
599.515657	3443.334929
599.866511	3446.641926
600.217312	3483.137359
600.568060	3478.020588
600.918753	3518.438039
601.269392	3540.704815
601.619978	3550.290569
601.970510	3576.028180
602.320988	3601.299485
602.671412	3637.036224
603.021783	3652.789830
603.372100	3660.006242
603.722363	3688.995397
604.072572	3713.928944
604.422728	3736.064650
604.772830	3750.416815
605.122878	3777.460085
605.472872	3804.180721
605.822813	3832.625432
606.172701	3854.395655
606.522534	3889.960995
606.872314	3925.269237
607.222041	3945.370837
607.571714	3989.392713
607.921333	3992.785410
608.270899	4035.284857
608.620411	4078.036363
608.969870	4097.921194
609.319276	4128.457983
609.668627	4161.069208
610.017926	4213.295562
610.367171	4257.866923
610.716362	4294.019558
611.065500	4321.924865
611.414585	4367.489334
611.763616	4414.457765
612.112594	4446.441365
612.461518	4494.420547
612.810389	4548.020615
613.159207	4577.161005
613.507971	4623.224548
613.856682	4687.806770
614.205340	4723.072162
614.553945	4799.891785
614.902496	4811.345286
615.250994	4875.718300
615.599439	4920.292183
615.947830	4984.803828
616.296169	5035.679153
616.644454	5090.836938
616.992686	5152.878418
617.340864	5239.729937
617.688990	5275.464156
618.037063	5366.628382
618.385082	5423.172485
618.733048	5496.584287
619.080961	5542.932656
619.428821	5594.480975
619.776628	5647.760930
620.124382	5678.214540
620.472083	5729.783023
620.819731	5779.307319
621.167326	5782.967196
621.514868	5820.652342
621.862357	5814.381147
622.209793	5849.785170
622.557176	5858.904617
622.904506	5870.852152
623.251783	5873.007245
623.599007	5888.307147
623.946179	5901.406585
624.293297	5937.130722
624.640363	5923.489360
624.987376	5963.160720
625.334336	5985.462785
625.681243	5994.123487
626.028097	6033.600763
626.374899	6063.015895
626.721647	6105.588440
627.068343	6140.120343
627.414987	6167.319889
627.761577	6197.103026
628.108115	6274.595643
628.454600	6269.579695
628.801032	6332.367266
629.147412	6382.279730
629.493739	6436.310817
629.840014	6448.974196
630.186236	6540.322424
630.532405	6554.286420
630.878521	6625.364169
631.224585	6673.224883
631.570597	6694.657349
631.916556	6769.463031
632.262462	6819.859446
632.608316	6874.384566
632.954117	6903.565285
633.299866	6951.925074
633.645562	6985.688202
633.991206	6969.425439
634.336797	6958.415559
634.682336	6996.698082
635.027823	6998.858216
635.373257	7017.172728
635.718639	7022.133223
636.063968	7047.825464
636.409245	7009.124526
636.754470	7056.707977
637.099642	7065.212403
637.444762	7047.810340
637.789829	7103.900739
638.134845	7101.198680
638.479808	7139.841645
638.824719	7170.580081
639.169577	7163.560274
639.514383	7217.054478
639.859137	7218.012297
640.203839	7297.927188
640.548489	7297.551622
640.893086	7345.840835
641.237632	7361.309616
641.582125	7424.578617
641.926566	7463.365255
642.270955	7501.337746
642.615292	7552.724748
642.959576	7600.091429
643.303809	7651.879203
643.647990	7722.228505
643.992118	7770.361442
644.336195	7821.382960
