Dividing Wavelength (nm)	Counts (n)	Blue Motor Position (mm): 24.600000	Red Motor Position (mm): 0.000000	
326.493990	1972.807667
326.888308	1972.807667
327.282561	1972.807667
327.676750	1946.805395
328.070874	1949.237752
328.464933	1954.662033
328.858929	1966.828858
329.252859	1977.833697
329.646726	1993.869607
330.040528	2007.263953
330.434265	2024.736592
330.827938	2044.757535
331.221547	2062.204968
331.615091	2085.255644
332.008571	2105.208531
332.401986	2126.646038
332.795338	2147.700417
333.188625	2168.447286
333.581847	2186.837415
333.975006	2204.743593
334.368100	2220.668598
334.761129	2237.299365
335.154095	2253.000039
335.546996	2290.291974
335.939833	2358.617253
336.332606	2373.526465
336.725315	2382.625748
337.117960	2393.391132
337.510540	2400.562173
337.903056	2413.036509
338.295508	2416.993814
338.687896	2423.590164
339.080220	2433.143151
339.472480	2437.355035
339.864676	2439.754624
340.256807	2444.042125
340.648875	2445.304934
341.040879	2451.029165
341.432818	2448.715275
341.824694	2448.153186
342.216506	2446.401385
342.608253	2449.181582
342.999937	2445.998093
343.391557	2447.243258
343.783113	2442.270160
344.174605	2444.581529
344.566033	2439.956270
344.957397	2439.870571
345.348697	2437.352514
345.739934	2435.915785
346.131106	2436.001485
346.522215	2431.754313
346.913260	2431.293047
347.304241	2430.738520
347.695159	2428.694332
348.086012	2425.959507
348.476802	2427.600402
348.867528	2425.828437
349.258191	2423.645617
349.648789	2423.138981
350.039324	2420.797365
350.429796	2422.496234
350.820203	2419.516912
351.210548	2419.907601
351.600828	2416.756880
351.991045	2418.780903
352.381198	2413.129770
352.771288	2417.187899
353.161314	2416.051119
353.551276	2415.277302
353.941175	2414.949627
354.331010	2415.395769
354.720782	2417.502971
355.110490	2418.012128
355.500135	2415.277302
355.889717	2415.564647
356.279235	2416.361150
356.668689	2417.384504
357.058080	2420.099165
357.447408	2415.864596
357.836672	2413.407033
358.225873	2416.875347
358.615010	2413.951478
359.004084	2417.591191
359.393095	2418.672519
359.782043	2420.351223
360.170927	2422.498754
360.559748	2420.923394
360.948505	2423.123857
361.337199	2426.491348
361.725830	2425.639393
362.114398	2425.646955
362.502903	2426.337593
362.891344	2426.070412
363.279722	2424.490010
363.668037	2427.474373
364.056289	2426.259455
364.444478	2428.023859
364.832603	2428.830444
365.220665	2425.904054
365.608665	2428.855649
365.996601	2428.694333
366.384474	2426.816503
366.772284	2431.955959
367.160031	2429.919333
367.547715	2428.081832
367.935336	2430.342790
368.322893	2430.196596
368.710388	2431.653490
369.097820	2432.918819
369.485189	2435.578028
369.872495	2429.594178
370.259738	2432.051741
370.646918	2435.671289
371.034035	2433.881680
371.421090	2436.084664
371.808081	2435.988882
372.195010	2435.716660
372.581875	2435.746907
372.968678	2435.033583
373.355418	2434.494180
373.742096	2435.802359
374.128710	2437.216403
374.515262	2436.797987
374.901751	2437.513831
375.288177	2436.072061
375.674540	2437.135745
376.060841	2437.695313
376.447079	2438.643050
376.833254	2438.022988
377.219367	2435.545261
377.605417	2438.506938
377.991404	2435.651125
378.377329	2437.995261
378.763191	2434.746238
379.148991	2439.542896
379.534727	2440.611620
379.920402	2441.007351
380.306013	2442.106322
380.691563	2442.489450
381.077049	2440.931733
381.462474	2442.315530
381.847835	2441.982814
382.233134	2443.311158
382.618371	2442.746549
383.003545	2444.274018
383.388657	2442.759152
383.773706	2445.690583
384.158693	2442.867537
384.543618	2447.565892
384.928480	2445.685542
385.313280	2445.539348
385.698017	2446.479523
386.082692	2445.226797
386.467305	2447.008844
386.851856	2447.359205
387.236344	2446.144287
387.620770	2454.023610
388.005133	2447.843155
388.389435	2450.509926
388.773674	2447.941458
389.157851	2453.824484
389.541965	2448.967333
389.926018	2450.104113
390.310008	2450.199895
390.693936	2449.980605
391.077802	2451.550924
391.461606	2449.307611
391.845348	2451.641665
392.229027	2453.176696
392.612645	2452.072683
392.996200	2452.014710
393.379694	2454.295832
393.763125	2454.008487
394.146494	2454.343723
394.529801	2453.010338
394.913047	2456.612242
395.296230	2457.217181
395.679351	2455.243569
396.062410	2454.449588
396.445408	2456.377829
396.828343	2456.282047
397.211217	2452.760801
397.594028	2453.864814
397.976778	2452.440688
398.359466	2455.500668
398.742092	2453.222067
399.124656	2456.624845
399.507158	2456.539146
399.889598	2460.365382
400.271977	2457.111317
400.654294	2460.796400
401.036549	2458.280864
401.418742	2461.232460
401.800874	2460.647686
402.182944	2460.461163
402.564952	2460.748509
402.946898	2464.337811
403.328783	2461.653396
403.710606	2459.851184
404.092367	2461.484518
404.474067	2463.727831
404.855705	2461.537450
405.237282	2461.665999
405.618797	2464.826803
406.000250	2462.989302
406.381642	2463.984930
406.762972	2464.360496
407.144240	2466.114818
407.525447	2467.065075
407.906593	2465.184725
408.287677	2464.872173
408.668700	2467.314612
409.049661	2464.990640
409.430560	2466.563480
409.811399	2469.023563
410.192176	2469.366362
410.572891	2467.652369
410.953545	2467.080198
411.334138	2467.246557
411.714669	2470.480457
412.095139	2470.775364
412.475547	2468.244705
412.855894	2470.787967
413.236180	2473.580766
413.616405	2472.111270
413.996568	2470.639253
414.376670	2471.728142
414.756711	2472.514562
415.136691	2472.759058
415.516609	2470.876187
415.896466	2475.529172
416.276262	2474.704944
416.655997	2470.833337
417.035670	2470.702267
417.415283	2475.380458
417.794834	2470.651856
418.174324	2475.297279
418.553753	2473.916003
418.933121	2475.902218
419.312428	2473.696713
419.691674	2477.149903
420.070859	2477.969091
420.449983	2478.286683
420.829045	2477.273412
421.208047	2480.207363
421.586988	2477.018833
421.965867	2479.834318
422.344686	2478.379945
422.723444	2481.873464
423.102141	2479.733495
423.480777	2483.088383
423.859352	2480.227528
424.237866	2484.608290
424.616319	2484.693990
424.994712	2485.593836
425.373044	2486.082828
425.751314	2485.772797
426.129524	2483.932776
426.507673	2486.234063
426.885762	2485.074597
427.263789	2489.319249
427.641756	2487.161635
428.019662	2485.805564
428.397508	2489.659527
428.775292	2486.692807
429.153016	2487.852273
429.530679	2493.475680
429.908282	2490.650113
430.285824	2490.309835
430.663305	2489.268837
431.040726	2490.758498
431.418086	2491.232367
431.795385	2492.220433
432.172624	2492.641369
432.549802	2492.381750
432.926920	2493.110196
433.303977	2494.214209
433.680974	2493.463077
434.057910	2495.224960
434.434786	2497.138078
434.811601	2498.194200
435.188355	2495.514827
435.565050	2495.766884
435.941683	2496.964158
436.318257	2500.059427
436.694770	2494.078098
437.071222	2498.567245
437.447614	2497.100270
437.823946	2495.839981
438.200218	2502.166629
438.576429	2501.367606
438.952580	2504.357011
439.328670	2506.096209
439.704700	2504.888852
440.080670	2504.407422
440.456580	2505.950015
440.832429	2509.345232
441.208218	2506.328102
441.583947	2507.933709
441.959616	2506.686024
442.335224	2510.320696
442.710773	2510.408916
443.086261	2512.805984
443.461689	2511.888494
443.837057	2516.236490
444.212365	2519.049453
444.587612	2518.835204
444.962800	2517.411078
445.337927	2520.758405
445.712995	2517.925276
446.088002	2525.595392
446.462949	2525.023221
446.837837	2529.749303
447.212664	2529.310722
447.587431	2536.620395
447.962139	2546.944678
448.336786	2552.946172
448.711374	2553.984650
449.085901	2544.421581
449.460369	2544.860161
449.834776	2546.758156
450.209124	2559.285423
450.583412	2562.231977
450.957640	2567.237843
451.331808	2564.974365
451.705917	2562.630228
452.079965	2567.615930
452.453954	2568.964438
452.827883	2576.392578
453.201752	2579.639082
453.575562	2580.738053
453.949311	2594.447471
454.323001	2598.127513
454.696632	2605.424583
455.070202	2619.169289
455.443713	2625.780763
455.817164	2638.013122
456.190556	2643.354225
456.563888	2654.865700
456.937160	2662.608912
457.310373	2669.162412
457.683526	2678.128104
458.056619	2692.008921
458.429653	2706.088864
458.802628	2721.703838
459.175542	2742.652353
459.548398	2773.973042
459.921194	2813.427632
460.293930	2849.144207
460.666607	2901.499111
461.039224	2954.978191
461.411782	2988.602687
461.784280	2996.534943
462.156719	3012.686800
462.529099	3033.738658
462.901419	3045.552602
463.273680	3060.025755
463.645882	3095.855756
464.018024	3138.045173
464.390106	3198.685212
464.762130	3328.096673
465.134094	3512.786905
465.505999	3760.622631
465.877845	3977.926609
466.249631	4080.698092
466.621358	4080.541816
466.993026	4072.289447
467.364634	4074.336156
467.736184	4078.364038
468.107674	4115.209831
468.479105	4168.255372
468.850477	4223.075400
469.221790	4246.395778
469.593043	4244.333946
469.964238	4286.225934
470.335373	4371.867576
470.706449	4571.058688
471.077467	4852.481102
471.448425	5278.377943
471.819324	5600.565647
472.190164	5580.721145
472.560945	5435.435091
472.931667	5323.912165
473.302330	5350.703378
473.672934	5402.947375
474.043479	5563.548455
474.413965	5618.698678
474.784393	5705.081369
475.154761	5912.691208
475.525070	6047.605088
475.895321	6134.736391
476.265513	6328.402398
476.635645	6577.387508
477.005719	6707.290480
477.375734	6913.014928
477.745691	7152.673902
478.115588	7489.027248
478.485427	7944.785365
478.855207	8627.765929
479.224928	9238.809228
479.594591	9703.656545
479.964194	9737.959076
480.333739	9961.869486
480.703226	10192.603097
481.072653	10567.367515
481.442022	10908.416697
481.811333	11200.871675
482.180584	11179.625732
482.549777	11324.914307
482.918912	11459.210645
483.287988	11650.955973
483.657005	11712.576517
484.025964	11814.899337
484.394864	12068.020713
484.763706	12214.950183
485.132489	12261.432142
485.501213	12475.398876
485.869879	12786.080146
486.238487	12956.894603
486.607036	13277.922842
486.975527	13404.347418
487.343959	13717.879461
487.712333	14023.358261
488.080648	14264.524540
488.448905	14667.481611
488.817104	14903.198403
489.185244	15501.051523
489.553326	16364.200405
489.921350	17650.564235
490.289315	19107.641699
490.657222	19717.790193
491.025070	20188.545742
491.392861	20152.241873
491.760593	19980.469596
492.128267	19638.162647
492.495883	19365.552171
492.863440	19136.136821
493.230939	18918.157329
493.598380	18793.882804
493.965763	18966.854875
494.333088	18953.165622
494.700354	19050.976609
495.067563	19227.853053
495.434713	19475.890426
495.801805	19825.582665
496.168839	19954.782397
496.535815	20104.126580
496.902733	20408.387941
497.269593	20518.189312
497.636395	20789.695776
498.003139	21279.126280
498.369825	21298.449023
498.736453	21758.847521
499.103023	21807.877783
499.469535	22037.467053
499.835989	22384.573180
500.202385	22481.585145
500.568723	22789.708030
500.935003	23190.482281
501.301226	23357.412529
501.667390	24008.961499
502.033497	24440.264978
502.399546	24413.665330
502.765537	24273.085193
503.131470	24785.435302
503.497345	25289.394411
503.863163	24746.477266
504.228923	25400.695527
504.594625	25935.211589
504.960269	25746.072538
505.325856	26460.383874
505.691385	26301.375799
506.056856	26656.905695
506.422270	27211.740128
506.787625	27185.919338
507.152924	27568.673985
507.518164	27912.581500
507.883347	27617.873126
508.248472	28033.123051
508.613540	28621.579460
508.978550	29090.618496
509.343503	29151.291303
509.708398	29536.080055
510.073236	30182.088797
510.438016	30412.993808
510.802738	30225.273842
511.167403	30928.096388
511.532010	31333.448007
511.896561	31785.510957
512.261053	32660.362878
512.625488	32554.773390
512.989866	32658.177538
513.354186	32748.416712
513.718449	32938.758078
514.082655	33710.672158
514.446803	33636.078205
514.810894	34274.086636
515.174927	34403.203188
515.538904	34531.540883
515.902822	35272.683760
516.266684	35007.756002
516.630488	35530.838728
516.994235	35590.034477
517.357925	36239.236790
517.721558	36561.568167
518.085133	37000.582090
518.448651	37278.034595
518.812112	37260.042717
519.175516	37501.554316
519.538863	37954.212122
519.902152	38076.666790
520.265385	38625.502251
520.628560	38816.375459
520.991678	38776.426835
521.354739	39132.082760
521.717743	39545.124659
522.080690	39590.542934
522.443580	40207.854908
522.806413	40401.049567
523.169189	40486.013174
523.531908	40751.112332
523.894569	40743.437175
524.257174	41007.696980
524.619722	41401.771538
524.982213	41492.073727
525.344647	41544.589947
525.707025	41684.802080
526.069345	42157.422856
526.431608	42178.918336
526.793815	42558.426479
527.155964	42221.939542
527.518057	42467.055566
527.880093	42340.275588
528.242072	42925.724949
528.603995	42738.988007
528.965860	42814.199502
529.327669	42972.821928
529.689421	42950.484576
530.051117	42986.831295
530.412755	43191.446688
530.774337	43304.250068
531.135862	43205.400602
531.497331	43468.591683
531.858743	43415.029423
532.220098	43802.777333
532.581396	43570.901900
532.942638	43281.960606
533.303824	43648.150021
533.664953	43648.714630
534.026025	43441.465234
534.387040	43926.542701
534.747999	43912.656843
535.108902	44113.191422
535.469748	43699.816807
535.830537	43857.257083
536.191270	44076.431328
536.551947	43763.216878
536.912567	44084.492133
537.273131	44232.644083
537.633638	43769.067137
537.994089	44143.849199
538.354483	43784.251093
538.714821	44367.247932
539.075103	44724.264968
539.435328	44523.695101
539.795497	44445.700889
540.155609	44432.573724
540.515665	44911.377475
540.875665	44388.234256
541.235609	44728.076080
541.595496	44725.487448
541.955328	45391.423871
542.315102	44805.679603
542.674821	44615.615500
543.034483	44675.322926
543.394090	44652.927600
543.753640	44624.538342
544.113134	45620.279653
544.472571	44676.255539
544.831953	45903.491676
545.191278	45140.213092
545.550548	44887.489968
545.909761	45351.165216
546.268918	45552.413119
546.628019	45857.518873
546.987064	45446.059896
547.346053	44749.654739
547.704986	45615.069620
548.063863	45190.662440
548.422684	45401.571714
548.781449	45247.695534
549.140158	45646.251677
549.498811	45505.565676
549.857408	44947.688907
550.215949	45794.703576
550.574434	45699.884513
550.932864	45511.526841
551.291237	46209.887965
551.649555	45829.774883
552.007817	46079.606906
552.366022	45740.090236
552.724173	45919.051197
553.082267	46305.929508
553.440305	46601.101668
553.798288	45946.071782
554.156215	46252.405057
554.514086	46450.895448
554.871902	46215.705457
555.229661	46247.570590
555.587365	46078.152533
555.945014	46169.959506
556.302606	46101.326717
556.660143	46326.247878
557.017625	46420.109122
557.375050	46215.256794
557.732421	46564.122284
558.089735	46552.192394
558.446994	46471.370095
558.804197	46934.357226
559.161345	46867.012452
559.518437	46153.119532
559.875474	46446.547453
560.232455	46623.260060
560.589381	46791.770710
560.946251	46487.116139
561.303065	47157.798808
561.659825	46973.385839
562.016528	46659.153076
562.373177	46400.468787
562.729770	46875.852115
563.086307	46383.520427
563.442789	46845.890017
563.799216	46894.806853
564.155587	46695.759414
564.511904	46719.861171
564.868164	46829.009713
565.224370	47062.715085
565.580520	46802.372256
565.936615	47000.960950
566.292654	46741.656599
566.648638	46990.513159
567.004567	46937.593647
567.360441	46979.377250
567.716260	46843.896241
568.072023	47155.626071
568.427732	47124.678427
568.783385	46682.044955
569.138982	47075.479287
569.494525	47046.727066
569.850013	46808.925756
570.205445	46786.795091
570.560823	46733.505054
570.916145	46630.423540
571.271412	46643.578431
571.626625	46429.964578
571.981782	46486.758217
572.336884	46159.229410
572.691931	46499.451842
573.046923	46104.432068
573.401860	45936.508713
573.756743	45938.802438
574.111570	46046.300002
574.466342	45897.729637
574.821059	46023.476178
575.175722	45547.213169
575.530330	45575.000009
575.884882	45311.254401
576.239380	45258.556700
576.593823	45234.409573
576.948211	45160.423078
577.302544	44698.776894
577.656823	44725.469804
578.011047	44945.180933
578.365216	44681.722671
578.719330	44480.469727
579.073389	44329.131768
579.427394	44426.032827
579.781344	44409.669242
580.135239	44061.398608
580.489080	44156.540304
580.842866	43632.824913
581.196597	44105.259167
581.550273	44033.972210
581.903895	43903.819700
582.257463	44333.885576
582.610975	43721.158532
582.964434	44007.082696
583.317837	43655.202595
583.671186	43503.133669
584.024481	43729.161363
584.377721	43259.950928
584.730906	43552.383222
585.084037	43569.124893
585.437113	43289.456802
585.790135	43327.643542
586.143103	42937.382617
586.496016	43060.931215
586.848874	43090.568159
587.201679	43107.503915
587.554428	42600.363838
587.907124	42789.538177
588.259765	42547.905591
588.612352	42801.067296
588.964884	42203.579660
589.317362	42481.604336
589.669786	42429.221706
590.022155	42217.939387
590.374470	42640.221721
590.726731	42163.812518
591.078937	41680.665813
591.431090	41780.861266
591.783188	41441.342075
592.135232	41139.414768
592.487222	41369.782896
592.839157	41464.574233
593.191038	41151.805925
593.542866	40910.485890
593.894639	40325.021406
594.246358	40592.394123
594.598022	40569.678684
594.949633	40184.330364
595.301190	40148.175208
595.652692	39991.062607
596.004141	40309.928191
596.355535	39342.344245
596.706876	39283.327457
597.058162	39128.190989
597.409395	39585.141338
597.760573	39667.738123
598.111698	39240.071837
598.462768	39252.462993
598.813785	39295.811875
599.164748	38766.654558
599.515657	39144.995675
599.866511	38631.241604
600.217312	39245.879246
600.568060	38216.173161
600.918753	38963.602357
601.269392	38915.965974
601.619978	38576.839993
601.970510	38794.340575
602.320988	38958.621697
602.671412	39241.170808
603.021783	39000.622070
603.372100	38665.854167
603.722363	38769.606154
604.072572	38844.043832
604.422728	38860.583857
604.772830	38663.119341
605.122878	38774.740569
605.472872	38710.226403
605.822813	38988.271243
606.172701	38807.283738
606.522534	39029.843118
606.872314	39321.229373
607.222041	39076.987989
607.571714	39455.447573
607.921333	38917.639637
608.270899	39194.709014
608.620411	39534.434892
608.969870	39339.304430
609.319276	39343.879277
609.668627	39401.638297
610.017926	39857.451866
610.367171	40005.807982
610.716362	40115.937029
611.065500	40070.707797
611.414585	40247.649777
611.763616	40546.585158
612.112594	40461.041819
612.461518	40690.563033
612.810389	40980.802424
613.159207	40855.063445
613.507971	40906.944479
613.856682	41389.448437
614.205340	41277.968361
614.553945	41953.344345
614.902496	41417.129413
615.250994	41887.648028
615.599439	41960.709471
615.947830	42173.068077
616.296169	42229.264339
616.644454	42367.901111
616.992686	42523.299719
617.340864	43041.101837
617.688990	42777.323462
618.037063	43365.371537
618.385082	43337.930016
618.733048	43629.336435
619.080961	43640.923527
619.428821	43652.296370
619.776628	43756.643214
620.124382	43584.397069
620.472083	43722.575096
620.819731	43836.916027
621.167326	43514.619938
621.514868	43494.662010
621.862357	43067.890528
622.209793	43090.081687
622.557176	42754.711366
622.904506	42506.598377
623.251783	42166.670852
623.599007	41955.091105
623.946179	41714.900289
624.293297	41683.630011
624.640363	41095.594539
624.987376	41088.720925
625.334336	40844.441733
625.681243	40492.324699
626.028097	40471.950876
626.374899	40324.766828
626.721647	40287.628647
627.068343	40179.190907
627.414987	39953.450559
627.761577	39734.314122
628.108115	40062.664636
628.454600	39504.767702
628.801032	39705.173732
629.147412	39676.786994
629.493739	39678.914361
629.840014	39344.771561
630.186236	39684.058859
630.532405	39296.222729
630.878521	39516.805977
631.224585	39386.613138
631.570597	39102.279458
631.916556	39258.260320
632.262462	39226.846370
632.608316	39241.513607
632.954117	39139.732711
633.299866	39120.861151
633.645562	39030.967296
633.991206	38551.994666
634.336797	38127.421127
634.682336	38117.399313
635.027823	37860.895323
635.373257	37701.829276
635.718639	37464.403532
636.063968	37318.694022
636.409245	36753.714266
636.754470	36795.087016
637.099642	36562.394916
637.444762	36092.514007
637.789829	36239.173775
