Dividing Wavelength (nm)	Counts (n)	Blue Motor Position (mm): 37.400000	Red Motor Position (mm): 0.000000	
326.493990	1971.565022
326.888308	1971.565022
327.282561	1971.565022
327.676750	1948.166507
328.070874	1947.584253
328.464933	1954.576334
328.858929	1962.793415
329.252859	1977.042236
329.646726	1989.057826
330.040528	2006.974087
330.434265	2027.204237
330.827938	2045.581764
331.221547	2064.269321
331.615091	2083.866807
332.008571	2106.274735
332.401986	2127.404732
332.795338	2144.859727
333.188625	2165.447799
333.581847	2184.488237
333.975006	2202.631350
334.368100	2222.377550
334.761129	2237.889180
335.154095	2254.164545
335.546996	2294.902109
335.939833	2376.352032
336.332606	2389.040616
336.725315	2400.902451
337.117960	2410.248751
337.510540	2416.882909
337.903056	2429.631987
338.295508	2435.784715
338.687896	2442.101281
339.080220	2443.348967
339.472480	2452.997735
339.864676	2455.291460
340.256807	2458.817747
340.648875	2459.712552
341.040879	2461.907975
341.432818	2465.840075
341.824694	2465.356124
342.216506	2463.563994
342.608253	2465.577935
342.999937	2465.749334
343.391557	2463.874025
343.783113	2461.063581
344.174605	2457.741461
344.566033	2457.312963
344.957397	2456.145936
345.348697	2455.152828
345.739934	2453.126285
346.131106	2454.613425
346.522215	2448.800975
346.913260	2447.336519
347.304241	2447.603701
347.695159	2445.151179
348.086012	2445.289811
348.476802	2442.491971
348.867528	2441.438369
349.258191	2437.886877
349.648789	2440.208328
350.039324	2438.799325
350.429796	2437.551640
350.820203	2434.083326
351.210548	2436.510642
351.600828	2436.016608
351.991045	2437.007195
352.381198	2436.009047
352.771288	2433.836309
353.161314	2434.007709
353.551276	2433.589293
353.941175	2432.137441
354.331010	2434.985693
354.720782	2435.789757
355.110490	2438.335539
355.500135	2435.278079
355.889717	2433.075095
356.279235	2435.920827
356.668689	2435.734304
357.058080	2437.105498
357.447408	2434.153902
357.836672	2432.767585
358.225873	2434.978131
358.615010	2433.075095
359.004084	2439.356373
359.393095	2439.394182
359.782043	2440.457865
360.170927	2440.793102
360.559748	2440.775458
360.948505	2442.310489
361.337199	2442.290324
361.725830	2442.872578
362.114398	2447.056735
362.502903	2446.431632
362.891344	2448.145625
363.279722	2443.217897
363.668037	2446.524894
364.056289	2445.710747
364.444478	2447.472631
364.832603	2447.465069
365.220665	2448.198557
365.608665	2449.156376
365.996601	2447.865841
366.384474	2450.411623
366.772284	2448.770728
367.160031	2450.232662
367.547715	2451.371963
367.935336	2453.559824
368.322893	2454.429423
368.710388	2454.346244
369.097820	2455.046964
369.485189	2454.263065
369.872495	2455.742643
370.259738	2452.743157
370.646918	2457.408745
371.034035	2454.096707
371.421090	2457.254990
371.808081	2455.604012
372.195010	2457.015535
372.581875	2460.067953
372.968678	2457.355813
373.355418	2459.117696
373.742096	2460.766153
374.128710	2463.243880
374.515262	2459.556276
374.901751	2459.483180
375.288177	2463.906792
375.674540	2461.718931
376.060841	2462.948973
376.447079	2467.977524
376.833254	2464.163891
377.219367	2461.802110
377.605417	2466.747482
377.991404	2461.802110
378.377329	2466.490383
378.763191	2462.316308
379.148991	2469.202524
379.534727	2470.752679
379.920402	2471.970118
380.306013	2469.641105
380.691563	2473.401805
381.077049	2471.178657
381.462474	2471.140848
381.847835	2471.924747
382.233134	2471.927268
382.618371	2475.337608
383.003545	2478.942033
383.388657	2478.823566
383.773706	2476.529841
384.158693	2478.558906
384.543618	2480.587970
384.928480	2480.643423
385.313280	2479.819194
385.698017	2482.261633
386.082692	2485.712303
386.467305	2481.273567
386.851856	2485.823208
387.236344	2485.248517
387.620770	2487.864876
388.005133	2487.368322
388.389435	2491.116420
388.773674	2487.834629
389.157851	2491.118941
389.541965	2492.825371
389.926018	2494.229333
390.310008	2493.657162
390.693936	2495.303098
391.077802	2494.395691
391.461606	2496.868377
391.845348	2499.444406
392.229027	2499.855260
392.612645	2501.102946
392.996200	2504.384737
393.379694	2505.604696
393.763125	2506.260046
394.146494	2507.948833
394.529801	2509.357835
394.913047	2513.426046
395.296230	2513.562157
395.679351	2511.865809
396.062410	2514.963598
396.445408	2514.262878
396.828343	2519.629186
397.211217	2522.598426
397.594028	2523.495751
397.976778	2523.394928
398.359466	2534.855991
398.742092	2529.673685
399.124656	2542.579039
399.507158	2548.157076
399.889598	2557.100083
400.271977	2566.600137
400.654294	2574.330747
401.036549	2587.251224
401.418742	2600.267483
401.800874	2617.984618
402.182944	2632.878707
402.564952	2655.740340
402.946898	2674.168278
403.328783	2696.505631
403.710606	2727.740620
404.092367	2764.677154
404.474067	2807.610141
404.855705	2834.832372
405.237282	2874.541540
405.618797	2938.682661
406.000250	2996.171980
406.381642	3074.665266
406.762972	3131.093421
407.144240	3174.800225
407.525447	3259.002618
407.906593	3325.021569
408.287677	3416.987338
408.668700	3511.778675
409.049661	3588.016044
409.430560	3695.715255
409.811399	3784.663894
410.192176	3895.483579
410.572891	4003.119775
410.953545	4179.620654
411.334138	4197.592367
411.714669	4412.559770
412.095139	4395.883633
412.475547	4605.709059
412.855894	4686.995144
413.236180	4880.172160
413.616405	4927.503553
413.996568	5118.563284
414.376670	5239.611470
414.756711	5334.609494
415.136691	5547.199993
415.516609	5731.413837
415.896466	5897.053549
416.276262	6130.063242
416.655997	6424.305309
417.035670	6596.523727
417.415283	6978.577654
417.794834	7176.589136
418.174324	7243.510453
418.553753	7364.523351
418.933121	7733.770227
419.312428	7825.118455
419.691674	7943.444418
420.070859	8320.003487
420.449983	8327.635794
420.829045	8762.165611
421.208047	8800.710273
421.586988	9207.027273
421.965867	9514.207462
422.344686	9679.882463
422.723444	10162.028499
423.102141	9582.394109
423.480777	10428.103120
423.859352	10302.553183
424.237866	11141.728858
424.616319	11135.737447
424.994712	11712.445447
425.373044	11744.970972
425.751314	12366.467103
426.129524	11945.606374
426.507673	12861.253832
426.885762	12819.659272
427.263789	13111.393366
427.641756	13395.822827
428.019662	13587.684102
428.397508	13769.974745
428.775292	14128.877173
429.153016	14257.605557
429.530679	14459.922184
429.908282	14614.231903
430.285824	14525.568089
430.663305	15198.665472
431.040726	15020.556465
431.418086	14998.662734
431.795385	15624.615245
432.172624	16095.413644
432.549802	15838.992833
432.926920	16105.304388
433.303977	16113.193794
433.680974	16418.475988
434.057910	16770.242662
434.434786	16889.627268
434.811601	16903.261068
435.188355	17928.745187
435.565050	17684.009770
435.941683	17736.110095
436.318257	18617.107183
436.694770	18515.926184
437.071222	19127.085429
437.447614	18338.076797
437.823946	18424.151978
438.200218	18617.089539
438.576429	18462.742011
438.952580	18784.410476
439.328670	18786.205127
439.704700	19230.003106
440.080670	18861.645994
440.456580	19460.812334
440.832429	19652.676129
441.208218	18741.351460
441.583947	19178.636268
441.959616	19314.976795
442.335224	19569.098840
442.710773	19720.474607
443.086261	20250.075545
443.461689	19666.156175
443.837057	19808.334357
444.212365	20435.824420
444.587612	20453.380239
444.962800	20071.626261
445.337927	20482.520628
445.712995	19282.441188
446.088002	21069.598282
446.462949	21263.362592
446.837837	21444.561826
447.212664	21416.064183
447.587431	24143.346058
447.962139	26989.382394
448.336786	29312.388936
448.711374	27794.941134
449.085901	24248.703652
449.460369	24191.431104
449.834776	24118.636842
450.209124	26517.994180
450.583412	26105.418587
450.957640	26608.868540
451.331808	25316.074718
451.705917	23991.279652
452.079965	24017.470967
452.453954	24381.023859
452.827883	24261.770323
453.201752	24075.585388
453.575562	24227.603903
453.949311	25311.673791
454.323001	25389.136161
454.696632	25155.642517
455.070202	26663.232343
455.443713	26808.092419
455.817164	27359.619856
456.190556	27894.211536
456.563888	27348.877157
456.937160	27786.608107
457.310373	26161.985375
457.683526	26580.232265
458.056619	26557.385756
458.429653	26519.751022
458.802628	27074.487153
459.175542	27183.038319
459.548398	28463.410737
459.921194	30009.388949
460.293930	30685.253924
460.666607	32687.857331
461.039224	34396.390069
461.411782	34772.649189
461.784280	33542.126221
462.156719	33044.599624
462.529099	32493.349451
462.901419	31214.151621
463.273680	30194.847958
463.645882	30281.094538
464.018024	30273.449628
464.390106	31098.605855
464.762130	33767.347330
465.134094	37794.445354
465.505999	43039.440777
465.877845	47555.316474
466.249631	48650.751643
466.621358	46849.933022
466.993026	44698.202203
467.364634	42597.981893
467.736184	40689.277539
468.107674	39452.939599
468.479105	38707.819252
468.850477	38017.100517
469.221790	36630.679865
469.593043	34939.655054
469.964238	34074.519958
470.335373	33977.376923
470.706449	35627.293645
471.077467	38144.414857
471.448425	42651.662620
471.819324	45507.745975
472.190164	43694.909244
472.560945	40186.167864
472.931667	37129.607902
473.302330	36046.717645
473.672934	35245.716107
474.043479	35735.247434
474.413965	34988.592055
474.784393	34605.761791
475.154761	35480.896017
475.525070	35522.765320
475.895321	35066.616514
476.265513	35651.894476
476.635645	36596.256346
477.005719	36427.864164
477.375734	36894.133086
477.745691	37552.323776
478.115588	38858.499340
478.485427	40801.670064
478.855207	44116.453049
479.224928	46724.453662
479.594591	48326.403805
479.964194	47286.786812
480.333739	47376.836943
480.703226	47393.497956
481.072653	48040.177172
481.442022	48551.574503
481.811333	48805.416764
482.180584	47511.173611
482.549777	47012.709359
482.918912	46491.345667
483.287988	46195.681994
483.657005	45364.922525
484.025964	44743.106281
484.394864	44726.011728
484.763706	44301.602027
485.132489	43431.768575
485.501213	43289.479487
485.869879	43419.818519
486.238487	43036.196794
486.607036	43230.346752
486.975527	42699.593911
487.343959	42912.433947
487.712333	42991.948066
488.080648	42894.787387
488.448905	43328.871063
488.817104	43146.666119
489.185244	44076.935444
489.553326	45730.577578
489.921350	48437.712482
490.289315	51375.840616
490.657222	52010.579859
491.025070	52298.482675
491.392861	51367.671426
491.760593	50074.325598
492.128267	48356.378506
492.495883	46827.290680
492.863440	45460.223018
493.230939	44106.912665
493.598380	43062.100763
493.965763	42727.121131
494.333088	41951.582462
494.700354	41476.884730
495.067563	41193.460979
495.434713	41080.289596
495.801805	41139.623976
496.168839	40772.756526
496.535815	40453.452362
496.902733	40483.434624
497.269593	40075.930433
497.636395	40023.106702
498.003139	40399.779197
498.369825	39880.542871
498.736453	40168.549032
499.103023	39714.091533
499.469535	39579.775030
499.835989	39680.230103
500.202385	39346.198208
500.568723	39375.202486
500.935003	39559.582688
501.301226	39374.158967
501.667390	39961.168565
502.033497	40218.426208
502.399546	39636.626642
502.765537	38987.769648
503.131470	39336.108338
503.497345	39686.105567
503.863163	38390.667661
504.228923	38977.556271
504.594625	39370.584789
504.960269	38669.060341
505.325856	39347.392961
505.691385	38739.414684
506.056856	38857.574289
506.422270	39302.602309
506.787625	38880.120849
507.152924	39050.537055
507.518164	39158.672326
507.883347	38397.211078
508.248472	38645.646702
508.613540	39068.995240
508.978550	39391.866020
509.343503	39138.210282
509.708398	39338.641518
510.073236	39848.274445
510.438016	39840.228764
510.802738	39312.563629
511.167403	39930.445253
511.532010	40138.236573
511.896561	40445.920878
512.261053	41255.744435
512.625488	40816.382671
512.989866	40678.819665
513.354186	40530.486234
513.718449	40532.739629
514.082655	41191.545340
514.446803	40867.505012
514.810894	41370.458411
515.174927	41289.603344
515.538904	41190.698427
515.902822	41841.816378
516.266684	41300.383852
516.630488	41724.470919
516.994235	41583.293406
517.357925	42140.902994
517.721558	42304.294352
518.085133	42605.500774
518.448651	42744.056887
518.812112	42507.397400
519.175516	42614.496713
519.538863	42967.805980
519.902152	42915.932507
520.265385	43364.443965
520.628560	43395.608378
520.991678	43194.841906
521.354739	43430.969552
521.717743	43741.434053
522.080690	43622.278820
522.443580	44180.831104
522.806413	44245.975415
523.169189	44177.312379
523.531908	44349.682032
523.894569	44217.104727
524.257174	44371.054003
524.619722	44678.813925
524.982213	44660.930432
525.344647	44584.874544
525.707025	44638.388912
526.069345	45050.959464
526.431608	44954.363394
526.793815	45271.769564
527.155964	44797.429754
527.518057	44992.537532
527.880093	44777.555005
528.242072	45298.926260
528.603995	45003.968348
528.965860	44988.635679
529.327669	45103.775633
529.689421	45005.720149
530.051117	44965.592564
530.412755	45098.076608
530.774337	45175.047466
531.135862	44987.350184
531.497331	45194.294591
531.858743	45098.263131
532.220098	45440.920440
532.581396	45159.387121
532.942638	44812.548175
533.303824	45121.119722
533.664953	45089.824239
534.026025	44817.969936
534.387040	45293.650692
534.747999	45250.752993
535.108902	45420.922183
535.469748	44933.248521
535.830537	45049.444597
536.191270	45232.965282
536.551947	44907.342032
536.912567	45210.350666
537.273131	45328.152349
537.633638	44837.522051
537.994089	45192.275609
538.354483	44774.754644
538.714821	45361.300456
539.075103	45702.153032
539.435328	45477.239433
539.795497	45349.557088
540.155609	45350.671183
540.515665	45815.455486
540.875665	45284.057376
541.235609	45588.560713
541.595496	45571.879535
541.955328	46236.593478
542.315102	45617.151617
542.674821	45425.963337
543.034483	45451.138859
543.394090	45422.232883
543.753640	45385.750052
544.113134	46375.058851
544.472571	45423.352019
544.831953	46641.584654
545.191278	45880.655249
545.550548	45595.754439
545.909761	46040.608540
546.268918	46250.595283
546.628019	46562.811584
546.987064	46133.504402
547.346053	45440.174349
547.704986	46287.131045
548.063863	45856.419902
548.422684	46059.812815
548.781449	45913.074909
549.140158	46297.969526
549.498811	46162.806109
549.857408	45608.029649
550.215949	46427.068435
550.574434	46362.463528
550.932864	46142.535629
551.291237	46842.333483
551.649555	46457.428784
552.007817	46703.787452
552.366022	46352.683689
552.724173	46521.801798
553.082267	46926.757686
553.440305	47218.476657
553.798288	46552.570480
554.156215	46868.252575
554.514086	47055.816266
554.871902	46813.094791
555.229661	46833.277050
555.587365	46648.145716
555.945014	46757.914321
556.302606	46685.067127
556.660143	46896.661998
557.017625	46977.156622
557.375050	46782.414328
557.732421	47117.351110
558.089735	47102.908205
558.446994	47033.231897
558.804197	47501.308073
559.161345	47430.048842
559.518437	46696.903756
559.875474	46993.888212
560.232455	47161.831731
560.589381	47324.524889
560.946251	47028.687297
561.303065	47692.264460
561.659825	47505.759411
562.016528	47196.257771
562.373177	46922.755010
562.729770	47387.841782
563.086307	46906.731703
563.442789	47347.956173
563.799216	47414.355730
564.155587	47198.947227
564.511904	47229.695744
564.868164	47304.990418
565.224370	47545.468580
565.580520	47289.710681
565.936615	47494.298348
566.292654	47214.408445
566.648638	47461.896332
567.004567	47413.287006
567.360441	47434.648895
567.716260	47299.495561
568.072023	47595.809542
568.427732	47577.857994
568.783385	47156.334353
569.138982	47539.217549
569.494525	47484.296699
569.850013	47237.544821
570.205445	47204.898309
570.560823	47176.902261
570.916145	47053.426759
571.271412	47073.886282
571.626625	46834.580188
571.981782	46894.310300
572.336884	46572.432627
572.691931	46889.140596
573.046923	46505.670106
573.401860	46352.270315
573.756743	46331.397417
574.111570	46449.531816
574.466342	46303.875238
574.821059	46424.227745
575.175722	45936.962417
575.530330	45958.001672
575.884882	45677.045566
576.239380	45642.213713
576.593823	45606.207272
576.948211	45533.758329
577.302544	45062.685188
577.656823	45084.720071
578.011047	45309.356407
578.365216	45035.747782
578.719330	44828.858828
579.073389	44681.659656
579.427394	44768.886741
579.781344	44737.823151
580.135239	44376.400147
580.489080	44462.261079
580.842866	43957.689470
581.196597	44415.615283
581.550273	44362.426068
581.903895	44210.188263
582.257463	44637.360517
582.610975	44047.724478
582.964434	44316.218852
583.317837	43953.442298
583.671186	43793.156291
584.024481	44016.933110
584.377721	43570.201180
584.730906	43830.601982
585.084037	43851.114437
585.437113	43579.948251
585.790135	43620.282523
586.143103	43202.660735
586.496016	43348.178682
586.848874	43363.685271
587.201679	43372.109039
587.554428	42860.063920
587.907124	43050.241449
588.259765	42814.139008
588.612352	43060.568252
588.964884	42439.241000
589.317362	42736.633788
589.669786	42675.658512
590.022155	42448.163842
590.374470	42871.134294
590.726731	42387.201168
591.078937	41903.144535
591.431090	42005.933662
591.783188	41672.504185
592.135232	41349.774557
592.487222	41587.719539
592.839157	41679.750843
593.191038	41348.322704
593.542866	41124.515638
593.894639	40529.001614
594.246358	40798.111009
594.598022	40781.944029
594.949633	40386.513400
595.301190	40352.853616
595.652692	40179.170743
596.004141	40496.118167
596.355535	39540.595182
596.706876	39511.270790
597.058162	39322.156945
597.409395	39786.321185
597.760573	39858.588646
598.111698	39436.354203
598.462768	39450.817273
598.813785	39514.822283
599.164748	38963.438519
599.515657	39342.089667
599.866511	38824.403496
600.217312	39425.104868
600.568060	38400.991944
600.918753	39146.354266
601.269392	39111.865212
601.619978	38764.935525
601.970510	38962.019435
602.320988	39145.487188
602.671412	39457.675763
603.021783	39207.097649
603.372100	38841.094757
603.722363	38944.708112
604.072572	39032.905619
604.422728	39053.407992
604.772830	38878.676559
605.122878	38944.798853
605.472872	38903.625229
605.822813	39180.195532
606.172701	39004.813790
606.522534	39245.670038
606.872314	39499.381229
607.222041	39252.808312
607.571714	39642.456737
607.921333	39111.472002
608.270899	39404.158874
608.620411	39726.679294
608.969870	39540.766581
609.319276	39531.158142
609.668627	39574.640615
610.017926	40049.227441
610.367171	40221.113143
610.716362	40307.117748
611.065500	40248.968038
611.414585	40464.681532
611.763616	40729.382438
612.112594	40656.699082
612.461518	40878.678730
612.810389	41167.027689
613.159207	41035.536752
613.507971	41112.558021
613.856682	41576.936511
614.205340	41468.720582
614.553945	42157.475788
614.902496	41611.594443
615.250994	42075.957809
615.599439	42152.139726
615.947830	42360.568753
616.296169	42403.645412
616.644454	42548.538256
616.992686	42708.693193
617.340864	43220.617325
617.688990	42938.718523
618.037063	43541.320409
618.385082	43521.478428
618.733048	43808.998117
619.080961	43821.757277
619.428821	43846.229559
619.776628	43933.708701
620.124382	43748.163993
620.472083	43883.629879
620.819731	44010.624106
621.167326	43689.119478
621.514868	43675.168085
621.862357	43221.675967
622.209793	43236.870005
622.557176	42922.637242
622.904506	42661.691995
623.251783	42323.463340
623.599007	42114.338634
623.946179	41880.023283
624.293297	41829.924296
624.640363	41258.302820
624.987376	41251.320822
625.334336	41005.501558
625.681243	40655.922744
626.028097	40617.675510
626.374899	40461.808074
626.721647	40456.870264
627.068343	40340.467501
627.414987	40108.113159
627.761577	39893.128112
628.108115	40223.331250
628.454600	39685.498108
628.801032	39863.526456
629.147412	39847.896359
629.493739	39842.514927
629.840014	39508.881283
630.186236	39825.415333
630.532405	39456.594436
630.878521	39676.431593
631.224585	39553.034229
631.570597	39256.440463
631.916556	39426.334910
632.262462	39364.981547
632.608316	39383.596007
632.954117	39279.100450
633.299866	39275.012074
633.645562	39187.225421
633.991206	38694.802993
634.336797	38258.171014
634.682336	38277.793705
635.027823	38016.977008
635.373257	37837.222065
635.718639	37596.194417
