Dividing Wavelength (nm)	Counts (n)	Blue Motor Position (mm): 22.000000	Red Motor Position (mm): 0.000000	
326.493990	1973.468058
326.888308	1973.468058
327.282561	1973.468058
327.676750	1949.736826
328.070874	1949.842690
328.464933	1957.699329
328.858929	1965.056893
329.252859	1979.837556
329.646726	1995.659217
330.040528	2007.914262
330.434265	2027.544515
330.827938	2047.462114
331.221547	2067.619168
331.615091	2087.025089
332.008571	2108.686928
332.401986	2128.470936
332.795338	2149.056488
333.188625	2168.079282
333.581847	2187.933866
333.975006	2203.972297
334.368100	2222.228836
334.761129	2240.528224
335.154095	2255.286202
335.546996	2292.530247
335.939833	2358.627335
336.332606	2372.414891
336.725315	2382.638351
337.117960	2390.671430
337.510540	2399.629560
337.903056	2411.123391
338.295508	2412.867630
338.687896	2424.858014
339.080220	2428.780032
339.472480	2433.324632
339.864676	2438.373348
340.256807	2440.669593
340.648875	2442.706220
341.040879	2442.791919
341.432818	2446.320727
341.824694	2443.711930
342.216506	2447.926334
342.608253	2447.785182
342.999937	2444.755449
343.391557	2444.631940
343.783113	2442.635643
344.174605	2438.842175
344.566033	2437.539037
344.957397	2437.914603
345.348697	2437.037442
345.739934	2432.172729
346.131106	2432.883531
346.522215	2432.868408
346.913260	2428.883376
347.304241	2428.472522
347.695159	2425.039496
348.086012	2426.498910
348.476802	2422.173600
348.867528	2420.028589
349.258191	2419.839546
349.648789	2418.294432
350.039324	2416.603125
350.429796	2421.031779
350.820203	2415.708320
351.210548	2418.365008
351.600828	2415.156314
351.991045	2414.866448
352.381198	2410.974677
352.771288	2416.325862
353.161314	2414.662281
353.551276	2411.675397
353.941175	2413.548186
354.331010	2413.066756
354.720782	2417.092117
355.110490	2414.445511
355.500135	2414.276633
355.889717	2417.318969
356.279235	2417.203022
356.668689	2417.308887
357.058080	2412.960891
357.447408	2412.318144
357.836672	2411.199008
358.225873	2413.258319
358.615010	2413.908628
359.004084	2420.895668
359.393095	2419.214443
359.782043	2419.368198
360.170927	2418.193609
360.559748	2418.538928
360.948505	2417.611356
361.337199	2422.501275
361.725830	2421.969433
362.114398	2422.571851
362.502903	2421.966913
362.891344	2423.023034
363.279722	2423.315421
363.668037	2426.619898
364.056289	2423.005390
364.444478	2424.517737
364.832603	2427.134095
365.220665	2424.681574
365.608665	2424.142171
365.996601	2429.402615
366.384474	2425.934301
366.772284	2430.436051
367.160031	2426.380443
367.547715	2426.395566
367.935336	2426.047727
368.322893	2428.717018
368.710388	2428.293561
369.097820	2428.661565
369.485189	2432.434869
369.872495	2431.653490
370.259738	2427.802048
370.646918	2431.182142
371.034035	2430.703232
371.421090	2432.502924
371.808081	2432.691968
372.195010	2431.489652
372.581875	2431.774477
372.968678	2432.979313
373.355418	2432.099632
373.742096	2431.824889
374.128710	2435.026022
374.515262	2435.663728
374.901751	2434.864705
375.288177	2434.179108
375.674540	2432.228181
376.060841	2437.763368
376.447079	2434.794129
376.833254	2434.153902
377.219367	2428.956473
377.605417	2433.952256
377.991404	2430.378078
378.377329	2435.288162
378.763191	2432.369334
379.148991	2438.353183
379.534727	2437.062648
379.920402	2436.639191
380.306013	2435.978800
380.691563	2439.575663
381.077049	2439.618513
381.462474	2437.297062
381.847835	2439.253029
382.233134	2439.434511
382.618371	2440.236054
383.003545	2439.384099
383.388657	2440.170519
383.773706	2441.939964
384.158693	2441.539193
384.543618	2443.613627
384.928480	2441.335026
385.313280	2440.654470
385.698017	2441.743359
386.082692	2442.852413
386.467305	2442.645726
386.851856	2444.909204
387.236344	2444.122784
387.620770	2442.176898
388.005133	2443.532969
388.389435	2445.499019
388.773674	2443.175047
389.157851	2448.138063
389.541965	2444.878957
389.926018	2443.953905
390.310008	2445.161262
390.693936	2446.439194
391.077802	2447.621345
391.461606	2447.696962
391.845348	2449.138732
392.229027	2449.587395
392.612645	2449.226952
392.996200	2447.732250
393.379694	2449.521860
393.763125	2447.608742
394.146494	2452.551593
394.529801	2450.782148
394.913047	2450.535132
395.296230	2448.584205
395.679351	2449.536983
396.062410	2450.590584
396.445408	2452.198712
396.828343	2452.007148
397.211217	2449.229473
397.594028	2453.224587
397.976778	2449.123608
398.359466	2450.567899
398.742092	2448.168310
399.124656	2453.421192
399.507158	2455.785493
399.889598	2454.058898
400.271977	2454.515122
400.654294	2454.956223
401.036549	2455.861111
401.418742	2454.048816
401.800874	2455.828343
402.182944	2453.544700
402.564952	2452.607046
402.946898	2457.144084
403.328783	2453.960596
403.710606	2458.424537
404.092367	2456.902109
404.474067	2455.697273
404.855705	2455.369598
405.237282	2457.355813
405.618797	2458.469908
406.000250	2458.447223
406.381642	2459.614250
406.762972	2461.764302
407.144240	2460.637604
407.525447	2456.965123
407.906593	2459.241204
408.287677	2460.846812
408.668700	2461.297995
409.049661	2458.391770
409.430560	2462.248252
409.811399	2459.999898
410.192176	2463.828654
410.572891	2461.668520
410.953545	2463.924436
411.334138	2459.815896
411.714669	2462.565845
412.095139	2462.341514
412.475547	2462.109621
412.855894	2464.819241
413.236180	2465.416618
413.616405	2463.702625
413.996568	2464.398305
414.376670	2464.093315
414.756711	2461.867645
415.136691	2464.693212
415.516609	2464.093315
415.896466	2465.338480
416.276262	2466.523151
416.655997	2461.855042
417.035670	2464.849488
417.415283	2466.210599
417.794834	2461.988633
418.174324	2466.997019
418.553753	2463.977368
418.933121	2469.706640
419.312428	2465.973665
419.691674	2470.699747
420.070859	2468.219499
420.449983	2470.936681
420.829045	2468.819397
421.208047	2473.124542
421.586988	2469.792339
421.965867	2472.529686
422.344686	2472.265025
422.723444	2473.847948
423.102141	2472.459110
423.480777	2476.131590
423.859352	2475.549337
424.237866	2473.863071
424.616319	2471.531537
424.994712	2473.316106
425.373044	2475.438432
425.751314	2477.349029
426.129524	2471.760910
426.507673	2476.648308
426.885762	2474.611682
427.263789	2477.379276
427.641756	2476.164358
428.019662	2480.250213
428.397508	2479.592342
428.775292	2478.495891
429.153016	2478.846252
429.530679	2480.953454
429.908282	2480.277939
430.285824	2479.083186
430.663305	2479.806591
431.040726	2480.109061
431.418086	2480.807260
431.795385	2481.835656
432.172624	2480.063690
432.549802	2482.286839
432.926920	2483.043012
433.303977	2483.564772
433.680974	2482.453197
434.057910	2479.920017
434.434786	2482.947230
434.811601	2482.334730
435.188355	2483.569813
435.565050	2485.412354
435.941683	2482.732981
436.318257	2484.066366
436.694770	2482.123002
437.071222	2484.852786
437.447614	2482.806078
437.823946	2483.060656
438.200218	2488.522746
438.576429	2484.189875
438.952580	2490.282109
439.328670	2486.869248
439.704700	2486.513847
440.080670	2488.003508
440.456580	2489.835967
440.832429	2492.666575
441.208218	2488.053919
441.583947	2493.150526
441.959616	2490.244300
442.335224	2490.992912
442.710773	2490.685401
443.086261	2496.089518
443.461689	2492.759836
443.837057	2494.045330
444.212365	2492.316215
444.587612	2493.337048
444.962800	2496.124806
445.337927	2497.475836
445.712995	2493.808396
446.088002	2498.925167
446.462949	2498.416011
446.837837	2503.590755
447.212664	2499.119252
447.587431	2506.028153
447.962139	2510.736591
448.336786	2516.579288
448.711374	2512.639626
449.085901	2511.691889
449.460369	2508.427742
449.834776	2512.821108
450.209124	2516.995183
450.583412	2515.606345
450.957640	2516.982580
451.331808	2517.736233
451.705917	2516.617097
452.079965	2515.840759
452.453954	2515.795389
452.827883	2517.650533
453.201752	2516.193640
453.575562	2523.170597
453.949311	2526.114631
454.323001	2526.467511
454.696632	2526.094466
455.070202	2531.937163
455.443713	2531.886752
455.817164	2532.564787
456.190556	2535.244160
456.563888	2532.355579
456.937160	2535.143337
457.310373	2537.215251
457.683526	2537.978986
458.056619	2541.220448
458.429653	2540.852444
458.802628	2545.777651
459.175542	2548.719164
459.548398	2551.655637
459.921194	2558.604867
460.293930	2563.923284
460.666607	2573.801425
461.039224	2577.390727
461.411782	2583.409865
461.784280	2582.341140
462.156719	2582.678897
462.529099	2577.975501
462.901419	2579.568505
463.273680	2581.358115
463.645882	2579.845769
464.018024	2585.811974
464.390106	2591.430340
464.762130	2605.162443
465.134094	2624.215484
465.505999	2647.820687
465.877845	2671.975376
466.249631	2680.963753
466.621358	2677.208094
466.993026	2674.468227
467.364634	2671.204079
467.736184	2667.778615
468.107674	2666.556136
468.479105	2668.640653
468.850477	2669.563184
469.221790	2669.898421
469.593043	2665.774757
469.964238	2667.561846
470.335373	2672.900428
470.706449	2694.713500
471.077467	2722.419682
471.448425	2760.908892
471.819324	2790.898716
472.190164	2788.874692
472.560945	2773.491612
472.931667	2763.046341
473.302330	2767.124634
473.672934	2775.029163
474.043479	2794.888789
474.413965	2800.925571
474.784393	2808.499904
475.154761	2838.393947
475.525070	2856.146370
475.895321	2870.763196
476.265513	2899.331414
476.635645	2936.893052
477.005719	2957.755867
477.375734	2990.735095
477.745691	3027.164994
478.115588	3079.600555
478.485427	3153.521515
478.855207	3258.165786
479.224928	3359.404758
479.594591	3433.444185
479.964194	3451.960343
480.333739	3494.732013
480.703226	3549.360477
481.072653	3639.158550
481.442022	3721.180644
481.811333	3795.535142
482.180584	3821.010613
482.549777	3876.339797
482.918912	3932.657047
483.287988	4001.652800
483.657005	4045.253739
484.025964	4100.877831
484.394864	4180.119728
484.763706	4246.917537
485.132489	4299.098521
485.501213	4379.746900
485.869879	4482.387313
486.238487	4567.340837
486.607036	4676.504503
486.975527	4758.219087
487.343959	4878.480853
487.712333	5002.026931
488.080648	5110.154639
488.448905	5259.019913
488.817104	5380.741093
489.185244	5587.539306
489.553326	5880.188369
489.921350	6285.260204
490.289315	6727.225723
490.657222	6972.714792
491.025070	7182.094076
491.392861	7263.145747
491.760593	7289.821013
492.128267	7275.083200
492.495883	7286.297247
492.863440	7312.690208
493.230939	7339.090730
493.598380	7396.852271
493.965763	7535.317644
494.333088	7629.919937
494.700354	7755.663958
495.067563	7904.756083
495.434713	8085.738547
495.801805	8298.218140
496.168839	8443.552085
496.535815	8592.654293
496.902733	8795.580899
497.269593	8942.601110
497.636395	9132.692939
498.003139	9412.857585
498.369825	9523.957054
498.736453	9802.475763
499.103023	9945.911713
499.469535	10138.042689
499.835989	10376.643021
500.202385	10534.852073
500.568723	10778.019691
500.935003	11053.317102
501.301226	11246.042934
501.667390	11636.810495
502.033497	11939.756115
502.399546	12049.713763
502.765537	12116.062909
503.131470	12468.711785
503.497345	12833.373731
503.863163	12728.434552
504.228923	13156.103359
504.594625	13548.426116
504.960269	13600.884363
505.325856	14064.441144
505.691385	14145.366787
506.056856	14443.800574
506.422270	14867.476787
506.787625	14996.328680
507.152924	15344.553943
507.518164	15664.798283
507.883347	15670.124262
508.248472	16028.683891
508.613540	16489.959550
508.978550	16890.910242
509.343503	17087.076661
509.708398	17458.559288
510.073236	17993.463520
510.438016	18278.971788
510.802738	18348.262448
511.167403	18917.527184
511.532010	19318.243463
511.896561	19744.699872
512.261053	20441.253743
512.625488	20543.836183
512.989866	20785.824170
513.354186	21004.186790
513.718449	21298.378446
514.082655	21938.335283
514.446803	22071.729255
514.810894	22655.893122
515.174927	22910.607502
515.538904	23145.316063
515.902822	23813.513444
516.266684	23815.650893
516.630488	24344.246121
516.994235	24545.549476
517.357925	25158.979761
517.721558	25562.640073
518.085133	26024.969334
518.448651	26409.011995
518.812112	26558.956075
519.175516	26902.087253
519.538863	27388.243527
519.902152	27642.438669
520.265385	28224.011382
520.628560	28538.498724
520.991678	28677.314457
521.354739	29109.898389
521.717743	29593.692882
522.080690	29782.443764
522.443580	30429.203638
522.806413	30725.003423
523.169189	30944.018872
523.531908	31332.129745
523.894569	31482.701448
524.257174	31862.980889
524.619722	32321.693121
524.982213	32562.002405
525.344647	32748.406630
525.707025	33017.982332
526.069345	33556.554003
526.431608	33723.043150
526.793815	34185.821073
527.155964	34062.121240
527.518057	34420.688431
527.880093	34472.607274
528.242072	35096.137511
528.603995	35098.746308
528.965860	35286.360410
529.327669	35559.220424
529.689421	35688.667172
530.051117	35851.720773
530.412755	36160.761148
530.774337	36398.370893
531.135862	36449.646989
531.497331	36790.784391
531.858743	36903.436535
532.220098	37345.155038
532.581396	37296.069323
532.942638	37168.835641
533.303824	37581.617921
533.664953	37718.684373
534.026025	37656.736154
534.387040	38195.123823
534.747999	38311.776123
535.108902	38603.255639
535.469748	38344.503294
535.830537	38600.745144
536.191270	38908.386599
536.551947	38750.565716
536.912567	39154.042026
537.273131	39392.052543
537.633638	39081.938402
537.994089	39504.916416
538.354483	39282.924165
538.714821	39909.942880
539.075103	40351.598369
539.435328	40268.111820
539.795497	40269.006625
540.155609	40369.149146
540.515665	40897.983828
540.875665	40527.154031
541.235609	40931.056318
541.595496	41003.475014
541.955328	41723.051834
542.315102	41265.567123
542.674821	41172.888030
543.034483	41309.868783
543.394090	41361.129756
543.753640	41414.646645
544.113134	42446.147380
544.472571	41633.334419
544.831953	42864.517779
545.191278	42226.088412
545.550548	42062.331571
545.909761	42564.730442
546.268918	42832.428314
546.628019	43201.090416
546.987064	42872.820560
547.346053	42269.686831
547.704986	43165.830065
548.063863	42839.117926
548.422684	43103.977628
548.781449	43030.805280
549.140158	43487.054909
549.498811	43412.148404
549.857408	42924.961214
550.215949	43772.424546
550.574434	43780.939055
550.932864	43652.082121
551.291237	44387.044543
551.649555	44056.861569
552.007817	44345.344119
552.366022	44100.747334
552.724173	44308.783150
553.082267	44727.997942
553.440305	45068.868163
553.798288	44485.873844
554.156215	44818.771479
554.514086	45073.952166
554.871902	44886.464093
555.229661	44937.452844
555.587365	44827.777501
555.945014	44969.726311
556.302606	44941.856292
556.660143	45196.668974
557.017625	45314.833621
557.375050	45167.578996
557.732421	45540.785698
558.089735	45575.478918
558.446994	45513.054310
558.804197	46005.948087
559.161345	45989.960067
559.518437	45305.792311
559.875474	45649.036915
560.232455	45835.733527
560.589381	46034.536470
560.946251	45767.123423
561.303065	46462.825339
561.659825	46305.690053
562.016528	46026.165634
562.373177	45778.816379
562.729770	46277.262987
563.086307	45834.385018
563.442789	46294.039947
563.799216	46354.536313
564.155587	46188.188319
564.511904	46245.675117
564.868164	46353.157558
565.224370	46612.161960
565.580520	46381.516569
565.936615	46604.421268
566.292654	46333.013107
566.648638	46591.548682
567.004567	46583.434945
567.360441	46615.786550
567.716260	46497.044691
568.072023	46820.328846
568.427732	46827.893098
568.783385	46406.979437
569.138982	46803.183882
569.494525	46786.212838
569.850013	46558.158599
570.205445	46534.876030
570.560823	46496.467479
570.916145	46392.982673
571.271412	46440.281299
571.626625	46222.412712
571.981782	46277.172246
572.336884	45988.752711
572.691931	46303.388766
573.046923	45921.470951
573.401860	45772.651048
573.756743	45762.422547
574.111570	45908.961328
574.466342	45757.300735
574.821059	45891.992804
575.175722	45426.432164
575.530330	45448.807325
575.884882	45193.934148
576.239380	45166.792576
576.593823	45145.665100
576.948211	45064.739458
577.302544	44599.970279
577.656823	44647.689841
578.011047	44882.463937
578.365216	44613.657012
578.719330	44407.844344
579.073389	44267.302016
579.427394	44352.114388
579.781344	44342.599210
580.135239	44006.291234
580.489080	44088.293163
580.842866	43591.605919
581.196597	44050.335796
581.550273	43999.488197
581.903895	43868.163619
582.257463	44281.959171
582.610975	43682.568499
582.964434	43980.331813
583.317837	43642.453517
583.671186	43479.220956
584.024481	43707.081110
584.377721	43243.468876
584.730906	43543.445256
585.084037	43557.081577
585.437113	43293.827482
585.790135	43315.280112
586.143103	42928.812655
586.496016	43065.581680
586.848874	43076.276488
587.201679	43113.734781
587.554428	42593.422169
587.907124	42790.745534
588.259765	42558.103846
588.612352	42818.187055
588.964884	42220.091960
589.317362	42506.338757
589.669786	42444.267030
590.022155	42222.983061
590.374470	42643.803461
590.726731	42179.442616
591.078937	41721.713408
591.431090	41818.667399
591.783188	41460.919396
592.135232	41164.169354
592.487222	41405.532239
592.839157	41486.760351
593.191038	41187.938395
593.542866	40948.402929
593.894639	40370.759795
594.246358	40639.143264
594.598022	40596.343867
594.949633	40227.422147
595.301190	40185.951095
595.652692	40043.992202
596.004141	40361.121108
596.355535	39397.801979
596.706876	39338.971713
597.058162	39177.193525
597.409395	39637.491200
597.760573	39723.442873
598.111698	39309.286879
598.462768	39309.518772
598.813785	39344.408598
599.164748	38829.890792
599.515657	39216.932941
599.866511	38689.749236
600.217312	39298.055188
600.568060	38285.693193
600.918753	39027.725834
601.269392	38987.797375
601.619978	38656.404524
601.970510	38859.260555
602.320988	39041.150427
602.671412	39338.011374
603.021783	39067.966844
603.372100	38745.237216
603.722363	38861.087973
604.072572	38935.936505
604.422728	38946.497722
604.772830	38753.872713
605.122878	38846.070376
605.472872	38788.470152
605.822813	39080.950336
606.172701	38917.808515
606.522534	39122.605390
606.872314	39397.527236
607.222041	39150.472889
607.571714	39545.331346
607.921333	38999.003860
608.270899	39297.581320
608.620411	39631.083894
608.969870	39428.245507
609.319276	39423.703427
609.668627	39480.129062
610.017926	39943.837078
610.367171	40111.364703
610.716362	40208.805166
611.065500	40147.509776
611.414585	40337.583961
611.763616	40645.737093
612.112594	40563.490668
612.461518	40785.586262
612.810389	41060.382079
613.159207	40945.247166
613.507971	41013.428772
613.856682	41482.185504
614.205340	41363.783923
614.553945	42043.311297
614.902496	41514.274968
615.250994	41967.983856
615.599439	42056.153637
615.947830	42254.974224
616.296169	42309.499344
616.644454	42433.244547
616.992686	42614.741209
617.340864	43129.493428
617.688990	42845.414327
618.037063	43434.155561
618.385082	43420.373046
618.733048	43710.937592
619.080961	43727.520468
619.428821	43732.574225
619.776628	43833.664483
620.124382	43656.785518
620.472083	43791.041527
620.819731	43899.486828
621.167326	43580.349023
621.514868	43569.447527
621.862357	43128.553253
622.209793	43143.732167
622.557176	42827.871111
622.904506	42570.222779
623.251783	42224.762589
623.599007	42011.582275
623.946179	41793.688482
624.293297	41742.238466
624.640363	41156.721050
624.987376	41134.711372
625.334336	40914.034862
625.681243	40556.647302
626.028097	40523.567250
626.374899	40374.901102
626.721647	40368.385411
627.068343	40249.104149
627.414987	40005.618939
627.761577	39783.639291
628.108115	40124.388524
628.454600	39571.615922
628.801032	39773.652766
629.147412	39733.638607
629.493739	39739.526675
629.840014	39390.847707
630.186236	39737.457281
630.532405	39351.118374
630.878521	39571.653731
631.224585	39442.249832
631.570597	39155.050257
631.916556	39314.249895
632.262462	39275.828741
632.608316	39290.382552
632.954117	39171.436527
633.299866	39164.255403
633.645562	39081.494781
633.991206	38584.716796
634.336797	38159.956734
634.682336	38159.490427
635.027823	37908.340143
635.373257	37733.548216
635.718639	37494.577359
636.063968	37359.517285
636.409245	36778.494058
636.754470	36844.749943
637.099642	36605.073324
637.444762	36144.886554
637.789829	36275.969157
638.134845	35937.329647
638.479808	35891.709726
