Dividing Wavelength (nm)	Counts (n)	Blue Motor Position (mm): 29.800000	Red Motor Position (mm): 0.000000	
326.493990	1971.312965
326.888308	1971.312965
327.282561	1971.312965
327.676750	1946.283636
328.070874	1947.150714
328.464933	1954.314194
328.858929	1962.632098
329.252859	1975.978552
329.646726	1988.195789
330.040528	2004.728253
330.434265	2023.957734
330.827938	2043.656043
331.221547	2062.210010
331.615091	2082.886302
332.008571	2103.923037
332.401986	2125.163939
332.795338	2144.912659
333.188625	2164.729435
333.581847	2186.897909
333.975006	2203.085054
334.368100	2220.855121
334.761129	2238.010168
335.154095	2254.567838
335.546996	2292.575617
335.939833	2364.810310
336.332606	2382.141797
336.725315	2392.879455
337.117960	2405.875550
337.510540	2408.501991
337.903056	2421.384659
338.295508	2426.050247
338.687896	2432.213058
339.080220	2441.685386
339.472480	2447.623865
339.864676	2449.771397
340.256807	2454.016048
340.648875	2454.270627
341.040879	2455.974537
341.432818	2458.227932
341.824694	2458.147274
342.216506	2457.007973
342.608253	2456.803806
342.999937	2454.041254
343.391557	2453.922787
343.783113	2452.513784
344.174605	2452.410441
344.566033	2451.860955
344.957397	2450.174689
345.348697	2447.011365
345.739934	2445.861982
346.131106	2444.117743
346.522215	2442.930551
346.913260	2441.133380
347.304241	2441.554316
347.695159	2437.347473
348.086012	2436.634150
348.476802	2435.472164
348.867528	2432.145002
349.258191	2431.981165
349.648789	2430.095773
350.039324	2430.897317
350.429796	2428.938828
350.820203	2428.570824
351.210548	2426.798859
351.600828	2424.742068
351.991045	2426.342634
352.381198	2424.840370
352.771288	2426.214085
353.161314	2424.230391
353.551276	2425.092428
353.941175	2423.524629
354.331010	2424.890782
354.720782	2428.875814
355.110490	2429.717687
355.500135	2427.053437
355.889717	2427.620567
356.279235	2426.889599
356.668689	2425.341965
357.058080	2428.033941
357.447408	2426.922367
357.836672	2425.586461
358.225873	2426.234249
358.615010	2423.466656
359.004084	2431.865218
359.393095	2431.265321
359.782043	2427.396235
360.170927	2431.411514
360.559748	2429.170722
360.948505	2437.944850
361.337199	2432.765064
361.725830	2432.341607
362.114398	2434.852102
362.502903	2437.738163
362.891344	2436.359407
363.279722	2434.990734
363.668037	2438.181784
364.056289	2434.983172
364.444478	2439.903338
364.832603	2440.725046
365.220665	2439.184974
365.608665	2440.074737
365.996601	2443.122115
366.384474	2441.856785
366.772284	2442.151693
367.160031	2439.421908
367.547715	2443.908535
367.935336	2440.649429
368.322893	2442.910386
368.710388	2444.374842
369.097820	2444.372321
369.485189	2443.157403
369.872495	2444.639502
370.259738	2442.343257
370.646918	2446.696293
371.034035	2445.582198
371.421090	2444.515994
371.808081	2445.778803
372.195010	2446.557661
372.581875	2445.327620
372.968678	2446.182095
373.355418	2449.867179
373.742096	2447.765018
374.128710	2448.664863
374.515262	2448.566561
374.901751	2451.901284
375.288177	2451.467745
375.674540	2449.663012
376.060841	2452.596963
376.447079	2449.708382
376.833254	2452.254165
377.219367	2447.286108
377.605417	2447.921293
377.991404	2449.300049
378.377329	2450.996397
378.763191	2447.563371
379.148991	2455.127623
379.534727	2454.467232
379.920402	2453.201902
380.306013	2453.615277
380.691563	2458.532922
381.077049	2457.320525
381.462474	2455.455298
381.847835	2458.900926
382.233134	2458.210288
382.618371	2456.657613
383.003545	2456.755915
383.388657	2459.783128
383.773706	2457.743982
384.158693	2459.460494
384.543618	2461.182048
384.928480	2460.819085
385.313280	2461.237501
385.698017	2461.068622
386.082692	2462.681792
386.467305	2463.127934
386.851856	2463.551391
387.236344	2465.088943
387.620770	2462.971658
388.005133	2463.982409
388.389435	2465.913171
388.773674	2463.289251
389.157851	2467.591876
389.541965	2467.982565
389.926018	2467.584314
390.310008	2467.060034
390.693936	2468.030456
391.077802	2468.564818
391.461606	2471.271918
391.845348	2467.271762
392.229027	2471.029943
392.612645	2471.337453
392.996200	2473.832824
393.379694	2472.373410
393.763125	2472.169243
394.146494	2472.839717
394.529801	2473.258133
394.913047	2473.416929
395.296230	2475.834162
395.679351	2476.272742
396.062410	2474.833493
396.445408	2475.698051
396.828343	2476.459265
397.211217	2473.759727
397.594028	2474.112608
397.976778	2470.898873
398.359466	2480.126705
398.742092	2474.977166
399.124656	2479.725933
399.507158	2479.539410
399.889598	2478.692496
400.271977	2480.527476
400.654294	2480.081334
401.036549	2479.456231
401.418742	2482.523773
401.800874	2487.075935
402.182944	2480.439256
402.564952	2484.300780
402.946898	2485.240955
403.328783	2485.034268
403.710606	2485.868579
404.092367	2488.414362
404.474067	2486.866727
404.855705	2488.656337
405.237282	2489.069712
405.618797	2490.708087
406.000250	2492.086842
406.381642	2491.499548
406.762972	2492.437202
407.144240	2493.009373
407.525447	2492.875783
407.906593	2491.250011
408.287677	2492.865700
408.668700	2494.766215
409.049661	2495.151864
409.430560	2499.557832
409.811399	2495.688747
410.192176	2499.139416
410.572891	2498.068171
410.953545	2501.912051
411.334138	2497.009529
411.714669	2500.808038
412.095139	2497.659838
412.475547	2499.698984
412.855894	2503.177381
413.236180	2501.158398
413.616405	2504.530930
413.996568	2503.986486
414.376670	2504.709891
414.756711	2503.452123
415.136691	2507.192660
415.516609	2507.172495
415.896466	2508.281549
416.276262	2510.083761
416.655997	2507.669049
417.035670	2508.276508
417.415283	2513.620131
417.794834	2511.616272
418.174324	2514.809843
418.553753	2513.887312
418.933121	2517.025430
419.312428	2517.590039
419.691674	2517.222035
420.070859	2523.241173
420.449983	2522.958868
420.829045	2523.725124
421.208047	2524.372912
421.586988	2527.563962
421.965867	2530.444982
422.344686	2530.273582
422.723444	2539.337577
423.102141	2532.705939
423.480777	2538.326826
423.859352	2540.396219
424.237866	2544.870243
424.616319	2548.799823
424.994712	2550.811243
425.373044	2554.932387
425.751314	2560.006308
426.129524	2561.228788
426.507673	2568.966959
426.885762	2570.454099
427.263789	2580.309555
427.641756	2588.655185
428.019662	2595.884200
428.397508	2604.819645
428.775292	2616.696603
429.153016	2628.931484
429.530679	2641.189049
429.908282	2656.630104
430.285824	2663.755775
430.663305	2689.740402
431.040726	2703.442258
431.418086	2720.551934
431.795385	2751.534866
432.172624	2783.432767
432.549802	2799.629994
432.926920	2833.841785
433.303977	2863.773636
433.680974	2899.510375
434.057910	2944.810184
434.434786	2989.744509
434.811601	3028.846218
435.188355	3108.020060
435.565050	3151.482368
435.941683	3200.358875
436.318257	3296.937301
436.694770	3346.917820
437.071222	3446.689817
437.447614	3467.494659
437.823946	3539.416801
438.200218	3629.638331
438.576429	3696.577292
438.952580	3800.636790
439.328670	3887.712640
439.704700	4008.667565
440.080670	4070.141916
440.456580	4220.743866
440.832429	4342.023946
441.208218	4352.643136
441.583947	4500.777442
441.959616	4623.579950
442.335224	4765.793420
442.710773	4905.075460
443.086261	5098.960757
443.461689	5143.380884
443.837057	5284.276093
444.212365	5513.300754
444.587612	5659.128732
444.962800	5735.371142
445.337927	5945.688081
445.712995	5872.374580
446.088002	6352.289906
446.462949	6557.336318
446.837837	6754.422748
447.212664	6925.973214
447.587431	7740.507729
447.962139	8628.743913
448.336786	9405.174867
448.711374	9254.109130
449.085901	8547.861120
449.460369	8721.322183
449.834776	8920.329292
450.209124	9838.454478
450.583412	9953.362539
450.957640	10330.713069
451.331808	10150.010388
451.705917	9932.141802
452.079965	10159.598663
452.453954	10500.201702
452.827883	10692.219252
453.201752	10841.583599
453.575562	11123.253029
453.949311	11773.050198
454.323001	12050.694267
454.696632	12200.983666
455.070202	13091.102721
455.443713	13407.155341
455.817164	13918.945883
456.190556	14405.439914
456.563888	14424.089663
456.937160	14873.042221
457.310373	14361.977606
457.683526	14810.300020
458.056619	15048.524787
458.429653	15284.291990
458.802628	15817.388968
459.175542	16138.074408
459.548398	17099.309021
459.921194	18239.360922
460.293930	18905.902284
460.666607	20347.359732
461.039224	21660.025782
461.411782	22204.914019
461.784280	21773.837392
462.156719	21762.809868
462.529099	21698.225125
462.901419	21178.948471
463.273680	20771.708939
463.645882	21087.214594
464.018024	21342.191114
464.390106	22161.600425
464.762130	24245.799948
465.134094	27315.313154
465.505999	31372.453934
465.877845	35082.385243
466.249631	36332.533424
466.621358	35354.116038
466.993026	34056.097061
467.364634	32807.143634
467.736184	31626.510444
468.107674	30959.873301
468.479105	30630.975821
468.850477	30369.639885
469.221790	29508.877989
469.593043	28401.633917
469.964238	27919.051821
470.335373	28058.593480
470.706449	29633.008841
471.077467	31902.012022
471.448425	35943.557993
471.819324	38608.778223
472.190164	37296.538150
472.560945	34499.277498
472.931667	32084.176637
473.302330	31333.301813
473.672934	30818.463894
474.043479	31427.571390
474.413965	30921.310994
474.784393	30761.360224
475.154761	31689.061081
475.525070	31872.770810
475.895321	31608.785747
476.265513	32278.364404
476.635645	33283.026036
477.005719	33258.236162
477.375734	33806.194462
477.745691	34570.657716
478.115588	35873.755656
478.485427	37801.192938
478.855207	41001.335044
479.224928	43592.515847
479.594591	45284.654753
479.964194	44438.547492
480.333739	44674.975086
480.703226	44804.252956
481.072653	45538.186983
481.442022	46139.901627
481.811333	46494.148548
482.180584	45350.275453
482.549777	44968.808821
482.918912	44542.271753
483.287988	44357.470614
483.657005	43643.771779
484.025964	43094.291051
484.394864	43189.568859
484.763706	42820.763084
485.132489	42049.055692
485.501213	41964.775161
485.869879	42169.120853
486.238487	41840.540966
486.607036	42078.985022
486.975527	41626.450724
487.343959	41862.379244
487.712333	41999.264215
488.080648	41955.605302
488.448905	42419.598144
488.817104	42281.936835
489.185244	43217.174217
489.553326	44878.254574
489.921350	47580.663396
490.289315	50565.901113
490.657222	51238.290213
491.025070	51562.219636
491.392861	50673.305416
491.760593	49395.524151
492.128267	47719.567349
492.495883	46209.537605
492.863440	44864.726638
493.230939	43557.507554
493.598380	42531.252140
493.965763	42228.896335
494.333088	41463.916362
494.700354	41022.855730
495.067563	40767.428026
495.434713	40658.292087
495.801805	40736.949210
496.168839	40371.518488
496.535815	40072.711656
496.902733	40101.098393
497.269593	39714.804856
497.636395	39659.528604
498.003139	40066.198485
498.369825	39537.406652
498.736453	39858.815498
499.103023	39408.078371
499.469535	39281.918455
499.835989	39380.024350
500.202385	39067.709746
500.568723	39085.409237
500.935003	39287.370463
501.301226	39105.301630
501.667390	39718.134538
502.033497	39952.704468
502.399546	39402.545705
502.765537	38751.417671
503.131470	39128.465732
503.497345	39466.303698
503.863163	38177.063890
504.228923	38784.190212
504.594625	39179.802322
504.960269	38489.204574
505.325856	39152.895163
505.691385	38539.918582
506.056856	38661.596912
506.422270	39113.632137
506.787625	38693.330976
507.152924	38877.496929
507.518164	38980.684307
507.883347	38229.864935
508.248472	38470.859815
508.613540	38922.814381
508.978550	39219.065349
509.343503	38978.161209
509.708398	39165.656844
510.073236	39693.906753
510.438016	39683.481647
510.802738	39159.234414
511.167403	39761.521229
511.532010	39996.915387
511.896561	40289.224172
512.261053	41104.398914
512.625488	40667.272902
512.989866	40536.742306
513.354186	40392.436756
513.718449	40371.904137
514.082655	41045.251056
514.446803	40732.954096
514.810894	41239.511919
515.174927	41156.854640
515.538904	41074.174676
515.902822	41715.318704
516.266684	41177.835923
516.630488	41602.139759
516.994235	41457.062913
517.357925	41991.102587
517.721558	42158.957887
518.085133	42461.341418
518.448651	42594.944598
518.812112	42373.186761
519.175516	42466.531286
519.538863	42799.285248
519.902152	42767.772996
520.265385	43211.283629
520.628560	43258.373047
520.991678	43041.883216
521.354739	43260.772636
521.717743	43572.268053
522.080690	43478.815143
522.443580	44018.894119
522.806413	44071.803549
523.169189	44004.768806
523.531908	44187.871075
523.894569	44064.798866
524.257174	44224.303494
524.619722	44517.416343
524.982213	44503.676679
525.344647	44435.348879
525.707025	44477.210621
526.069345	44867.342997
526.431608	44800.111648
526.793815	45101.045848
527.155964	44641.587524
527.518057	44808.495087
527.880093	44591.415441
528.242072	45135.902906
528.603995	44827.578375
528.965860	44829.799003
529.327669	44930.186020
529.689421	44827.066698
530.051117	44793.081759
530.412755	44946.017764
530.774337	45002.337535
531.135862	44815.232589
531.497331	45015.479823
531.858743	44919.531542
532.220098	45240.915182
532.581396	44989.510319
532.942638	44640.541485
533.303824	44925.575885
533.664953	44892.969702
534.026025	44622.995749
534.387040	45088.599239
534.747999	45039.924378
535.108902	45206.106014
535.469748	44732.537502
535.830537	44859.579620
536.191270	45053.285956
536.551947	44698.219847
536.912567	44996.504920
537.273131	45115.496315
537.633638	44636.894210
537.994089	44960.017048
538.354483	44586.275984
538.714821	45136.797711
539.075103	45475.159957
539.435328	45255.516884
539.795497	45143.946067
540.155609	45132.001053
540.515665	45584.368993
540.875665	45051.075410
541.235609	45350.784609
541.595496	45346.300503
541.955328	46007.740217
542.315102	45382.616975
542.674821	45178.291448
543.034483	45231.011835
543.394090	45183.377972
543.753640	45149.458569
544.113134	46129.857128
544.472571	45167.626887
544.831953	46388.095274
545.191278	45604.674761
545.550548	45343.757241
545.909761	45785.846268
546.268918	45986.600138
546.628019	46272.491534
546.987064	45869.088321
547.346053	45157.746226
547.704986	46002.610843
548.063863	45594.799141
548.422684	45777.369568
548.781449	45641.016439
549.140158	46028.444236
549.498811	45867.830553
549.857408	45329.006825
550.215949	46138.275854
550.574434	46067.800524
550.932864	45854.418564
551.291237	46553.268680
551.649555	46154.357135
552.007817	46400.844352
552.366022	46058.711323
552.724173	46235.189517
553.082267	46609.217926
553.440305	46901.163748
553.798288	46253.924965
554.156215	46550.485963
554.514086	46765.420599
554.871902	46500.341606
555.229661	46525.870009
555.587365	46351.395674
555.945014	46468.942779
556.302606	46390.900677
556.660143	46600.710979
557.017625	46673.785025
557.375050	46488.872981
557.732421	46823.595514
558.089735	46815.002867
558.446994	46732.809374
558.804197	47175.473094
559.161345	47120.033004
559.518437	46400.735968
559.875474	46700.805609
560.232455	46880.951242
560.589381	47035.394552
560.946251	46738.702483
561.303065	47405.987415
561.659825	47220.520844
562.016528	46905.237001
562.373177	46628.555792
562.729770	47106.426930
563.086307	46634.857235
563.442789	47080.187724
563.799216	47131.811660
564.155587	46924.554702
564.511904	46964.125239
564.868164	47067.357988
565.224370	47299.364491
565.580520	47035.452525
565.936615	47251.491173
566.292654	46987.702716
566.648638	47207.527270
567.004567	47165.665529
567.360441	47203.189357
567.716260	47080.401973
568.072023	47378.563538
568.427732	47354.484467
568.783385	46915.067251
569.138982	47307.493351
569.494525	47288.135320
569.850013	47045.988537
570.205445	47014.088115
570.560823	46975.253586
570.916145	46851.195831
571.271412	46882.907210
571.626625	46647.472722
571.981782	46704.412555
572.336884	46396.748415
572.691931	46723.473158
573.046923	46322.396437
573.401860	46166.226532
573.756743	46165.651840
574.111570	46276.847091
574.466342	46123.795140
574.821059	46256.165758
575.175722	45787.693851
575.530330	45804.274206
575.884882	45525.016968
576.239380	45488.766031
576.593823	45475.885883
576.948211	45376.010543
577.302544	44941.395026
577.656823	44964.448223
578.011047	45172.574780
578.365216	44907.210962
578.719330	44711.614193
579.073389	44575.707205
579.427394	44647.417619
579.781344	44631.043951
580.135239	44277.618737
580.489080	44359.804668
580.842866	43860.667423
581.196597	44325.494575
581.550273	44267.352428
581.903895	44120.488493
582.257463	44543.327874
582.610975	43943.657418
582.964434	44226.380450
583.317837	43865.829565
583.671186	43701.162795
584.024481	43940.831852
584.377721	43467.749810
584.730906	43753.600877
585.084037	43774.625009
585.437113	43506.516283
585.790135	43534.224985
586.143103	43148.037313
586.496016	43262.678192
586.848874	43285.872541
587.201679	43301.527844
587.554428	42781.169862
587.907124	42974.107423
588.259765	42750.839760
588.612352	43000.717153
588.964884	42397.248188
589.317362	42671.847400
589.669786	42627.780153
590.022155	42383.269068
590.374470	42801.934375
590.726731	42343.844725
591.078937	41867.490974
591.431090	41952.295785
591.783188	41613.925977
592.135232	41285.895576
592.487222	41527.321475
592.839157	41617.774898
593.191038	41309.664616
593.542866	41070.451784
593.894639	40474.040434
594.246358	40750.593093
594.598022	40730.355381
594.949633	40331.935348
595.301190	40299.666923
595.652692	40142.571966
596.004141	40454.299276
596.355535	39484.484619
596.706876	39448.006830
597.058162	39264.486145
597.409395	39728.100899
597.760573	39792.927617
598.111698	39371.487156
598.462768	39397.360878
598.813785	39435.804717
599.164748	38899.078108
599.515657	39281.714288
599.866511	38763.062736
600.217312	39362.055157
600.568060	38346.093778
600.918753	39090.110113
601.269392	39056.878827
601.619978	38721.856345
601.970510	38916.490254
602.320988	39085.991490
602.671412	39380.752797
603.021783	39144.438628
603.372100	38784.369173
603.722363	38884.788958
604.072572	38963.771236
604.422728	38980.102053
604.772830	38794.078435
605.122878	38885.461952
605.472872	38829.179990
605.822813	39107.630643
606.172701	38941.537227
606.522534	39153.479937
606.872314	39431.156773
607.222041	39181.423053
607.571714	39578.658414
607.921333	39021.391624
608.270899	39322.434208
608.620411	39652.120629
608.969870	39454.131832
609.319276	39448.712592
609.668627	39502.867187
610.017926	39976.460905
610.367171	40133.283640
610.716362	40226.842414
611.065500	40183.869098
611.414585	40365.169155
611.763616	40657.488023
612.112594	40596.250606
612.461518	40802.418675
612.810389	41082.394277
613.159207	40961.945988
613.507971	41035.710672
613.856682	41502.627382
614.205340	41389.619837
614.553945	42094.022784
614.902496	41550.180587
615.250994	41994.815397
615.599439	42068.438928
615.947830	42280.994139
616.296169	42330.873836
616.644454	42463.834269
616.992686	42647.528874
617.340864	43164.108511
617.688990	42886.093918
618.037063	43473.300121
618.385082	43436.905510
618.733048	43736.385337
619.080961	43765.571097
619.428821	43774.521666
619.776628	43870.535482
620.124382	43695.259604
620.472083	43831.852188
620.819731	43960.116786
621.167326	43626.319304
621.514868	43602.721663
621.862357	43168.310313
622.209793	43200.412381
622.557176	42866.297307
622.904506	42603.678397
623.251783	42268.517283
623.599007	42048.982595
623.946179	41825.641836
624.293297	41785.622636
624.640363	41215.836140
624.987376	41195.933665
625.334336	40965.663839
625.681243	40599.552562
626.028097	40570.626421
626.374899	40414.204458
626.721647	40395.592518
627.068343	40294.386314
627.414987	40055.193646
627.761577	39835.447229
628.108115	40168.057519
628.454600	39627.446701
628.801032	39811.562243
629.147412	39777.486563
629.493739	39792.451228
629.840014	39445.234195
630.186236	39768.339389
630.532405	39393.806864
630.878521	39614.029670
631.224585	39499.424079
631.570597	39205.209737
631.916556	39372.634018
632.262462	39333.013070
632.608316	39331.170528
632.954117	39231.317873
633.299866	39233.846012
633.645562	39144.491560
633.991206	38641.086978
634.336797	38218.136691
634.682336	38220.410251
635.027823	37963.089594
635.373257	37791.249263
635.718639	37561.483553
636.063968	37406.566374
636.409245	36847.078956
636.754470	36888.192086
