Dividing Wavelength (nm)	Counts (n)	Blue Motor Position (mm): 43.400000	Red Motor Position (mm): 0.000000	
326.493990	1971.759107
326.888308	1971.759107
327.282561	1971.759107
327.676750	1948.269850
328.070874	1951.407969
328.464933	1956.766715
328.858929	1965.366924
329.252859	1979.270426
329.646726	1993.920019
330.040528	2009.088851
330.434265	2027.554597
330.827938	2045.291897
331.221547	2065.156564
331.615091	2086.543659
332.008571	2106.118460
332.401986	2127.697119
332.795338	2147.770993
333.188625	2169.760506
333.581847	2186.482014
333.975006	2205.671166
334.368100	2222.594319
334.761129	2240.001423
335.154095	2252.422827
335.546996	2296.273303
335.939833	2378.522249
336.332606	2396.597306
336.725315	2406.578791
337.117960	2417.003897
337.510540	2423.426327
337.903056	2436.450148
338.295508	2440.397371
338.687896	2447.318875
339.080220	2456.095524
339.472480	2459.904116
339.864676	2462.941411
340.256807	2464.940229
340.648875	2469.076495
341.040879	2468.960549
341.432818	2472.219655
341.824694	2472.764099
342.216506	2470.997175
342.608253	2472.350725
342.999937	2471.271918
343.391557	2469.512555
343.783113	2467.947277
344.174605	2465.943418
344.566033	2464.967955
344.957397	2462.671709
345.348697	2465.119190
345.739934	2462.192800
346.131106	2458.348920
346.522215	2457.438992
346.913260	2453.501851
347.304241	2455.452777
347.695159	2452.944803
348.086012	2453.839608
348.476802	2449.980605
348.867528	2448.329627
349.258191	2448.299380
349.648789	2445.166303
350.039324	2446.708896
350.429796	2447.608742
350.820203	2439.656322
351.210548	2443.931220
351.600828	2442.978442
351.991045	2440.097423
352.381198	2440.954419
352.771288	2442.106322
353.161314	2444.452979
353.551276	2441.110694
353.941175	2441.040118
354.331010	2442.043308
354.720782	2441.156065
355.110490	2441.826538
355.500135	2443.290993
355.889717	2442.275201
356.279235	2443.449790
356.668689	2440.881322
357.058080	2441.050201
357.447408	2441.266970
357.836672	2439.308482
358.225873	2443.432146
358.615010	2441.861826
359.004084	2444.319389
359.393095	2448.337188
359.782043	2450.978753
360.170927	2448.127981
360.559748	2449.479010
360.948505	2450.749381
361.337199	2453.080914
361.725830	2453.489248
362.114398	2453.711058
362.502903	2456.955041
362.891344	2456.977726
363.279722	2454.220215
363.668037	2455.641820
364.056289	2452.538990
364.444478	2457.446553
364.832603	2457.335648
365.220665	2458.999229
365.608665	2460.093159
365.996601	2461.615588
366.384474	2462.326390
366.772284	2463.740434
367.160031	2461.837398
367.547715	2462.780094
367.935336	2463.349745
368.322893	2464.420990
368.710388	2463.327059
369.097820	2467.783439
369.485189	2467.450723
369.872495	2468.050621
370.259738	2466.573562
370.646918	2472.890128
371.034035	2468.554736
371.421090	2472.242340
371.808081	2470.800570
372.195010	2473.313585
372.581875	2471.372741
372.968678	2472.237299
373.355418	2474.470530
373.742096	2475.224182
374.128710	2474.964563
374.515262	2477.500263
374.901751	2479.637713
375.288177	2480.996304
375.674540	2478.211066
376.060841	2480.782055
376.447079	2484.177272
376.833254	2483.098465
377.219367	2479.297435
377.605417	2487.605256
377.991404	2483.574854
378.377329	2486.675163
378.763191	2483.418578
379.148991	2491.181955
379.534727	2492.321256
379.920402	2492.989209
380.306013	2494.158756
380.691563	2497.765702
381.077049	2499.204951
381.462474	2499.187307
381.847835	2502.728718
382.233134	2505.972700
382.618371	2508.362207
383.003545	2513.605007
383.388657	2518.588188
383.773706	2524.592202
384.158693	2528.269724
384.543618	2538.231044
384.928480	2546.932075
385.313280	2563.121741
385.698017	2575.659091
386.082692	2593.345979
386.467305	2608.870212
386.851856	2633.808800
387.236344	2664.655621
387.620770	2686.657737
388.005133	2718.674105
388.389435	2755.124167
388.773674	2789.772018
389.157851	2837.655418
389.541965	2886.085783
389.926018	2924.264961
390.310008	2986.901298
390.693936	3046.780123
391.077802	3109.968466
391.461606	3179.765762
391.845348	3251.370311
392.229027	3327.395952
392.612645	3433.620625
392.996200	3519.584901
393.379694	3621.017958
393.763125	3745.297524
394.146494	3839.375537
394.529801	3946.512659
394.913047	4099.582254
395.296230	4173.334335
395.679351	4268.362606
396.062410	4443.900624
396.445408	4483.846727
396.828343	4624.905773
397.211217	4766.509264
397.594028	4806.321777
397.976778	4976.443075
398.359466	5142.133199
398.742092	5218.695723
399.124656	5385.885590
399.507158	5572.322583
399.889598	5678.935425
400.271977	5888.395367
400.654294	6004.122616
401.036549	6213.854780
401.418742	6331.306103
401.800874	6605.519667
402.182944	6763.632936
402.564952	7090.019922
402.946898	7087.935404
403.328783	7214.317131
403.710606	7451.382432
404.092367	7735.244764
404.474067	8094.568128
404.855705	8046.707413
405.237282	8109.621013
405.618797	8522.776338
406.000250	8812.478847
406.381642	9185.705713
406.762972	9250.595446
407.144240	9179.086678
407.525447	9482.072627
407.906593	9517.892546
408.287677	9826.446449
408.668700	10032.448160
409.049661	10097.234549
409.430560	10306.782711
409.811399	10351.883394
410.192176	10567.788452
410.572891	10703.937414
410.953545	11206.434588
411.334138	10800.951899
411.714669	11398.532797
412.095139	10850.561894
412.475547	11349.497493
412.855894	11269.322983
413.236180	11614.238729
413.616405	11371.572706
413.996568	11666.754949
414.376670	11686.664986
414.756711	11610.125147
415.136691	11906.134139
415.516609	12108.332300
415.896466	12204.499871
416.276262	12507.480779
416.655997	12964.592445
417.035670	13027.649718
417.415283	13683.559286
417.794834	13788.513588
418.174324	13564.719125
418.553753	13484.161487
418.933121	13981.879647
419.312428	13817.787569
419.691674	13738.127256
420.070859	14187.702397
420.449983	13864.904713
420.829045	14413.835956
421.208047	14177.489019
421.586988	14625.125837
421.965867	14881.224014
422.344686	14878.025402
422.723444	15443.136227
423.102141	14161.589220
423.480777	15338.668396
423.859352	14851.234190
424.237866	15938.401866
424.616319	15658.214536
424.994712	16297.127853
425.373044	16094.665033
425.751314	16763.633710
426.129524	15908.515386
426.507673	16972.526522
426.885762	16687.076227
427.263789	16877.064713
427.641756	17045.398922
428.019662	17098.038650
428.397508	17144.568500
428.775292	17439.178572
429.153016	17406.249755
429.530679	17485.428638
429.908282	17511.970313
430.285824	17237.754229
430.663305	17929.153520
431.040726	17539.003501
431.418086	17370.848252
431.795385	18007.674532
432.172624	18431.537268
432.549802	17981.107652
432.926920	18176.099482
433.303977	18063.447338
433.680974	18308.999421
434.057910	18598.464996
434.434786	18629.659656
434.811601	18539.745636
435.188355	19573.235106
435.565050	19223.832733
435.941683	19166.217386
436.318257	20038.402536
436.694770	19860.900989
437.071222	20443.532345
437.447614	19528.976296
437.823946	19546.804337
438.200218	19696.501400
438.576429	19474.390682
438.952580	19757.595144
439.328670	19703.095229
439.704700	20121.374888
440.080670	19705.174705
440.456580	20276.188722
440.832429	20453.042481
441.208218	19464.762078
441.583947	19896.244518
441.959616	20001.191259
442.335224	20234.987372
442.710773	20367.184070
443.086261	20894.818958
443.461689	20259.068964
443.837057	20397.201620
444.212365	21025.974657
444.587612	21030.247035
444.962800	20610.452510
445.337927	21030.783918
445.712995	19780.224883
446.088002	21605.596444
446.462949	21790.944547
446.837837	21952.107715
447.212664	21915.418198
447.587431	24699.395409
447.962139	27588.866327
448.336786	29954.896596
448.711374	28434.623228
449.085901	24799.457272
449.460369	24733.120728
449.834776	24633.515090
450.209124	27086.258247
450.583412	26634.903579
450.957640	27169.212954
451.331808	25842.630799
451.705917	24493.519727
452.079965	24524.026270
452.453954	24864.397416
452.827883	24756.075623
453.201752	24564.065634
453.575562	24723.466919
453.949311	25827.739231
454.323001	25877.240841
454.696632	25646.749205
455.070202	27179.685951
455.443713	27323.752046
455.817164	27912.135358
456.190556	28428.692311
456.563888	27884.842551
456.937160	28315.732656
457.310373	26671.401532
457.683526	27100.771729
458.056619	27073.781391
458.429653	27025.164504
458.802628	27583.144617
459.175542	27699.933028
459.548398	28992.068979
459.921194	30554.400694
460.293930	31223.180328
460.666607	33231.792790
461.039224	34980.080067
461.411782	35362.426381
461.784280	34165.512785
462.156719	33673.586910
462.529099	33100.987450
462.901419	31813.169248
463.273680	30771.324065
463.645882	30875.522194
464.018024	30837.436277
464.390106	31665.917144
464.762130	34353.956157
465.134094	38361.131540
465.505999	43652.515660
465.877845	48215.465653
466.249631	49372.760821
466.621358	47625.045714
466.993026	45495.450601
467.364634	43399.757248
467.736184	41456.072327
468.107674	40214.801618
468.479105	39448.889032
468.850477	38748.342567
469.221790	37339.085489
469.593043	35625.249457
469.964238	34745.832771
470.335373	34647.081609
470.706449	36323.229974
471.077467	38835.678037
471.448425	43398.254984
471.819324	46263.402334
472.190164	44462.782839
472.560945	40921.969638
472.931667	37829.617484
473.302330	36728.460606
473.672934	35910.835863
474.043479	36414.946207
474.413965	35630.663656
474.784393	35260.098519
475.154761	36129.722763
475.525070	36167.448238
475.895321	35720.504579
476.265513	36303.279608
476.635645	37281.636500
477.005719	37091.368230
477.375734	37549.659526
477.745691	38241.537727
478.115588	39551.118591
478.485427	41505.702486
478.855207	44839.931722
479.224928	47450.901575
479.594591	49091.257749
479.964194	48072.987522
480.333739	48202.910659
480.703226	48217.406497
481.072653	48867.649808
481.442022	49347.560092
481.811333	49621.408172
482.180584	48340.710599
482.549777	47813.836926
482.918912	47297.416085
483.287988	47009.137702
483.657005	46180.213213
484.025964	45534.728751
484.394864	45543.961625
484.763706	45110.440038
485.132489	44247.157565
485.501213	44084.809726
485.869879	44245.108336
486.238487	43827.922608
486.607036	44047.164910
486.975527	43505.321530
487.343959	43697.107187
487.712333	43793.546980
488.080648	43691.173749
488.448905	44139.954908
488.817104	43949.734529
489.185244	44905.605354
489.553326	46568.661843
489.921350	49293.828954
490.289315	52200.585988
490.657222	52825.114374
491.025070	53117.216472
491.392861	52200.470042
491.760593	50943.720470
492.128267	49241.842055
492.495883	47727.643277
492.863440	46336.526791
493.230939	44977.668648
493.598380	43896.467177
493.965763	43573.588835
494.333088	42765.965742
494.700354	42304.266626
495.067563	42032.588763
495.434713	41890.750858
495.801805	41967.693989
496.168839	41582.950607
496.535815	41262.310538
496.902733	41292.159209
497.269593	40895.470813
497.636395	40827.513539
498.003139	41226.916596
498.369825	40681.362927
498.736453	40984.845430
499.103023	40525.452642
499.469535	40402.140977
499.835989	40478.832051
500.202385	40158.499491
500.568723	40183.639726
500.935003	40379.196166
501.301226	40174.424496
501.667390	40782.803545
502.033497	41045.561087
502.399546	40467.275206
502.765537	39801.797528
503.131470	40170.963744
503.497345	40509.794818
503.863163	39194.593067
504.228923	39810.251542
504.594625	40210.657790
504.960269	39494.219087
505.325856	40180.771309
505.691385	39551.373169
506.056856	39692.533038
506.422270	40134.924535
506.787625	39694.148728
507.152924	39890.395806
507.518164	39991.173513
507.883347	39208.892300
508.248472	39460.672729
508.613540	39928.138925
508.978550	40216.104756
509.343503	39983.649591
509.708398	40172.347541
510.073236	40702.477800
510.438016	40691.508249
510.802738	40154.970684
511.167403	40758.669021
511.532010	41001.597184
511.896561	41289.542851
512.261053	42116.997843
512.625488	41682.110103
512.989866	41539.339585
513.354186	41390.968345
513.718449	41372.847918
514.082655	42054.893348
514.446803	41726.167268
514.810894	42232.720050
515.174927	42168.110102
515.538904	42083.383429
515.902822	42736.674118
516.266684	42180.952441
516.630488	42607.131587
516.994235	42465.888539
517.357925	43037.583111
517.721558	43190.211606
518.085133	43499.302392
518.448651	43637.911438
518.812112	43428.043162
519.175516	43509.631716
519.538863	43847.565464
519.902152	43830.891848
520.265385	44282.755673
520.628560	44327.483311
520.991678	44114.857524
521.354739	44369.319846
521.717743	44680.464903
522.080690	44579.760293
522.443580	45120.018230
522.806413	45177.502507
523.169189	45131.754036
523.531908	45311.382951
523.894569	45166.873235
524.257174	45328.888357
524.619722	45633.399256
524.982213	45629.167207
525.344647	45547.921451
525.707025	45595.230159
526.069345	45989.687845
526.431608	45908.863025
526.793815	46232.981491
527.155964	45761.805006
527.518057	45951.027236
527.880093	45726.683287
528.242072	46250.638132
528.603995	45949.018336
528.965860	45968.076418
529.327669	46053.145889
529.689421	45959.579553
530.051117	45907.159115
530.412755	46076.120948
530.774337	46126.103988
531.135862	45939.649352
531.497331	46147.047462
531.858743	46048.785291
532.220098	46398.664053
532.581396	46110.055475
532.942638	45760.332989
533.303824	46062.640903
533.664953	46030.667384
534.026025	45753.257729
534.387040	46215.397947
534.747999	46178.234560
535.108902	46331.674681
535.469748	45867.981788
535.830537	45977.909189
536.191270	46160.638413
536.551947	45811.735114
536.912567	46132.271840
537.273131	46237.720176
537.633638	45733.433392
537.994089	46079.584221
538.354483	45683.594024
538.714821	46251.643843
539.075103	46585.716067
539.435328	46352.600510
539.795497	46235.186996
540.155609	46222.926910
540.515665	46686.282045
540.875665	46140.917419
541.235609	46459.994731
541.595496	46444.523430
541.955328	47098.020806
542.315102	46474.372102
542.674821	46273.066226
543.034483	46310.055692
543.394090	46280.655683
543.753640	46230.153404
544.113134	47229.899911
544.472571	46249.332474
544.831953	47483.719487
545.191278	46708.833647
545.550548	46440.306505
545.909761	46887.582880
546.268918	47075.804441
546.628019	47402.569513
546.987064	46951.608054
547.346053	46222.304327
547.704986	47104.705376
548.063863	46664.118612
548.422684	46852.582149
548.781449	46718.686582
549.140158	47117.560318
549.498811	46975.084708
549.857408	46412.774243
550.215949	47231.392093
550.574434	47189.764765
550.932864	46945.394832
551.291237	47636.922673
551.649555	47263.673121
552.007817	47502.323865
552.366022	47149.435534
552.724173	47342.189093
553.082267	47732.727281
553.440305	48045.447698
553.798288	47361.655508
554.156215	47665.304369
554.514086	47860.868371
554.871902	47607.071480
555.229661	47627.387330
555.587365	47456.356104
555.945014	47541.329793
556.302606	47460.414232
556.660143	47702.621510
557.017625	47789.568811
557.375050	47580.247501
557.732421	47928.548382
558.089735	47906.405113
558.446994	47827.964759
558.804197	48297.260894
559.161345	48243.191999
559.518437	47481.680340
559.875474	47785.689643
560.232455	47963.052559
560.589381	48136.632089
560.946251	47821.325560
561.303065	48508.076907
561.659825	48313.931990
562.016528	47996.056993
562.373177	47710.813385
562.729770	48183.174542
563.086307	47707.007314
563.442789	48154.533226
563.799216	48221.570490
564.155587	47994.758896
564.511904	48030.480512
564.868164	48132.778127
565.224370	48373.163027
565.580520	48102.228734
565.936615	48301.303900
566.292654	48046.380312
566.648638	48271.908932
567.004567	48226.155419
567.360441	48268.198642
567.716260	48129.156058
568.072023	48404.561854
568.427732	48400.949867
568.783385	47952.776167
569.138982	48355.907158
569.494525	48315.313266
569.850013	48064.483095
570.205445	48049.495745
570.560823	48010.784724
570.916145	47877.975526
571.271412	47898.303979
571.626625	47655.053183
571.981782	47712.860094
572.336884	47387.476298
572.691931	47732.132425
573.046923	47327.390785
573.401860	47173.965789
573.756743	47165.126125
574.111570	47277.443033
574.466342	47132.419119
574.821059	47240.032630
575.175722	46771.021321
575.530330	46800.910322
575.884882	46512.543719
576.239380	46479.647669
576.593823	46461.053373
576.948211	46365.344547
577.302544	45884.302524
577.656823	45916.069355
578.011047	46137.108827
578.365216	45858.879985
578.719330	45664.651889
579.073389	45523.910435
579.427394	45609.529392
579.781344	45568.000367
580.135239	45237.950983
580.489080	45308.262477
580.842866	44789.384073
581.196597	45256.114261
581.550273	45203.474532
581.903895	45059.360547
582.257463	45482.719167
582.610975	44862.513571
582.964434	45153.703220
583.317837	44803.514427
583.671186	44634.512265
584.024481	44847.647208
584.377721	44377.224376
584.730906	44664.030741
585.084037	44697.259507
585.437113	44393.882868
585.790135	44448.612155
586.143103	44047.096854
586.496016	44180.768090
586.848874	44208.159199
587.201679	44208.660794
587.554428	43702.944843
587.907124	43898.831478
588.259765	43632.852640
588.612352	43888.678595
588.964884	43275.608752
589.317362	43570.886777
589.669786	43505.820604
590.022155	43280.095379
590.374470	43701.598855
590.726731	43216.508785
591.078937	42733.387285
591.431090	42833.605424
591.783188	42499.823066
592.135232	42171.434743
592.487222	42417.737958
592.839157	42502.754497
593.191038	42182.210209
593.542866	41950.339817
593.894639	41342.416993
594.246358	41611.423044
594.598022	41613.298353
594.949633	41218.081974
595.301190	41174.115551
595.652692	40999.545434
596.004141	41314.032776
596.355535	40344.553356
596.706876	40301.721193
597.058162	40132.464452
597.409395	40600.170103
597.760573	40666.998159
598.111698	40247.206155
598.462768	40277.201020
598.813785	40307.442902
599.164748	39765.057598
599.515657	40136.542746
599.866511	39625.803285
600.217312	40238.235422
600.568060	39203.483142
600.918753	39946.085433
601.269392	39892.780272
601.619978	39545.835462
601.970510	39765.465932
602.320988	39951.582811
602.671412	40244.357903
603.021783	39994.616621
603.372100	39652.428139
603.722363	39767.709245
604.072572	39836.135347
604.422728	39840.619453
604.772830	39661.678656
605.122878	39731.183565
605.472872	39686.982728
605.822813	39961.448349
606.172701	39792.673039
606.522534	40029.806395
606.872314	40296.052415
607.222041	40060.486858
607.571714	40432.014855
607.921333	39876.797294
608.270899	40170.315956
608.620411	40512.116269
608.969870	40315.181073
609.319276	40296.596860
609.668627	40359.069359
610.017926	40835.818840
610.367171	40992.490340
610.716362	41078.673906
611.065500	41041.523123
611.414585	41226.059600
611.763616	41498.412978
612.112594	41431.005189
612.461518	41663.619151
612.810389	41939.491254
613.159207	41802.908752
613.507971	41868.378217
613.856682	42352.172711
614.205340	42244.859148
614.553945	42932.313737
614.902496	42382.585992
615.250994	42862.365207
615.599439	42915.269596
615.947830	43134.499294
616.296169	43185.031820
616.644454	43305.346518
616.992686	43470.212414
617.340864	43999.082384
617.688990	43702.637333
618.037063	44297.034741
618.385082	44259.561324
618.733048	44579.901445
619.080961	44604.106546
619.428821	44587.117857
619.776628	44721.454525
620.124382	44534.972162
620.472083	44660.491851
620.819731	44803.423686
621.167326	44466.694774
621.514868	44442.643429
621.862357	43995.518289
622.209793	44020.988718
622.557176	43700.305799
622.904506	43445.677118
623.251783	43117.780307
623.599007	42900.793922
623.946179	42659.743589
624.293297	42611.555200
624.640363	42011.360464
624.987376	41997.681293
625.334336	41761.485591
625.681243	41414.064392
626.028097	41376.164997
626.374899	41218.533158
626.721647	41189.130628
627.068343	41083.727662
627.414987	40846.334687
627.761577	40613.647628
628.108115	40951.087343
628.454600	40402.408158
628.801032	40591.234658
629.147412	40549.680427
629.493739	40553.234440
629.840014	40202.337365
630.186236	40535.088807
630.532405	40155.101754
630.878521	40362.658660
631.224585	40234.250390
631.570597	39944.870515
631.916556	40111.339497
632.262462	40047.463037
632.608316	40057.862937
632.954117	39969.589813
633.299866	39968.395059
633.645562	39886.665352
633.991206	39364.611022
634.336797	38939.543450
634.682336	38951.443094
635.027823	38700.963283
