Dividing Wavelength (nm)	Counts (n)	Blue Motor Position (mm): 24.200000	Red Motor Position (mm): 0.000000	
326.493990	1970.466051
326.888308	1970.466051
327.282561	1970.466051
327.676750	1946.205498
328.070874	1948.257247
328.464933	1954.974585
328.858929	1963.433641
329.252859	1976.412092
329.646726	1990.892806
330.040528	2008.821670
330.434265	2025.326407
330.827938	2045.002031
331.221547	2066.424414
331.615091	2087.337641
332.008571	2108.402102
332.401986	2125.352982
332.795338	2146.654378
333.188625	2164.734476
333.581847	2186.902950
333.975006	2206.951619
334.368100	2223.423589
334.761129	2237.823645
335.154095	2252.823598
335.546996	2292.280709
335.939833	2358.254290
336.332606	2372.102339
336.725315	2386.109185
337.117960	2393.691081
337.510540	2399.924468
337.903056	2408.396127
338.295508	2413.165058
338.687896	2423.179310
339.080220	2429.367327
339.472480	2434.915116
339.864676	2438.716146
340.256807	2442.827207
340.648875	2445.688062
341.040879	2446.454318
341.432818	2447.326437
341.824694	2447.603701
342.216506	2449.257199
342.608253	2447.107147
342.999937	2446.013217
343.391557	2445.262085
343.783113	2441.453493
344.174605	2442.766713
344.566033	2440.687238
344.957397	2441.728236
345.348697	2440.072217
345.739934	2434.668100
346.131106	2435.436876
346.522215	2433.496032
346.913260	2430.985537
347.304241	2430.577203
347.695159	2425.657037
348.086012	2424.419434
348.476802	2425.687284
348.867528	2422.143353
349.258191	2420.499937
349.648789	2420.288208
350.039324	2419.494227
350.429796	2419.728640
350.820203	2416.482137
351.210548	2417.437436
351.600828	2418.692683
351.991045	2417.558424
352.381198	2418.914494
352.771288	2416.225038
353.161314	2412.295459
353.551276	2414.301838
353.941175	2418.541449
354.331010	2415.378125
354.720782	2421.054464
355.110490	2419.307704
355.500135	2417.034144
355.889717	2412.610531
356.279235	2419.012797
356.668689	2416.020872
357.058080	2415.670512
357.447408	2414.132960
357.836672	2414.286715
358.225873	2416.759401
358.615010	2413.969122
359.004084	2417.737385
359.393095	2418.417940
359.782043	2420.555390
360.170927	2420.578075
360.559748	2422.105544
360.948505	2420.958682
361.337199	2424.369023
361.725830	2423.927922
362.114398	2424.648807
362.502903	2422.579413
362.891344	2426.410690
363.279722	2421.687129
363.668037	2424.104362
364.056289	2424.822726
364.444478	2425.752819
364.832603	2426.849270
365.220665	2427.078643
365.608665	2428.172573
365.996601	2428.691812
366.384474	2428.283478
366.772284	2429.185845
367.160031	2428.361616
367.547715	2431.078798
367.935336	2427.129054
368.322893	2428.719538
368.710388	2430.090732
369.097820	2433.427976
369.485189	2432.059303
369.872495	2433.480908
370.259738	2431.860177
370.646918	2434.529468
371.034035	2434.080805
371.421090	2433.009560
371.808081	2431.925712
372.195010	2434.022832
372.581875	2432.916299
372.968678	2435.187339
373.355418	2433.236412
373.742096	2434.824376
374.128710	2434.504262
374.515262	2436.674479
374.901751	2437.337391
375.288177	2437.493667
375.674540	2437.002154
376.060841	2439.578184
376.447079	2438.043152
376.833254	2435.855292
377.219367	2434.882349
377.605417	2437.183636
377.991404	2433.518717
378.377329	2435.409149
378.763191	2433.586772
379.148991	2439.736980
379.534727	2437.977617
379.920402	2439.968873
380.306013	2439.215221
380.691563	2441.408122
381.077049	2443.101950
381.462474	2442.141610
381.847835	2439.762186
382.233134	2439.855447
382.618371	2442.370983
383.003545	2442.454162
383.388657	2443.454831
383.773706	2443.895932
384.158693	2442.817125
384.543618	2445.496498
384.928480	2443.613627
385.313280	2443.585901
385.698017	2444.251333
386.082692	2445.713268
386.467305	2445.304934
386.851856	2448.415326
387.236344	2446.353494
387.620770	2447.311314
388.005133	2446.257713
388.389435	2449.269802
388.773674	2447.215532
389.157851	2449.242076
389.541965	2449.292487
389.926018	2447.397013
390.310008	2446.479523
390.693936	2450.091510
391.077802	2449.332816
391.461606	2451.548403
391.845348	2451.472786
392.229027	2450.456994
392.612645	2453.332972
392.996200	2452.168465
393.379694	2449.693259
393.763125	2453.587550
394.146494	2451.886161
394.529801	2452.639813
394.913047	2454.447067
395.296230	2452.929680
395.679351	2453.922787
396.062410	2455.903960
396.445408	2454.376491
396.828343	2454.424382
397.211217	2448.921962
397.594028	2452.435647
397.976778	2452.080245
398.359466	2455.727520
398.742092	2453.252313
399.124656	2458.658951
399.507158	2456.670216
399.889598	2461.320680
400.271977	2459.326904
400.654294	2459.518468
401.036549	2458.732048
401.418742	2460.183900
401.800874	2461.229939
402.182944	2456.501337
402.564952	2459.014352
402.946898	2460.781277
403.328783	2459.641976
403.710606	2461.746658
404.092367	2461.577779
404.474067	2461.509723
404.855705	2460.612398
405.237282	2464.799076
405.618797	2461.030814
406.000250	2466.475260
406.381642	2461.318160
406.762972	2465.971145
407.144240	2463.581638
407.525447	2465.754375
407.906593	2464.988120
408.287677	2465.338480
408.668700	2465.333439
409.049661	2468.038018
409.430560	2463.790846
409.811399	2466.011474
410.192176	2467.470888
410.572891	2466.775209
410.953545	2468.133800
411.334138	2467.231433
411.714669	2465.341000
412.095139	2465.441823
412.475547	2468.164047
412.855894	2469.104222
413.236180	2469.076495
413.616405	2468.214458
413.996568	2469.419294
414.376670	2469.585652
414.756711	2470.152782
415.136691	2469.323512
415.516609	2472.927937
415.896466	2472.660756
416.276262	2474.339460
416.655997	2471.493729
417.035670	2468.746300
417.415283	2471.617237
417.794834	2470.568677
418.174324	2472.280149
418.553753	2474.765437
418.933121	2474.127732
419.312428	2475.972794
419.691674	2474.856178
420.070859	2475.753504
420.449983	2478.155613
420.829045	2472.897690
421.208047	2476.822228
421.586988	2475.367855
421.965867	2478.478247
422.344686	2477.780047
422.723444	2479.279791
423.102141	2479.141159
423.480777	2477.959008
423.859352	2478.553865
424.237866	2482.755666
424.616319	2481.034112
424.994712	2484.051243
425.373044	2482.604432
425.751314	2484.235245
426.129524	2480.275419
426.507673	2484.164669
426.885762	2484.126860
427.263789	2486.997797
427.641756	2484.469659
428.019662	2483.221973
428.397508	2483.698362
428.775292	2485.278764
429.153016	2487.025524
429.530679	2487.486789
429.908282	2487.038127
430.285824	2486.347488
430.663305	2487.325472
431.040726	2488.026193
431.418086	2487.937973
431.795385	2489.888899
432.172624	2489.629280
432.549802	2488.747078
432.926920	2489.120123
433.303977	2489.465442
433.680974	2488.777325
434.057910	2493.389980
434.434786	2492.144815
434.811601	2493.881493
435.188355	2494.758654
435.565050	2492.293529
435.941683	2494.269662
436.318257	2494.617501
436.694770	2491.774291
437.071222	2498.438696
437.447614	2493.185814
437.823946	2492.525422
438.200218	2498.103459
438.576429	2499.386433
438.952580	2498.758809
439.328670	2498.547081
439.704700	2501.992709
440.080670	2497.526247
440.456580	2500.487925
440.832429	2501.004643
441.208218	2501.044973
441.583947	2501.120590
441.959616	2500.079592
442.335224	2507.434635
442.710773	2503.056393
443.086261	2506.842299
443.461689	2506.590242
443.837057	2508.122753
444.212365	2509.602331
444.587612	2513.025275
444.962800	2511.487723
445.337927	2511.023937
445.712995	2509.884636
446.088002	2517.411078
446.462949	2516.914525
446.837837	2518.711696
447.212664	2521.592716
447.587431	2528.592358
447.962139	2534.641742
448.336786	2541.480067
448.711374	2539.592155
449.085901	2534.520755
449.460369	2535.791125
449.834776	2535.617206
450.209124	2545.104657
450.583412	2544.872764
450.957640	2545.490305
451.331808	2550.060111
451.705917	2544.877805
452.079965	2548.464586
452.453954	2548.426777
452.827883	2553.891388
453.201752	2551.834597
453.575562	2557.170659
453.949311	2560.961607
454.323001	2567.005950
454.696632	2570.854871
455.070202	2580.244020
455.443713	2585.040678
455.817164	2590.076791
456.190556	2594.122317
456.563888	2599.929726
456.937160	2606.689913
457.310373	2607.239399
457.683526	2613.094699
458.056619	2621.553755
458.429653	2630.269910
458.802628	2640.543782
459.175542	2648.740698
459.548398	2670.289110
459.921194	2694.809282
460.293930	2711.566078
460.666607	2745.649319
461.039224	2775.119904
461.411782	2794.833336
461.784280	2799.072947
462.156719	2810.743218
462.529099	2819.625731
462.901419	2827.570589
463.273680	2836.531240
463.645882	2852.196626
464.018024	2883.030843
464.390106	2919.180958
464.762130	2996.166939
465.134094	3115.390227
465.505999	3265.397322
465.877845	3398.592168
466.249631	3460.411838
466.621358	3460.386632
466.993026	3459.154070
467.364634	3459.451498
467.736184	3465.775625
468.107674	3492.045078
468.479105	3529.077394
468.850477	3562.795152
469.221790	3580.963470
469.593043	3589.309100
469.964238	3621.128863
470.335373	3678.598017
470.706449	3814.661280
471.077467	4005.947863
471.448425	4291.073004
471.819324	4505.712732
472.190164	4510.131303
472.560945	4420.965894
472.931667	4359.816698
473.302330	4385.675297
473.672934	4432.520219
474.043479	4549.858116
474.413965	4601.177062
474.784393	4668.675591
475.154761	4822.607224
475.525070	4926.838121
475.895321	4999.765973
476.265513	5145.301564
476.635645	5334.289381
477.005719	5432.128094
477.375734	5591.378144
477.745691	5772.121154
478.115588	6024.776223
478.485427	6363.294745
478.855207	6865.817125
479.224928	7328.640418
479.594591	7684.200561
479.964194	7727.060451
480.333739	7899.314157
480.703226	8085.806602
481.072653	8385.213332
481.442022	8662.315477
481.811333	8900.141992
482.180584	8911.121625
482.549777	9037.415132
482.918912	9162.143360
483.287988	9328.637548
483.657005	9405.938601
484.025964	9499.940997
484.394864	9706.555208
484.763706	9851.080048
485.132489	9906.212627
485.501213	10092.551317
485.869879	10345.428197
486.238487	10495.974695
486.607036	10763.559141
486.975527	10888.244519
487.343959	11156.270067
487.712333	11420.403843
488.080648	11639.951134
488.448905	11986.699340
488.817104	12202.478368
489.185244	12702.865820
489.553326	13447.250158
489.921350	14490.375794
490.289315	15678.190108
490.657222	16205.759461
491.025070	16616.921009
491.392861	16622.763707
491.760593	16535.710542
492.128267	16292.308510
492.495883	16105.687516
492.863440	15963.108561
493.230939	15833.543346
493.598380	15782.340346
493.965763	15963.385825
494.333088	15985.385420
494.700354	16122.724095
495.067563	16307.638659
495.434713	16561.128039
495.801805	16879.343314
496.168839	17040.244342
496.535815	17203.204681
496.902733	17528.051594
497.269593	17648.053741
497.636395	17923.270494
498.003139	18394.358759
498.369825	18451.021328
498.736453	18885.790600
499.103023	18989.129213
499.469535	19228.899093
499.835989	19566.278314
500.202385	19713.530418
500.568723	20023.926863
500.935003	20410.863147
501.301226	20614.578695
501.667390	21204.759178
502.033497	21646.926344
502.399546	21649.525059
502.765537	21597.039085
503.131470	22077.145975
503.497345	22558.838307
503.863163	22154.749497
504.228923	22763.113423
504.594625	23284.817393
504.960269	23173.642307
505.325856	23861.316185
505.691385	23774.598257
506.056856	24131.509428
506.422270	24684.884448
506.787625	24703.889598
507.152924	25109.478151
507.518164	25446.441477
507.883347	25238.756021
508.248472	25646.464379
508.613540	26229.448616
508.978550	26701.252725
509.343503	26806.302809
509.708398	27206.363738
510.073236	27837.485952
510.438016	28101.592002
510.802738	27998.036620
511.167403	28679.025928
511.532010	29110.127761
511.896561	29585.561501
512.261053	30438.575143
512.625488	30364.102178
512.989866	30521.413904
513.354186	30645.595167
513.718449	30886.950490
514.082655	31626.472636
514.446803	31613.327827
514.810894	32252.662081
515.174927	32426.339913
515.538904	32584.758173
515.902822	33324.416430
516.266684	33116.995634
516.630488	33668.908719
516.994235	33766.654172
517.357925	34436.631080
517.721558	34775.527688
518.085133	35235.343933
518.448651	35541.016817
518.812112	35554.169188
519.175516	35835.495819
519.538863	36305.717006
519.902152	36458.002702
520.265385	37030.758437
520.628560	37247.313804
520.991678	37252.506192
521.354739	37619.842470
521.717743	38068.157323
522.080690	38152.130343
522.443580	38799.026328
522.806413	38999.628963
523.169189	39129.282399
523.531908	39414.266387
523.894569	39445.844175
524.257174	39753.084858
524.619722	40157.513946
524.982213	40288.369697
525.344647	40361.905008
525.707025	40538.171473
526.069345	41021.713908
526.431608	41089.053642
526.793815	41479.092756
527.155964	41190.453931
527.518057	41457.700619
527.880093	41367.204346
528.242072	41970.086017
528.603995	41787.243367
528.965860	41899.240161
529.327669	42102.406223
529.689421	42114.976340
530.051117	42166.756552
530.412755	42399.403281
530.774337	42537.087275
531.135862	42454.762712
531.497331	42721.059144
531.858743	42708.199160
532.220098	43124.727017
532.581396	42913.149790
532.942638	42656.290399
533.303824	43040.514542
533.664953	43067.560333
534.026025	42875.847773
534.387040	43377.518198
534.747999	43390.189138
535.108902	43616.761277
535.469748	43215.646748
535.830537	43384.855597
536.191270	43616.927635
536.551947	43330.776619
536.912567	43677.703786
537.273131	43832.177342
537.633638	43394.537133
537.994089	43768.116880
538.354483	43418.527984
538.714821	44015.710630
539.075103	44368.772881
539.435328	44206.185587
539.795497	44131.062313
540.155609	44157.150284
540.515665	44624.346778
540.875665	44130.381757
541.235609	44473.200383
541.595496	44471.688037
541.955328	45158.802347
542.315102	44574.484726
542.674821	44404.393674
543.034483	44466.445237
543.394090	44438.088747
543.753640	44440.170743
544.113134	45428.241938
544.472571	44495.699053
544.831953	45718.745990
545.191278	44960.450587
545.550548	44739.645528
545.909761	45189.760073
546.268918	45402.605150
546.628019	45714.032511
546.987064	45316.507284
547.346053	44622.577333
547.704986	45491.392472
548.063863	45074.398308
548.422684	45277.821469
548.781449	45146.874977
549.140158	45542.348455
549.498811	45402.469039
549.857408	44858.263878
550.215949	45701.328804
550.574434	45644.643549
550.932864	45428.352843
551.291237	46137.645710
551.649555	45763.090500
552.007817	46011.453027
552.366022	45675.626481
552.724173	45866.744185
553.082267	46256.581653
553.440305	46564.432315
553.798288	45891.849131
554.156215	46229.079638
554.514086	46417.555778
554.871902	46170.539239
555.229661	46195.419854
555.587365	46030.400203
555.945014	46144.627708
556.302606	46067.616522
556.660143	46294.463403
557.017625	46393.209525
557.375050	46196.367591
557.732421	46549.475212
558.089735	46556.424442
558.446994	46462.054043
558.804197	46905.965447
559.161345	46858.019033
559.518437	46139.760474
559.875474	46432.762418
560.232455	46627.126625
560.589381	46792.380689
560.946251	46479.541805
561.303065	47158.290321
561.659825	46964.382338
562.016528	46665.877975
562.373177	46409.832730
562.729770	46877.039307
563.086307	46409.426917
563.442789	46859.632202
563.799216	46903.192813
564.155587	46709.793987
564.511904	46734.578819
564.868164	46838.991198
565.224370	47068.144408
565.580520	46828.210690
565.936615	47033.942699
566.292654	46764.009076
566.648638	47000.814757
567.004567	46974.704101
567.360441	46991.707912
567.716260	46861.890639
568.072023	47168.818771
568.427732	47161.367945
568.783385	46708.657206
569.138982	47104.942310
569.494525	47069.165241
569.850013	46841.398349
570.205445	46816.805080
570.560823	46776.654810
570.916145	46655.856161
571.271412	46687.948146
571.626625	46447.467464
571.981782	46510.481887
572.336884	46207.228757
572.691931	46524.488733
573.046923	46130.454504
573.401860	45991.447208
573.756743	45980.394478
574.111570	46081.532627
574.466342	45915.277893
574.821059	46054.938020
575.175722	45592.230673
575.530330	45630.130067
575.884882	45348.425349
576.239380	45303.498586
576.593823	45296.347709
576.948211	45211.270677
577.302544	44753.231438
577.656823	44790.099917
578.011047	45002.143450
578.365216	44729.535494
578.719330	44529.915884
579.073389	44383.493050
579.427394	44479.330426
579.781344	44452.599708
580.135239	44119.639058
580.489080	44213.391917
580.842866	43688.685939
581.196597	44150.793389
581.550273	44103.434269
581.903895	43957.502948
582.257463	44386.202671
582.610975	43787.966423
582.964434	44054.666147
583.317837	43718.751381
583.671186	43563.216661
584.024481	43772.479998
584.377721	43338.882794
584.730906	43597.602372
585.084037	43634.710305
585.437113	43363.304664
585.790135	43404.858895
586.143103	42991.985875
586.496016	43124.968993
586.848874	43144.795851
587.201679	43172.696117
587.554428	42665.392202
587.907124	42856.431768
588.259765	42623.442241
588.612352	42863.743962
588.964884	42278.050105
589.317362	42556.120152
589.669786	42520.758978
590.022155	42293.796149
590.374470	42712.761404
590.726731	42244.183634
591.078937	41769.017075
591.431090	41854.935981
591.783188	41520.578931
592.135232	41207.805582
592.487222	41443.189658
592.839157	41533.305324
593.191038	41218.386964
593.542866	40998.408654
593.894639	40394.879195
594.246358	40668.787769
594.598022	40647.745993
594.949633	40272.099373
595.301190	40229.063042
595.652692	40089.271846
596.004141	40392.265357
596.355535	39422.627141
596.706876	39377.188701
597.058162	39226.606915
597.409395	39667.004635
597.760573	39748.109239
598.111698	39331.951907
598.462768	39337.713946
598.813785	39399.833564
599.164748	38850.718319
599.515657	39244.664328
599.866511	38732.203313
600.217312	39326.096607
600.568060	38306.107346
600.918753	39054.645595
601.269392	39029.429744
601.619978	38670.986061
601.970510	38882.210407
602.320988	39051.081500
602.671412	39353.613745
603.021783	39107.179460
603.372100	38766.276472
603.722363	38879.727639
604.072572	38948.239441
604.422728	38961.958941
604.772830	38792.941655
605.122878	38892.151563
605.472872	38810.641146
605.822813	39107.229871
606.172701	38933.665465
606.522534	39157.800206
606.872314	39412.527189
607.222041	39187.026295
607.571714	39583.094630
607.921333	39026.447901
608.270899	39317.647633
608.620411	39648.196090
608.969870	39441.004667
609.319276	39442.930388
609.668627	39502.655458
610.017926	39985.887863
610.367171	40130.266509
610.716362	40223.923586
611.065500	40180.229385
611.414585	40366.931038
611.763616	40654.085244
612.112594	40578.006670
612.461518	40802.123768
612.810389	41095.869282
613.159207	40962.598818
613.507971	41028.975691
613.856682	41502.317352
614.205340	41381.294371
614.553945	42078.057450
614.902496	41529.083358
615.250994	41998.898732
615.599439	42076.860176
615.947830	42298.880153
616.296169	42337.737367
616.644454	42475.973367
616.992686	42622.350831
617.340864	43140.891477
617.688990	42870.153789
618.037063	43462.575066
618.385082	43427.251701
618.733048	43728.344697
619.080961	43737.885080
619.428821	43753.374025
619.776628	43848.465310
620.124382	43667.684492
620.472083	43807.009382
620.819731	43923.828040
621.167326	43603.631592
621.514868	43580.391872
621.862357	43160.229343
622.209793	43170.795602
622.557176	42830.623581
622.904506	42585.058895
623.251783	42250.774943
623.599007	42020.595858
623.946179	41813.873262
624.293297	41769.327106
624.640363	41179.733917
624.987376	41163.266988
625.334336	40923.212283
625.681243	40571.251524
626.028097	40539.918233
626.374899	40398.012272
626.721647	40363.487930
627.068343	40267.385894
627.414987	40023.293225
627.761577	39807.574690
628.108115	40140.230350
628.454600	39596.214233
628.801032	39781.953025
629.147412	39751.295248
629.493739	39749.785423
629.840014	39402.845653
630.186236	39744.550184
630.532405	39364.127071
630.878521	39581.249567
631.224585	39456.143252
631.570597	39163.035444
631.916556	39329.325466
632.262462	39287.559506
632.608316	39304.217999
632.954117	39184.341881
633.299866	39180.049338
633.645562	39093.114640
633.991206	38596.145091
634.336797	38175.975001
634.682336	38160.680140
635.027823	37923.753471
635.373257	37757.970085
635.718639	37512.428084
636.063968	37373.488843
636.409245	36802.008520
636.754470	36856.132868
637.099642	36613.141691
637.444762	36164.932703
637.789829	36298.147713
638.134845	35938.718485
