Dividing Wavelength (nm)	Counts (n)	Blue Motor Position (mm): 0.200000	Red Motor Position (mm): 0.000000	
326.493990	1978.509212
326.888308	1978.509212
327.282561	1978.509212
327.676750	1955.501386
328.070874	1957.810234
328.464933	1966.155864
328.858929	1972.691720
329.252859	1982.653040
329.646726	2001.000320
330.040528	2015.236538
330.434265	2034.299661
330.827938	2056.044678
331.221547	2073.466906
331.615091	2091.854515
332.008571	2115.290839
332.401986	2132.886987
332.795338	2153.086890
333.188625	2174.534479
333.581847	2193.088446
333.975006	2212.776672
334.368100	2228.689074
334.761129	2247.106930
335.154095	2261.259969
335.546996	2274.956784
335.939833	2290.334824
336.332606	2300.954015
336.725315	2313.914821
337.117960	2321.080821
337.510540	2327.672130
337.903056	2335.390137
338.295508	2345.437156
338.687896	2349.875892
339.080220	2356.865452
339.472480	2363.474405
339.864676	2364.139837
340.256807	2368.873480
340.648875	2372.440097
341.040879	2367.769468
341.432818	2373.397916
341.824694	2377.675335
342.216506	2371.681403
342.608253	2375.691641
342.999937	2373.201311
343.391557	2370.554705
343.783113	2370.090919
344.174605	2367.164529
344.566033	2365.379961
344.957397	2364.790146
345.348697	2363.171935
345.739934	2361.321832
346.131106	2360.641276
346.522215	2359.007942
346.913260	2358.304701
347.304241	2355.219515
347.695159	2351.854545
348.086012	2349.817919
348.476802	2349.891016
348.867528	2348.981087
349.258191	2348.509739
349.648789	2347.191478
350.039324	2345.122084
350.429796	2344.623010
350.820203	2344.534790
351.210548	2344.504543
351.600828	2344.275170
351.991045	2343.085458
352.381198	2341.802484
352.771288	2342.525890
353.161314	2340.796774
353.551276	2343.750890
353.941175	2344.328102
354.331010	2343.829028
354.720782	2341.560509
355.110490	2342.931703
355.500135	2341.573112
355.889717	2344.991014
356.279235	2343.249295
356.668689	2344.063442
357.058080	2345.164934
357.447408	2341.580673
357.836672	2341.840293
358.225873	2343.312310
358.615010	2341.497494
359.004084	2346.238700
359.393095	2347.136025
359.782043	2348.923114
360.170927	2346.541169
360.559748	2348.040912
360.948505	2348.401355
361.337199	2350.906808
361.725830	2349.762466
362.114398	2350.737929
362.502903	2349.356653
362.891344	2349.386900
363.279722	2349.452435
363.668037	2350.448063
364.056289	2354.881758
364.444478	2353.293794
364.832603	2352.474607
365.220665	2351.451253
365.608665	2353.767663
365.996601	2353.755060
366.384474	2352.963599
366.772284	2355.466532
367.160031	2355.995853
367.547715	2355.189268
367.935336	2355.315297
368.322893	2354.717920
368.710388	2353.775225
369.097820	2357.881244
369.485189	2356.958713
369.872495	2355.615246
370.259738	2356.928466
370.646918	2357.578775
371.034035	2355.249762
371.421090	2357.482993
371.808081	2357.495596
372.195010	2357.472911
372.581875	2358.589527
372.968678	2358.423168
373.355418	2359.501975
373.742096	2359.121368
374.128710	2359.582634
374.515262	2358.125740
374.901751	2360.111955
375.288177	2359.169259
375.674540	2359.257479
376.060841	2359.469208
376.447079	2359.633045
376.833254	2362.065402
377.219367	2352.744309
377.605417	2359.829650
377.991404	2355.960565
378.377329	2358.811337
378.763191	2355.489217
379.148991	2365.122862
379.534727	2360.527850
379.920402	2359.859897
380.306013	2363.043386
380.691563	2361.281503
381.077049	2365.891638
381.462474	2365.082533
381.847835	2363.476925
382.233134	2365.321988
382.618371	2362.153622
383.003545	2365.702595
383.388657	2364.424662
383.773706	2363.262676
384.158693	2364.989271
384.543618	2363.401308
384.928480	2365.042203
385.313280	2365.314426
385.698017	2364.487677
386.082692	2368.586135
386.467305	2366.252080
386.851856	2366.093284
387.236344	2364.906092
387.620770	2367.867770
388.005133	2366.168901
388.389435	2367.477081
388.773674	2367.046062
389.157851	2367.162009
389.541965	2367.333408
389.926018	2366.320136
390.310008	2366.930116
390.693936	2366.907430
391.077802	2364.885928
391.461606	2368.150075
391.845348	2365.924405
392.229027	2368.621423
392.612645	2369.924561
392.996200	2366.715867
393.379694	2370.577390
393.763125	2370.247195
394.146494	2368.714684
394.529801	2368.308871
394.913047	2370.799201
395.296230	2370.786598
395.679351	2371.368852
396.062410	2371.910776
396.445408	2370.577390
396.828343	2369.407843
397.211217	2365.546319
397.594028	2367.532533
397.976778	2367.126721
398.359466	2368.429859
398.742092	2367.542616
399.124656	2370.111084
399.507158	2371.199973
399.889598	2371.716691
400.271977	2371.762062
400.654294	2372.614017
401.036549	2371.318440
401.418742	2372.477905
401.800874	2373.425642
402.182944	2373.481095
402.564952	2373.413039
402.946898	2373.637371
403.328783	2374.259953
403.710606	2372.316588
404.092367	2371.434387
404.474067	2374.154089
404.855705	2372.182998
405.237282	2374.620396
405.618797	2372.868595
406.000250	2375.880684
406.381642	2372.883718
406.762972	2372.740045
407.144240	2376.334388
407.525447	2376.838503
407.906593	2376.200798
408.287677	2375.991590
408.668700	2375.258102
409.049661	2376.588966
409.430560	2377.670294
409.811399	2376.324306
410.192176	2375.684079
410.572891	2377.831611
410.953545	2375.071579
411.334138	2376.178112
411.714669	2378.015613
412.095139	2376.417567
412.475547	2376.853627
412.855894	2376.087372
413.236180	2379.835469
413.616405	2378.638195
413.996568	2378.502084
414.376670	2378.242465
414.756711	2381.090717
415.136691	2378.302959
415.516609	2379.984183
415.896466	2376.714995
416.276262	2379.921169
416.655997	2377.559388
417.035670	2374.814480
417.415283	2378.461755
417.794834	2373.465972
418.174324	2380.954606
418.553753	2380.248844
418.933121	2377.337578
419.312428	2378.126518
419.691674	2379.172558
420.070859	2379.114584
420.449983	2380.090048
420.829045	2382.771942
421.208047	2380.999976
421.586988	2383.155069
421.965867	2380.992414
422.344686	2379.964019
422.723444	2380.105171
423.102141	2380.465614
423.480777	2380.349667
423.859352	2377.330016
424.237866	2382.101468
424.616319	2381.647764
424.994712	2382.968547
425.373044	2381.224307
425.751314	2380.016951
426.129524	2380.947044
426.507673	2382.156921
426.885762	2381.191540
427.263789	2382.358567
427.641756	2384.153218
428.019662	2384.609442
428.397508	2386.177241
428.775292	2384.821171
429.153016	2382.474513
429.530679	2381.758670
429.908282	2382.963505
430.285824	2385.998280
430.663305	2380.344626
431.040726	2383.558362
431.418086	2384.125491
431.795385	2384.619524
432.172624	2382.542569
432.549802	2384.806047
432.926920	2383.364277
433.303977	2384.901829
433.680974	2383.961654
434.057910	2384.831253
434.434786	2384.097765
434.811601	2386.648589
435.188355	2384.707745
435.565050	2385.741181
435.941683	2384.617004
436.318257	2382.973588
436.694770	2379.230531
437.071222	2380.531149
437.447614	2381.887219
437.823946	2381.337733
438.200218	2384.559031
438.576429	2386.789741
438.952580	2386.635986
439.328670	2383.397045
439.704700	2383.399565
440.080670	2387.949207
440.456580	2386.333517
440.832429	2387.495503
441.208218	2389.113713
441.583947	2388.952396
441.959616	2387.850904
442.335224	2385.594988
442.710773	2389.171686
443.086261	2387.893754
443.461689	2385.148846
443.837057	2388.725544
444.212365	2386.169679
444.587612	2386.255379
444.962800	2387.629093
445.337927	2386.706562
445.712995	2387.588764
446.088002	2386.285626
446.462949	2384.228835
446.837837	2384.720348
447.212664	2385.610111
447.587431	2385.174051
447.962139	2387.437529
448.336786	2388.410472
448.711374	2385.642879
449.085901	2386.469628
449.460369	2387.077087
449.834776	2386.257899
450.209124	2386.262941
450.583412	2388.851573
450.957640	2390.008518
451.331808	2392.725700
451.705917	2387.876110
452.079965	2390.774773
452.453954	2388.039947
452.827883	2390.563045
453.201752	2389.393497
453.575562	2387.664381
453.949311	2390.321069
454.323001	2386.323434
454.696632	2389.091028
455.070202	2386.487272
455.443713	2390.873076
455.817164	2389.035575
456.190556	2385.020296
456.563888	2388.244114
456.937160	2386.497354
457.310373	2390.605895
457.683526	2389.554814
458.056619	2390.631100
458.429653	2389.108672
458.802628	2392.370298
459.175542	2389.033055
459.548398	2390.056409
459.921194	2393.769219
460.293930	2391.392315
460.666607	2391.339383
461.039224	2391.926677
461.411782	2390.731923
461.784280	2392.403066
462.156719	2391.170504
462.529099	2391.074722
462.901419	2390.207643
463.273680	2389.942983
463.645882	2389.489279
464.018024	2391.457850
464.390106	2389.864845
464.762130	2390.648744
465.134094	2390.678991
465.505999	2390.147150
465.877845	2393.847357
466.249631	2392.602192
466.621358	2392.143447
466.993026	2395.528581
467.364634	2394.003632
467.736184	2395.132851
468.107674	2392.478683
468.479105	2396.332645
468.850477	2392.095556
469.221790	2390.835267
469.593043	2391.619167
469.964238	2394.290978
470.335373	2392.632438
470.706449	2392.960113
471.077467	2394.686709
471.448425	2390.976419
471.819324	2391.898951
472.190164	2393.353323
472.560945	2395.498334
472.931667	2391.805689
473.302330	2393.542367
473.672934	2394.074208
474.043479	2394.177552
474.413965	2390.714279
474.784393	2385.600029
475.154761	2389.978271
475.525070	2387.797972
475.895321	2389.073384
476.265513	2386.482231
476.635645	2391.336862
477.005719	2394.021276
477.375734	2394.734600
477.745691	2388.765873
478.115588	2392.438354
478.485427	2393.854918
478.855207	2392.834085
479.224928	2393.562531
479.594591	2393.688560
479.964194	2397.277862
480.333739	2399.183418
480.703226	2393.212171
481.072653	2392.806358
481.442022	2393.078581
481.811333	2391.561193
482.180584	2393.073539
482.549777	2393.000443
482.918912	2394.301060
483.287988	2394.548077
483.657005	2392.826523
484.025964	2394.457336
484.394864	2395.024466
484.763706	2394.043962
485.132489	2394.812737
485.501213	2394.658982
485.869879	2394.200237
486.238487	2394.059085
486.607036	2395.563869
486.975527	2395.168139
487.343959	2393.439023
487.712333	2395.939435
488.080648	2395.563869
488.448905	2396.171328
488.817104	2395.266441
489.185244	2395.314332
489.553326	2392.879455
489.921350	2394.389281
490.289315	2393.086142
490.657222	2394.071688
491.025070	2394.958931
491.392861	2397.419014
491.760593	2394.979096
492.128267	2394.417007
492.495883	2395.710063
492.863440	2394.772408
493.230939	2395.044631
493.598380	2396.113355
493.965763	2392.193858
494.333088	2394.732079
494.700354	2392.569424
495.067563	2395.026987
495.434713	2390.500030
495.801805	2394.989178
496.168839	2397.797101
496.535815	2393.857439
496.902733	2393.073539
497.269593	2398.119734
497.636395	2394.008673
498.003139	2396.302398
498.369825	2395.284085
498.736453	2397.635784
499.103023	2395.677295
499.469535	2396.536812
499.835989	2396.347769
500.202385	2395.286606
500.568723	2396.851884
500.935003	2395.989847
501.301226	2397.030845
501.667390	2396.665362
502.033497	2393.814589
502.399546	2395.949518
502.765537	2395.999929
503.131470	2396.302398
503.497345	2396.562018
503.863163	2396.226781
504.228923	2393.678478
504.594625	2397.169477
504.960269	2396.887172
505.325856	2396.927502
505.691385	2396.488921
506.056856	2396.521689
506.422270	2398.739796
506.787625	2400.514282
507.152924	2396.877090
507.518164	2397.086298
507.883347	2395.216030
508.248472	2395.992367
508.613540	2397.116545
508.978550	2397.325753
509.343503	2396.322563
509.708398	2397.476987
510.073236	2395.483211
510.438016	2399.188459
510.802738	2398.449930
511.167403	2396.829199
511.532010	2396.355331
511.896561	2395.400032
512.261053	2398.971689
512.625488	2395.321894
512.989866	2393.418858
513.354186	2394.732079
513.718449	2392.939949
514.082655	2397.892883
514.446803	2396.012532
514.810894	2396.405742
515.174927	2400.660476
515.538904	2396.937584
515.902822	2398.076885
516.266684	2400.478994
516.630488	2395.652090
516.994235	2398.845661
517.357925	2397.882800
517.721558	2398.926319
518.085133	2395.992368
518.448651	2398.316339
518.812112	2397.219888
519.175516	2401.383882
519.538863	2397.290465
519.902152	2398.278531
520.265385	2397.320712
520.628560	2398.081926
520.991678	2396.751061
521.354739	2397.834909
521.717743	2396.567059
522.080690	2397.459343
522.443580	2398.757440
522.806413	2399.163253
523.169189	2396.993037
523.531908	2399.768192
523.894569	2397.020763
524.257174	2397.542522
524.619722	2396.040258
524.982213	2399.717780
525.344647	2395.989847
525.707025	2397.303068
526.069345	2398.555794
526.431608	2398.001267
526.793815	2397.650907
527.155964	2398.079405
527.518057	2396.632594
527.880093	2398.621329
528.242072	2396.136040
528.603995	2398.691905
528.965860	2398.636453
529.327669	2398.243243
529.689421	2397.671072
530.051117	2399.279200
530.412755	2398.530588
530.774337	2398.712070
531.135862	2398.396998
531.497331	2396.965310
531.858743	2394.492624
532.220098	2397.461864
532.581396	2392.786194
532.942638	2395.969682
533.303824	2399.276679
533.664953	2398.885990
534.026025	2399.490928
534.387040	2400.728532
534.747999	2399.095198
535.108902	2400.685682
535.469748	2399.566546
535.830537	2399.107801
536.191270	2398.205434
536.551947	2397.323232
536.912567	2399.937070
537.273131	2399.296844
537.633638	2398.669220
537.994089	2402.051834
538.354483	2399.856412
538.714821	2399.606875
539.075103	2399.049827
539.435328	2397.580331
539.795497	2398.127296
540.155609	2398.951525
540.515665	2400.163922
540.875665	2399.493449
541.235609	2398.434807
541.595496	2398.127296
541.955328	2397.746689
542.315102	2396.483880
542.674821	2398.598644
543.034483	2400.486556
543.394090	2398.679303
543.753640	2401.310785
544.113134	2396.347769
544.472571	2398.318860
544.831953	2397.978582
545.191278	2400.504200
545.550548	2401.751886
545.909761	2400.625188
546.268918	2398.828017
546.628019	2397.068654
546.987064	2398.417163
547.346053	2401.804818
547.704986	2399.944632
548.063863	2398.825496
548.422684	2398.049158
548.781449	2400.441186
549.140158	2397.807183
549.498811	2400.259704
549.857408	2398.709549
550.215949	2396.675444
550.574434	2395.523540
550.932864	2396.985475
551.291237	2395.387429
551.649555	2397.028325
552.007817	2396.816596
552.366022	2398.996895
552.724173	2399.412790
553.082267	2400.176525
553.440305	2398.172667
553.798288	2401.338511
554.156215	2397.045969
554.514086	2400.582338
554.871902	2399.407749
555.229661	2399.259035
555.587365	2398.684344
555.945014	2399.558984
556.302606	2399.347255
556.660143	2402.349262
557.017625	2399.211144
557.375050	2399.193500
557.732421	2397.943294
558.089735	2401.139386
558.446994	2398.180228
558.804197	2402.170302
559.161345	2402.011505
559.518437	2398.386916
559.875474	2400.347924
560.232455	2400.526885
560.589381	2399.140568
560.946251	2402.944119
561.303065	2398.517986
561.659825	2401.782133
562.016528	2397.482028
562.373177	2401.237688
562.729770	2398.540671
563.086307	2400.143758
563.442789	2401.386402
563.799216	2401.247770
564.155587	2398.583521
564.511904	2399.206103
564.868164	2400.153840
565.224370	2402.152658
565.580520	2400.259704
565.936615	2401.865312
566.292654	2399.221227
566.648638	2400.917575
567.004567	2399.871535
567.360441	2400.360527
567.716260	2398.906154
568.072023	2399.707698
568.427732	2393.698643
568.783385	2399.906823
569.138982	2395.604199
569.494525	2397.587893
569.850013	2395.024466
570.205445	2398.588562
570.560823	2397.648387
570.916145	2399.049827
571.271412	2398.109652
571.626625	2400.234498
571.981782	2399.889179
572.336884	2400.181566
572.691931	2396.912378
573.046923	2399.811042
573.401860	2400.960425
573.756743	2400.116031
574.111570	2400.226937
574.466342	2397.731566
574.821059	2400.726011
575.175722	2399.120403
575.530330	2400.254663
575.884882	2400.589900
576.239380	2401.991341
576.593823	2400.907492
576.948211	2400.516803
577.302544	2400.962945
577.656823	2399.193500
578.011047	2401.711557
578.365216	2398.893552
578.719330	2400.766340
579.073389	2398.278531
579.427394	2399.664848
579.781344	2399.874056
580.135239	2399.836247
580.489080	2399.926988
580.842866	2398.684344
581.196597	2402.908831
581.550273	2398.835578
581.903895	2401.204921
582.257463	2401.613254
582.610975	2399.044786
582.964434	2399.395146
583.317837	2399.697616
583.671186	2402.886145
584.024481	2400.756258
584.377721	2400.720970
584.730906	2400.846999
585.084037	2400.809190
585.437113	2399.553943
585.790135	2399.478325
586.143103	2399.309447
586.496016	2397.718963
586.848874	2395.626884
587.201679	2398.913716
587.554428	2393.706204
587.907124	2399.155692
588.259765	2394.417007
588.612352	2398.424724
588.964884	2400.045455
589.317362	2400.831875
589.669786	2399.352297
590.022155	2401.358676
590.374470	2401.557801
590.726731	2399.523696
591.078937	2400.390774
591.431090	2401.696433
591.783188	2400.083264
592.135232	2400.642832
592.487222	2399.969838
592.839157	2398.749879
593.191038	2399.057389
593.542866	2397.983623
593.894639	2400.287431
594.246358	2399.231309
594.598022	2400.451268
594.949633	2399.995044
595.301190	2399.226268
595.652692	2399.165774
596.004141	2400.869684
596.355535	2400.884807
596.706876	2401.260373
597.058162	2399.798439
597.409395	2397.653428
597.760573	2401.376320
598.111698	2400.128634
598.462768	2399.977400
598.813785	2400.037893
599.164748	2399.022101
599.515657	2400.728532
599.866511	2399.196021
600.217312	2399.667369
600.568060	2403.060065
600.918753	2401.709036
601.269392	2403.032339
601.619978	2398.792728
601.970510	2400.539488
602.320988	2397.298026
602.671412	2399.806000
603.021783	2397.335835
603.372100	2399.226268
603.722363	2399.274159
604.072572	2399.342214
604.422728	2401.164591
604.772830	2396.874569
605.122878	2397.603016
605.472872	2399.342214
605.822813	2394.343910
606.172701	2402.750034
606.522534	2399.400187
606.872314	2398.775084
607.222041	2398.132337
607.571714	2400.012688
607.921333	2399.069992
608.270899	2402.137534
608.620411	2398.255846
608.969870	2400.952863
609.319276	2397.958418
609.668627	2401.343552
610.017926	2397.686195
610.367171	2403.017215
610.716362	2398.321381
611.065500	2402.283728
611.414585	2399.687533
611.763616	2401.504869
612.112594	2402.026629
612.461518	2400.955383
612.810389	2400.002605
613.159207	2397.066133
613.507971	2399.387585
613.856682	2399.735424
614.205340	2400.075702
614.553945	2401.136865
614.902496	2397.703839
615.250994	2400.247101
615.599439	2400.095867
615.947830	2399.163253
616.296169	2400.599982
616.644454	2404.401012
616.992686	2398.465053
617.340864	2400.045455
617.688990	2396.700650
618.037063	2399.385064
618.385082	2399.415311
618.733048	2400.995713
619.080961	2399.818603
619.428821	2400.705846
619.776628	2398.933881
620.124382	2400.201731
620.472083	2397.829868
620.819731	2400.804149
621.167326	2399.317008
621.514868	2400.224416
621.862357	2400.693243
622.209793	2403.133162
622.557176	2400.778943
622.904506	2400.829355
623.251783	2394.026318
623.599007	2399.077554
623.946179	2394.956410
624.293297	2397.572769
624.640363	2400.514282
624.987376	2402.124931
625.334336	2397.882800
625.681243	2400.161402
626.028097	2395.188303
626.374899	2399.498490
626.721647	2400.728532
627.068343	2399.170815
627.414987	2400.047976
627.761577	2400.063099
628.108115	2398.734755
628.454600	2398.933881
628.801032	2400.630229
629.147412	2400.179046
629.493739	2398.671741
629.840014	2399.669889
630.186236	2399.649725
630.532405	2399.569066
630.878521	2401.139386
631.224585	2401.356155
631.570597	2400.975548
631.916556	2401.104098
632.262462	2400.602503
632.608316	2400.703326
632.954117	2400.549571
633.299866	2401.272976
633.645562	2398.036555
633.991206	2399.632081
634.336797	2399.001936
634.682336	2402.008985
635.027823	2399.271638
635.373257	2401.797256
635.718639	2400.494118
636.063968	2400.199210
636.409245	2397.781977
636.754470	2401.129303
637.099642	2398.565877
637.444762	2401.260373
637.789829	2398.454971
638.134845	2401.227606
638.479808	2400.610064
638.824719	2397.121586
639.169577	2398.641494
639.514383	2397.487070
639.859137	2398.265928
640.203839	2399.463202
640.548489	2398.172667
640.893086	2398.535630
641.237632	2393.978427
641.582125	2400.042935
641.926566	2395.558828
642.270955	2399.745507
642.615292	2400.892369
642.959576	2401.023439
643.303809	2400.726011
643.647990	2400.456309
643.992118	2398.467574
644.336195	2401.283058
