Dividing Wavelength (nm)	Counts (n)	Blue Motor Position (mm): 30.800000	Red Motor Position (mm): 0.000000	
326.493990	1973.982256
326.888308	1973.982256
327.282561	1973.982256
327.676750	1948.789089
328.070874	1950.147680
328.464933	1954.596498
328.858929	1963.874742
329.252859	1976.412092
329.646726	1988.649493
330.040528	2006.056597
330.434265	2025.376819
330.827938	2044.729809
331.221547	2062.288148
331.615091	2083.902095
332.008571	2105.458068
332.401986	2125.053033
332.795338	2147.234110
333.188625	2165.407470
333.581847	2183.598474
333.975006	2203.168233
334.368100	2220.862683
334.761129	2236.230640
335.154095	2252.359812
335.546996	2291.285082
335.939833	2367.517410
336.332606	2384.503578
336.725315	2396.251987
337.117960	2404.799263
337.510540	2410.193298
337.903056	2423.796852
338.295508	2427.234918
338.687896	2437.944850
339.080220	2441.410643
339.472480	2448.284256
339.864676	2451.036726
340.256807	2454.862962
340.648875	2458.658951
341.040879	2456.597119
341.432818	2458.676595
341.824694	2459.921760
342.216506	2460.050309
342.608253	2458.719445
342.999937	2457.741461
343.391557	2454.721810
343.783113	2454.744495
344.174605	2453.622838
344.566033	2452.566717
344.957397	2449.829370
345.348697	2447.142435
345.739934	2447.815429
346.131106	2447.495316
346.522215	2445.171344
346.913260	2443.938782
347.304241	2443.427105
347.695159	2436.722370
348.086012	2438.665735
348.476802	2436.717329
348.867528	2434.385795
349.258191	2430.370516
349.648789	2432.447472
350.039324	2432.223140
350.429796	2432.636515
350.820203	2428.157450
351.210548	2429.531164
351.600828	2428.099476
351.991045	2429.180804
352.381198	2427.837336
352.771288	2427.638211
353.161314	2425.891451
353.551276	2426.166194
353.941175	2426.304826
354.331010	2425.972109
354.720782	2426.745927
355.110490	2430.325146
355.500135	2427.350865
355.889717	2427.229877
356.279235	2430.970413
356.668689	2430.657862
357.058080	2430.551998
357.447408	2430.463777
357.836672	2428.679209
358.225873	2427.320618
358.615010	2425.410021
359.004084	2431.981165
359.393095	2432.870928
359.782043	2433.622060
360.170927	2432.321443
360.559748	2434.489139
360.948505	2435.951073
361.337199	2436.886208
361.725830	2435.353697
362.114398	2434.703388
362.502903	2436.931578
362.891344	2438.123811
363.279722	2437.281938
363.668037	2441.529110
364.056289	2438.731270
364.444478	2440.649429
364.832603	2439.676486
365.220665	2438.612803
365.608665	2442.675973
365.996601	2443.616148
366.384474	2442.028184
366.772284	2446.018258
367.160031	2440.651949
367.547715	2446.320727
367.935336	2441.622372
368.322893	2443.159923
368.710388	2444.352156
369.097820	2448.755604
369.485189	2444.833587
369.872495	2446.948351
370.259738	2444.805860
370.646918	2449.287446
371.034035	2447.122270
371.421090	2444.992383
371.808081	2446.983639
372.195010	2447.555810
372.581875	2449.151335
372.968678	2448.816098
373.355418	2447.785182
373.742096	2452.231480
374.128710	2452.864145
374.515262	2455.447736
374.901751	2452.271809
375.288177	2450.479679
375.674540	2452.405400
376.060841	2452.780966
376.447079	2453.242231
376.833254	2452.760801
377.219367	2450.013372
377.605417	2453.600153
377.991404	2451.588733
378.377329	2452.259206
378.763191	2450.673763
379.148991	2458.043930
379.534727	2456.082921
379.920402	2456.675257
380.306013	2455.641820
380.691563	2458.888323
381.077049	2458.948817
381.462474	2457.570062
381.847835	2459.808334
382.233134	2460.083077
382.618371	2459.221040
383.003545	2461.852522
383.388657	2459.972172
383.773706	2461.267748
384.158693	2462.394446
384.543618	2462.805300
384.928480	2462.336473
385.313280	2460.347737
385.698017	2463.667337
386.082692	2464.252111
386.467305	2466.865949
386.851856	2467.753193
387.236344	2464.511731
387.620770	2467.546505
388.005133	2467.158336
388.389435	2470.641774
388.773674	2466.976855
389.157851	2472.839717
389.541965	2469.686475
389.926018	2469.240333
390.310008	2470.016671
390.693936	2470.321660
391.077802	2469.220168
391.461606	2472.204531
391.845348	2470.558595
392.229027	2473.452217
392.612645	2473.616054
392.996200	2474.122690
393.379694	2473.452217
393.763125	2476.935654
394.146494	2473.663945
394.529801	2479.415902
394.913047	2477.772486
395.296230	2478.682414
395.679351	2478.193422
396.062410	2480.257775
396.445408	2476.098823
396.828343	2480.151910
397.211217	2477.152424
397.594028	2479.748618
397.976778	2476.696199
398.359466	2484.381438
398.742092	2477.827938
399.124656	2485.752632
399.507158	2482.163331
399.889598	2485.117447
400.271977	2482.909422
400.654294	2485.331696
401.036549	2490.088025
401.418742	2486.443270
401.800874	2486.881851
402.182944	2487.257417
402.564952	2490.501399
402.946898	2489.851090
403.328783	2491.252531
403.710606	2492.117089
404.092367	2492.359064
404.474067	2494.065495
404.855705	2490.004846
405.237282	2494.148674
405.618797	2497.049858
406.000250	2496.838130
406.381642	2497.823675
406.762972	2495.845022
407.144240	2497.382574
407.525447	2499.930878
407.906593	2498.345435
408.287677	2499.595641
408.668700	2499.399036
409.049661	2500.828203
409.430560	2502.534633
409.811399	2504.041938
410.192176	2506.227279
410.572891	2504.104953
410.953545	2510.570233
411.334138	2507.727022
411.714669	2507.648884
412.095139	2503.963801
412.475547	2509.221724
412.855894	2509.763648
413.236180	2512.843793
413.616405	2513.105933
413.996568	2512.334637
414.376670	2514.726664
414.756711	2514.845131
415.136691	2516.614576
415.516609	2516.675070
415.896466	2518.555420
416.276262	2520.990298
416.655997	2521.680936
417.035670	2522.333765
417.415283	2526.412059
417.794834	2525.597912
418.174324	2528.950280
418.553753	2531.501103
418.933121	2533.353727
419.312428	2535.332380
419.691674	2535.899510
420.070859	2541.840510
420.449983	2543.471323
420.829045	2548.260419
421.208047	2551.189330
421.586988	2555.459187
421.965867	2563.978737
422.344686	2567.283213
422.723444	2575.296128
423.102141	2573.806467
423.480777	2586.575709
423.859352	2592.279775
424.237866	2612.537652
424.616319	2617.099896
424.994712	2636.326857
425.373044	2645.932775
425.751314	2666.909016
426.129524	2676.071313
426.507673	2706.477033
426.885762	2722.538149
427.263789	2750.299783
427.641756	2776.879267
428.019662	2807.254739
428.397508	2835.848164
428.775292	2874.286962
429.153016	2910.434556
429.530679	2952.757563
429.908282	2997.177690
430.285824	3034.204965
430.663305	3103.755244
431.040726	3144.429794
431.418086	3193.084490
431.795385	3279.890639
432.172624	3367.394987
432.549802	3415.527924
432.926920	3497.108917
433.303977	3568.020307
433.680974	3661.488341
434.057910	3769.384157
434.434786	3864.059547
434.811601	3951.952064
435.188355	4137.632883
435.565050	4212.284810
435.941683	4317.715502
436.318257	4515.210265
436.694770	4613.805152
437.071222	4800.804234
437.447614	4813.230678
437.823946	4940.330769
438.200218	5091.961115
438.576429	5193.437022
438.952580	5367.997056
439.328670	5500.513867
439.704700	5710.651844
440.080670	5781.727072
440.456580	6037.603439
440.832429	6229.326081
441.208218	6188.258322
441.583947	6427.408139
441.959616	6607.805830
442.335224	6824.565363
442.710773	7022.108017
443.086261	7323.322001
443.461689	7339.065524
443.837057	7545.556227
444.212365	7907.753049
444.587612	8086.398938
444.962800	8159.961976
445.337927	8465.539078
445.712995	8265.589272
446.088002	9026.468266
446.462949	9302.708373
446.837837	9567.739475
447.212664	9761.826419
447.587431	11000.127888
447.962139	12348.848270
448.336786	13544.589798
448.711374	13207.974312
449.085901	11953.725152
449.460369	12158.403560
449.834776	12373.524718
450.209124	13728.856574
450.583412	13799.062203
450.957640	14278.806129
451.331808	13900.855702
451.705917	13487.183658
452.079965	13731.140217
452.453954	14147.736129
452.827883	14335.773688
453.201752	14451.485813
453.575562	14766.600778
453.949311	15601.551966
454.323001	15886.583846
454.696632	15994.381359
455.070202	17119.466075
455.443713	17465.616903
455.817164	18062.885249
456.190556	18654.104211
456.563888	18548.660916
456.937160	19060.842147
457.310373	18246.302591
457.683526	18759.343338
458.056619	18971.583477
458.429653	19163.371655
458.802628	19772.569891
459.175542	20077.663042
459.548398	21201.913447
459.921194	22525.077700
460.293930	23249.302464
460.666607	24947.657113
461.039224	26472.805277
461.411782	27010.351073
461.784280	26352.422523
462.156719	26214.428498
462.529099	26011.408630
462.901419	25250.471663
463.273680	24644.151925
463.645882	24929.945019
464.018024	25126.761747
464.390106	25971.323895
464.762130	28349.228603
465.134094	31866.287886
465.505999	36485.151836
465.877845	40658.360142
466.249631	41946.584158
466.621358	40658.828969
466.993026	39006.991568
467.364634	37412.812364
467.736184	35919.451195
468.107674	35037.594591
468.479105	34543.168304
468.850477	34116.084271
469.221790	33034.615619
469.593043	31672.914265
469.964238	31033.148992
470.335373	31098.053848
470.706449	32714.661146
471.077467	35140.764325
471.448425	39472.171601
471.819324	42266.314299
472.190164	40721.230892
472.560945	37557.823675
472.931667	34826.216490
473.302330	33898.833226
473.672934	33252.017899
474.043479	33808.377282
474.413965	33182.815460
474.784393	32906.645928
475.154761	33820.322296
475.525070	33931.416723
475.895321	33566.797628
476.265513	34220.378182
476.635645	35169.889592
477.005719	35086.259370
477.375734	35588.995999
477.745691	36301.668959
478.115588	37606.158258
478.485427	39558.007328
478.855207	42836.254550
479.224928	45440.197034
479.594591	47099.974253
479.964194	46128.833773
480.333739	46278.493028
480.703226	46338.785228
481.072653	47031.076803
481.442022	47547.777429
481.811333	47853.087350
482.180584	46622.677807
482.549777	46147.198697
482.918912	45657.899263
483.287988	45412.304330
483.657005	44625.594464
484.025964	44019.201629
484.394864	44056.241507
484.763706	43642.158610
485.132489	42814.769152
485.501213	42683.782332
485.869879	42841.041126
486.238487	42478.957730
486.607036	42688.601675
486.975527	42182.132071
487.343959	42379.493244
487.712333	42503.498067
488.080648	42409.951896
488.448905	42835.493336
488.817104	42691.001264
489.185244	43617.048622
489.553326	45278.602848
489.921350	47974.009507
490.289315	50942.755089
490.657222	51590.729881
491.025070	51898.817478
491.392861	50966.521609
491.760593	49674.100833
492.128267	47967.541707
492.495883	46457.365769
492.863440	45080.329226
493.230939	43775.237510
493.598380	42713.444481
493.965763	42411.844849
494.333088	41626.601958
494.700354	41166.410147
495.067563	40917.835892
495.434713	40794.783847
495.801805	40866.796730
496.168839	40510.550991
496.535815	40192.547444
496.902733	40221.115663
497.269593	39822.461217
497.636395	39766.416189
498.003139	40167.077015
498.369825	39640.374740
498.736453	39935.589751
499.103023	39501.657310
499.469535	39368.459943
499.835989	39458.005959
500.202385	39132.740630
500.568723	39156.315586
500.935003	39363.078511
501.301226	39164.507461
501.667390	39776.279207
502.033497	40016.926247
502.399546	39454.151997
502.765537	38800.959610
503.131470	39172.137248
503.497345	39518.313282
503.863163	38209.160916
504.228923	38818.402003
504.594625	39207.004388
504.960269	38514.521249
505.325856	39182.925317
505.691385	38578.576670
506.056856	38701.913540
506.422270	39130.101586
506.787625	38713.341836
507.152924	38905.949201
507.518164	38993.748457
507.883347	38238.155113
508.248472	38484.334820
508.613540	38934.658572
508.978550	39233.820806
509.343503	38989.355091
509.708398	39177.546406
510.073236	39700.331703
510.438016	39694.357936
510.802738	39162.836319
511.167403	39769.806365
511.532010	39992.126291
511.896561	40287.749635
512.261053	41096.990938
512.625488	40672.999653
512.989866	40522.737980
513.354186	40367.803158
513.718449	40372.713242
514.082655	41029.656246
514.446803	40717.618906
514.810894	41217.935781
515.174927	41148.352734
515.538904	41042.750643
515.902822	41692.567977
516.266684	41160.635506
516.630488	41574.877199
516.994235	41432.585591
517.357925	41970.769093
517.721558	42140.633293
518.085133	42454.114924
518.448651	42567.233375
518.812112	42343.620393
519.175516	42455.783546
519.538863	42764.226544
519.902152	42751.394287
520.265385	43186.980226
520.628560	43230.979417
520.991678	43031.717729
521.354739	43251.330555
521.717743	43562.944439
522.080690	43473.433711
522.443580	44013.185012
522.806413	44055.195468
523.169189	44002.006254
523.531908	44162.990461
523.894569	44026.541549
524.257174	44211.965270
524.619722	44483.864944
524.982213	44472.348428
525.344647	44400.597685
525.707025	44433.413076
526.069345	44838.346280
526.431608	44769.852122
526.793815	45063.574951
527.155964	44600.449188
527.518057	44762.718890
527.880093	44575.515642
528.242072	45087.250730
528.603995	44798.795907
528.965860	44793.268282
529.327669	44886.761521
529.689421	44794.145443
530.051117	44746.521662
530.412755	44896.173355
530.774337	44950.706037
531.135862	44773.207010
531.497331	44965.153984
531.858743	44886.106171
532.220098	45212.092385
532.581396	44928.890444
532.942638	44581.486888
533.303824	44879.716509
533.664953	44860.134147
534.026025	44592.206902
534.387040	45040.874635
534.747999	44995.859652
535.108902	45154.910577
535.469748	44677.518348
535.830537	44800.013346
536.191270	44982.056973
536.551947	44645.953164
536.912567	44938.120797
537.273131	45067.449078
537.633638	44549.646961
537.994089	44897.000105
538.354483	44513.131363
538.714821	45062.806175
539.075103	45402.222022
539.435328	45188.764445
539.795497	45083.424494
540.155609	45062.538994
540.515665	45523.532349
540.875665	44978.704606
541.235609	45300.204192
541.595496	45262.841680
541.955328	45915.592966
542.315102	45309.051417
542.674821	45104.814110
543.034483	45144.661911
543.394090	45105.517351
543.753640	45069.304223
544.113134	46063.455049
544.472571	45086.822232
544.831953	46309.919581
545.191278	45552.319858
545.550548	45266.173883
545.909761	45702.339555
546.268918	45923.759635
546.628019	46204.630042
546.987064	45793.970088
547.346053	45078.373258
547.704986	45943.694878
548.063863	45505.069123
548.422684	45713.878756
548.781449	45581.140134
549.140158	45954.125025
549.498811	45807.051882
549.857408	45254.901863
550.215949	46059.651498
550.574434	46003.964393
550.932864	45795.346323
551.291237	46492.522776
551.649555	46097.681963
552.007817	46341.807400
552.366022	46011.253901
552.724173	46173.619384
553.082267	46567.469611
553.440305	46874.314563
553.798288	46205.134157
554.156215	46509.647576
554.514086	46714.875470
554.871902	46453.680686
555.229661	46474.210785
555.587365	46320.385017
555.945014	46418.392609
556.302606	46356.623351
556.660143	46563.449290
557.017625	46645.947773
557.375050	46451.865871
557.732421	46812.295768
558.089735	46783.440203
558.446994	46703.285857
558.804197	47165.471444
559.161345	47105.456508
559.518437	46389.859678
559.875474	46681.240891
560.232455	46855.316975
560.589381	47025.559261
560.946251	46727.866523
561.303065	47416.422603
561.659825	47204.444605
562.016528	46887.963487
562.373177	46618.591952
562.729770	47106.132023
563.086307	46616.797301
563.442789	47080.540605
563.799216	47144.285995
564.155587	46941.684543
564.511904	46959.925958
564.868164	47049.232519
565.224370	47296.523800
565.580520	47025.289559
565.936615	47244.040348
566.292654	46965.413254
566.648638	47213.836274
567.004567	47164.826177
567.360441	47199.574850
567.716260	47063.660301
568.072023	47363.054428
568.427732	47362.734315
568.783385	46921.159485
569.138982	47317.545412
569.494525	47279.676264
569.850013	47044.047692
570.205445	47008.711724
570.560823	46963.258161
570.916145	46855.823611
571.271412	46889.493477
571.626625	46645.138668
571.981782	46710.177114
572.336884	46398.260761
572.691931	46718.583238
573.046923	46306.176524
573.401860	46171.691143
573.756743	46161.697055
574.111570	46266.885771
574.466342	46120.465458
574.821059	46241.180928
575.175722	45767.441016
575.530330	45799.729606
575.884882	45522.566968
576.239380	45475.071737
576.593823	45448.036029
576.948211	45367.251538
577.302544	44902.953707
577.656823	44965.272451
578.011047	45154.393858
578.365216	44911.634574
578.719330	44703.215630
579.073389	44547.733843
579.427394	44638.220034
579.781344	44621.937107
580.135239	44275.393068
580.489080	44343.128532
580.842866	43845.115464
581.196597	44307.270804
581.550273	44238.605248
581.903895	44110.030619
582.257463	44528.156522
582.610975	43936.650215
582.964434	44200.778950
583.317837	43845.377604
583.671186	43689.096793
584.024481	43911.981328
584.377721	43475.740039
584.730906	43729.264707
585.084037	43756.537349
585.437113	43472.821211
585.790135	43520.694528
586.143103	43125.120227
586.496016	43236.209614
586.848874	43268.185653
587.201679	43281.040595
587.554428	42757.599947
587.907124	42950.048516
588.259765	42716.995974
588.612352	42967.760610
588.964884	42368.233827
589.317362	42644.350426
589.669786	42587.292126
590.022155	42379.102555
590.374470	42784.434009
590.726731	42320.761281
591.078937	41834.196674
591.431090	41946.374950
591.783188	41596.682710
592.135232	41271.916456
592.487222	41518.791842
592.839157	41602.994235
593.191038	41275.929215
593.542866	41052.412015
593.894639	40465.974588
594.246358	40728.621224
594.598022	40698.679291
594.949633	40321.696765
595.301190	40269.198189
595.652692	40124.050767
596.004141	40431.314135
596.355535	39474.513217
596.706876	39419.050442
597.058162	39246.912682
597.409395	39709.599865
597.760573	39782.416812
598.111698	39375.036128
598.462768	39375.509997
598.813785	39426.987739
599.164748	38895.135926
599.515657	39281.792426
599.866511	38753.885316
600.217312	39361.029282
600.568060	38342.007923
600.918753	39091.259496
601.269392	39050.181654
601.619978	38696.620329
601.970510	38903.158922
602.320988	39080.244575
602.671412	39396.461032
603.021783	39124.957089
603.372100	38794.302767
603.722363	38900.882841
604.072572	38965.661668
604.422728	38968.436823
604.772830	38811.372114
605.122878	38883.284173
605.472872	38830.147891
605.822813	39110.831776
606.172701	38941.146537
606.522534	39149.764607
606.872314	39433.233729
607.222041	39178.463896
607.571714	39577.193959
607.921333	39022.180565
608.270899	39307.204883
608.620411	39641.511520
608.969870	39462.278337
609.319276	39439.152043
609.668627	39495.020631
610.017926	39980.758489
610.367171	40137.165328
610.716362	40222.426363
611.065500	40170.124392
611.414585	40360.352332
611.763616	40650.448051
612.112594	40567.548797
612.461518	40796.117233
612.810389	41080.927302
613.159207	40956.133538
613.507971	41034.624303
613.856682	41496.469613
614.205340	41389.070351
614.553945	42084.903337
614.902496	41522.199662
615.250994	41977.355361
615.599439	42056.463667
615.947830	42284.820375
616.296169	42317.373626
616.644454	42458.629277
616.992686	42623.903506
617.340864	43140.399965
617.688990	42868.220507
618.037063	43457.049961
618.385082	43417.106379
618.733048	43734.298299
619.080961	43732.342332
619.428821	43747.251544
619.776628	43854.912946
620.124382	43669.970656
620.472083	43801.723732
620.819731	43916.982153
621.167326	43588.775311
621.514868	43566.700098
621.862357	43133.128100
622.209793	43169.870550
622.557176	42829.890093
622.904506	42578.661671
623.251783	42226.481622
623.599007	42009.109589
623.946179	41794.868112
624.293297	41756.923347
624.640363	41156.458910
624.987376	41144.770994
625.334336	40905.497668
625.681243	40568.514178
626.028097	40531.912880
626.374899	40391.577239
626.721647	40359.205470
627.068343	40261.638978
627.414987	40009.389722
627.761577	39798.798041
628.108115	40138.450823
628.454600	39575.928629
628.801032	39766.721179
629.147412	39733.346220
629.493739	39750.062686
629.840014	39407.007126
630.186236	39746.821224
630.532405	39359.882420
630.878521	39568.472763
631.224585	39460.584509
631.570597	39165.535857
631.916556	39333.507103
632.262462	39280.882498
632.608316	39283.130852
632.954117	39180.291314
633.299866	39165.556021
633.645562	39086.067107
633.991206	38589.629400
634.336797	38180.877523
634.682336	38182.800723
635.027823	37917.101668
635.373257	37736.159533
635.718639	37501.382916
636.063968	37366.214458
636.409245	36792.619371
636.754470	36840.104519
