Dividing Wavelength (nm)	Counts (n)	Blue Motor Position (mm): 21.200000	Red Motor Position (mm): 0.000000	
326.493990	1973.407564
326.888308	1973.407564
327.282561	1973.407564
327.676750	1948.166507
328.070874	1947.702721
328.464933	1957.094390
328.858929	1967.390947
329.252859	1979.076342
329.646726	1994.431696
330.040528	2008.746052
330.434265	2026.937056
330.827938	2045.463297
331.221547	2066.084136
331.615091	2089.477611
332.008571	2107.456886
332.401986	2128.786008
332.795338	2150.105048
333.188625	2169.473161
333.581847	2188.803465
333.975006	2205.466999
334.368100	2222.566593
334.761129	2240.147617
335.154095	2256.649834
335.546996	2290.281892
335.939833	2355.771522
336.332606	2368.576052
336.725315	2382.295553
337.117960	2389.088507
337.510540	2398.563356
337.903056	2408.716240
338.295508	2412.582805
338.687896	2422.776018
339.080220	2430.799014
339.472480	2433.319591
339.864676	2435.436876
340.256807	2437.891918
340.648875	2439.870571
341.040879	2444.616817
341.432818	2444.095057
341.824694	2443.250664
342.216506	2443.807712
342.608253	2445.186467
342.999937	2442.620520
343.391557	2442.015582
343.783113	2442.620520
344.174605	2436.094746
344.566033	2435.804880
344.957397	2434.925199
345.348697	2435.550302
345.739934	2432.351690
346.131106	2429.727769
346.522215	2430.587286
346.913260	2427.529826
347.304241	2425.843560
347.695159	2426.945052
348.086012	2423.325504
348.476802	2419.307704
348.867528	2423.151584
349.258191	2419.590009
349.648789	2416.099010
350.039324	2419.418609
350.429796	2417.245872
350.820203	2416.030954
351.210548	2415.395769
351.600828	2412.696231
351.991045	2412.517270
352.381198	2412.131622
352.771288	2414.130439
353.161314	2411.481313
353.551276	2410.657084
353.941175	2410.710016
354.331010	2412.192115
354.720782	2416.613207
355.110490	2416.086407
355.500135	2415.264699
355.889717	2414.594225
356.279235	2413.580953
356.668689	2412.328227
357.058080	2412.159348
357.447408	2412.910480
357.836672	2409.878226
358.225873	2412.446694
358.615010	2411.458627
359.004084	2416.436767
359.393095	2417.104720
359.782043	2416.275450
360.170927	2419.383321
360.559748	2416.411561
360.948505	2418.753177
361.337199	2417.825605
361.725830	2423.300298
362.114398	2422.292067
362.502903	2420.643610
362.891344	2422.592016
363.279722	2422.186203
363.668037	2420.421799
364.056289	2420.744433
364.444478	2424.268199
364.832603	2423.580082
365.220665	2424.212747
365.608665	2423.338107
365.996601	2426.972778
366.384474	2422.662592
366.772284	2426.675350
367.160031	2426.786256
367.547715	2426.498910
367.935336	2424.709300
368.322893	2423.885072
368.710388	2429.571493
369.097820	2427.771801
369.485189	2426.627459
369.872495	2429.629467
370.259738	2428.754826
370.646918	2432.659200
371.034035	2428.792635
371.421090	2430.524271
371.808081	2429.417738
372.195010	2428.157450
372.581875	2427.635690
372.968678	2429.916812
373.355418	2430.458736
373.742096	2429.518561
374.128710	2432.480239
374.515262	2435.517534
374.901751	2432.485280
375.288177	2431.792122
375.674540	2434.116093
376.060841	2434.438727
376.447079	2432.034097
376.833254	2435.308326
377.219367	2427.892789
377.605417	2433.463264
377.991404	2429.649631
378.377329	2432.404622
378.763191	2428.621236
379.148991	2435.333532
379.534727	2433.914447
379.920402	2436.732452
380.306013	2437.821342
380.691563	2436.787905
381.077049	2434.705908
381.462474	2437.740683
381.847835	2437.455858
382.233134	2436.629109
382.618371	2435.762030
383.003545	2439.865529
383.388657	2438.650611
383.773706	2440.541044
384.158693	2439.621033
384.543618	2436.235899
384.928480	2439.242947
385.313280	2441.191353
385.698017	2440.339398
386.082692	2442.426436
386.467305	2440.001641
386.851856	2442.958277
387.236344	2441.624892
387.620770	2440.954419
388.005133	2443.570778
388.389435	2441.052721
388.773674	2443.520366
389.157851	2444.586570
389.541965	2444.193360
389.926018	2442.978442
390.310008	2445.657815
390.693936	2443.974070
391.077802	2444.412650
391.461606	2446.643361
391.845348	2445.488937
392.229027	2448.135542
392.612645	2447.765017
392.996200	2449.269802
393.379694	2447.971705
393.763125	2450.658640
394.146494	2447.616303
394.529801	2448.430450
394.913047	2448.997580
395.296230	2449.302569
395.679351	2449.678135
396.062410	2447.646550
396.445408	2448.818619
396.828343	2449.242076
397.211217	2443.921138
397.594028	2448.954730
397.976778	2446.184616
398.359466	2448.188474
398.742092	2447.170161
399.124656	2450.008331
399.507158	2451.923969
399.889598	2452.236521
400.271977	2449.191664
400.654294	2454.862962
401.036549	2450.255348
401.418742	2452.733075
401.800874	2452.538990
402.182944	2450.434308
402.564952	2451.563527
402.946898	2454.749536
403.328783	2453.819443
403.710606	2450.890533
404.092367	2455.800617
404.474067	2455.389763
404.855705	2454.119392
405.237282	2458.895885
405.618797	2455.702314
406.000250	2458.762295
406.381642	2452.463373
406.762972	2456.037551
407.144240	2455.031841
407.525447	2457.252469
407.906593	2456.181224
408.287677	2459.236163
408.668700	2457.622994
409.049661	2455.006635
409.430560	2457.628035
409.811399	2459.067284
410.192176	2458.585854
410.572891	2456.355144
410.953545	2459.281533
411.334138	2458.497634
411.714669	2461.119034
412.095139	2458.447223
412.475547	2460.191462
412.855894	2459.500824
413.236180	2460.756071
413.616405	2460.667851
413.996568	2460.637604
414.376670	2460.945114
414.756711	2461.202213
415.136691	2461.300516
415.516609	2460.239353
415.896466	2461.368571
416.276262	2463.180866
416.655997	2461.040896
417.035670	2460.030145
417.415283	2459.997377
417.794834	2457.638117
418.174324	2464.093315
418.553753	2464.458798
418.933121	2464.269755
419.312428	2463.236319
419.691674	2466.003912
420.070859	2466.177832
420.449983	2467.143213
420.829045	2463.727831
421.208047	2466.197997
421.586988	2466.505507
421.965867	2468.353090
422.344686	2469.714201
422.723444	2469.648666
423.102141	2468.738738
423.480777	2468.786629
423.859352	2469.313430
424.237866	2470.437607
424.616319	2469.620940
424.994712	2472.943060
425.373044	2470.510704
425.751314	2470.188070
426.129524	2472.756538
426.507673	2472.872484
426.885762	2473.285859
427.263789	2473.212762
427.641756	2471.944912
428.019662	2472.527165
428.397508	2474.790643
428.775292	2474.006744
429.153016	2476.358442
429.530679	2475.791312
429.908282	2473.802577
430.285824	2476.005561
430.663305	2473.127063
431.040726	2475.733339
431.418086	2477.008751
431.795385	2476.421457
432.172624	2476.862557
432.549802	2476.184522
432.926920	2478.052270
433.303977	2476.960860
433.680974	2479.272229
434.057910	2477.775006
434.434786	2479.572178
434.811601	2477.986735
435.188355	2480.860193
435.565050	2477.452372
435.941683	2480.187198
436.318257	2480.875316
436.694770	2478.952116
437.071222	2481.165182
437.447614	2476.865078
437.823946	2479.433546
438.200218	2482.211222
438.576429	2480.207363
438.952580	2483.017806
439.328670	2483.675677
439.704700	2480.797178
440.080670	2482.463279
440.456580	2484.603249
440.832429	2484.303301
441.208218	2484.938486
441.583947	2489.475524
441.959616	2485.674494
442.335224	2485.127529
442.710773	2484.850266
443.086261	2486.468476
443.461689	2486.317242
443.837057	2487.675832
444.212365	2488.764722
444.587612	2488.767242
444.962800	2488.033754
445.337927	2488.021152
445.712995	2485.366984
446.088002	2489.485607
446.462949	2492.172542
446.837837	2492.386791
447.212664	2491.423930
447.587431	2496.331494
447.962139	2502.549757
448.336786	2506.310458
448.711374	2503.865498
449.085901	2501.942298
449.460369	2497.871566
449.834776	2503.595796
450.209124	2503.195025
450.583412	2504.810714
450.957640	2506.388596
451.331808	2509.030160
451.705917	2502.680827
452.079965	2502.990858
452.453954	2505.425735
452.827883	2506.945643
453.201752	2506.764162
453.575562	2513.289935
453.949311	2510.451766
454.323001	2511.039060
454.696632	2513.042919
455.070202	2518.729340
455.443713	2512.836231
455.817164	2516.841428
456.190556	2516.271778
456.563888	2520.213960
456.937160	2518.084073
457.310373	2521.416275
457.683526	2520.103055
458.056619	2524.788807
458.429653	2523.412572
458.802628	2526.578417
459.175542	2529.792152
459.548398	2530.918850
459.921194	2541.606096
460.293930	2544.270346
460.666607	2549.074566
461.039224	2555.507078
461.411782	2558.393139
461.784280	2554.866852
462.156719	2557.838612
462.529099	2557.498334
462.901419	2555.199568
463.273680	2554.206460
463.645882	2555.852397
464.018024	2560.318859
464.390106	2567.169787
464.762130	2572.221024
465.134094	2588.660226
465.505999	2607.529265
465.877845	2624.429733
466.249631	2632.233440
466.621358	2628.165228
466.993026	2624.200361
467.364634	2627.431741
467.736184	2617.891357
468.107674	2617.225925
468.479105	2614.619648
468.850477	2617.374639
469.221790	2615.327930
469.593043	2613.598814
469.964238	2614.039915
470.335373	2619.360853
470.706449	2625.470732
471.077467	2642.008237
471.448425	2665.820127
471.819324	2686.014989
472.190164	2681.588856
472.560945	2671.965294
472.931667	2662.641680
473.302330	2660.549601
473.672934	2665.676454
474.043479	2671.662824
474.413965	2671.935047
474.784393	2675.947805
475.154761	2689.987419
475.525070	2695.789787
475.895321	2703.943853
476.265513	2713.010368
476.635645	2731.899572
477.005719	2743.963053
477.375734	2759.474683
477.745691	2775.319030
478.115588	2798.992288
478.485427	2834.161898
478.855207	2885.687532
479.224928	2932.091353
479.594591	2967.142495
479.964194	2974.487457
480.333739	2994.997391
480.703226	3023.129550
481.072653	3062.453071
481.442022	3104.561829
481.811333	3137.651962
482.180584	3151.192502
482.549777	3176.514217
482.918912	3204.805173
483.287988	3235.987230
483.657005	3258.354830
484.025964	3284.853655
484.394864	3324.625838
484.763706	3359.903833
485.132489	3384.527349
485.501213	3425.832043
485.869879	3479.999241
486.238487	3524.058925
486.607036	3579.186463
486.975527	3623.357053
487.343959	3687.631765
487.712333	3753.875047
488.080648	3815.886280
488.448905	3899.047675
488.817104	3961.731902
489.185244	4078.694233
489.553326	4237.049478
489.921350	4460.163386
490.289315	4709.163618
490.657222	4849.993292
491.025070	4975.351665
491.392861	5023.169530
491.760593	5056.022729
492.128267	5063.440787
492.495883	5077.213220
492.863440	5107.485348
493.230939	5142.904495
493.598380	5188.148851
493.965763	5290.595180
494.333088	5354.766547
494.700354	5441.923056
495.067563	5548.548501
495.434713	5663.149052
495.801805	5800.586029
496.168839	5908.381022
496.535815	6014.696436
496.902733	6151.805738
497.269593	6264.231031
497.636395	6396.425208
498.003139	6581.042344
498.369825	6675.372415
498.736453	6856.382605
499.103023	6963.585263
499.469535	7102.726150
499.835989	7272.754187
500.202385	7391.238946
500.568723	7561.259421
500.935003	7766.625947
501.301226	7908.179026
501.667390	8174.326743
502.033497	8390.466215
502.399546	8484.224114
502.765537	8551.992346
503.131470	8797.990571
503.497345	9045.634733
503.863163	9008.395730
504.228923	9298.625039
504.594625	9579.087112
504.960269	9641.274786
505.325856	9968.211257
505.691385	10046.623885
506.056856	10276.389595
506.422270	10572.675850
506.787625	10692.647750
507.152924	10947.435227
507.518164	11190.161744
507.883347	11218.248533
508.248472	11492.462096
508.613540	11828.674290
508.978550	12123.163374
509.343503	12291.789970
509.708398	12572.418402
510.073236	12970.740132
510.438016	13212.120661
510.802738	13291.286941
511.167403	13709.279253
511.532010	14024.991595
511.896561	14353.810937
512.261053	14872.333939
512.625488	14977.905783
512.989866	15186.700293
513.354186	15392.996911
513.718449	15630.178158
514.082655	16135.281609
514.446803	16276.302847
514.810894	16728.096096
515.174927	16964.377497
515.538904	17183.831527
515.902822	17713.540850
516.266684	17765.411802
516.630488	18215.659937
516.994235	18419.698119
517.357925	18919.170601
517.721558	19270.221431
518.085133	19676.936682
518.448651	20010.156951
518.812112	20185.732778
519.175516	20490.712503
519.538863	20914.179509
519.902152	21170.915392
520.265385	21659.282212
520.628560	21953.826749
520.991678	22118.309517
521.354739	22512.918437
521.717743	22938.895937
522.080690	23169.261544
522.443580	23716.108269
522.806413	24019.469784
523.169189	24265.586477
523.531908	24628.390757
523.894569	24819.783204
524.257174	25166.473437
524.619722	25611.138494
524.982213	25875.695727
525.344647	26081.291625
525.707025	26367.001540
526.069345	26870.791770
526.431608	27079.253564
526.793815	27525.433488
527.155964	27505.984716
527.518057	27860.282050
527.880093	27981.121028
528.242072	28585.368852
528.603995	28628.702610
528.965860	28868.923673
529.327669	29188.489977
529.689421	29352.448465
530.051117	29576.063967
530.412755	29909.475800
530.774337	30196.967763
531.135862	30292.162392
531.497331	30663.271973
531.858743	30820.898772
532.220098	31291.422428
532.581396	31307.501188
532.942638	31296.483746
533.303824	31727.701525
533.664953	31919.288057
534.026025	31933.821703
534.387040	32477.245485
534.747999	32654.235355
535.108902	32977.910200
535.469748	32833.113138
535.830537	33121.406644
536.191270	33477.624657
536.551947	33417.413116
536.912567	33829.661033
537.273131	34112.915906
537.633638	33911.380658
537.994089	34367.262282
538.354483	34256.722381
538.714821	34866.490268
539.075103	35323.937171
539.435328	35327.173592
539.795497	35400.174541
540.155609	35581.358651
540.515665	36112.860104
540.875665	35850.460484
541.235609	36280.435619
541.595496	36418.976609
541.955328	37125.436348
542.315102	36788.435213
542.674821	36774.897194
543.034483	36956.960986
543.394090	37095.101204
543.753640	37208.285191
544.113134	38192.688946
544.472571	37515.107458
544.831953	38717.223524
545.191278	38205.705205
545.550548	38125.908781
545.909761	38647.610231
546.268918	38961.371646
546.628019	39368.989264
546.987064	39124.964650
547.346053	38622.661561
547.704986	39533.149398
548.063863	39272.504100
548.422684	39574.764123
548.781449	39574.207075
549.140158	40051.453110
549.498811	40048.380527
549.857408	39650.189867
550.215949	40520.640860
550.574434	40565.237428
550.932864	40495.493064
551.291237	41235.254665
551.649555	41000.530980
552.007817	41315.235091
552.366022	41125.317182
552.724173	41392.833572
553.082267	41848.155629
553.440305	42221.392577
553.798288	41713.072870
554.156215	42092.543206
554.514086	42362.557488
554.871902	42233.438414
555.229661	42341.029240
555.587365	42282.395580
555.945014	42462.566418
556.302606	42480.225580
556.660143	42779.002166
557.017625	42953.337869
557.375050	42849.827857
557.732421	43268.316723
558.089735	43319.262624
558.446994	43329.017256
558.804197	43851.784910
559.161345	43878.072007
559.518437	43248.230245
559.875474	43614.066780
560.232455	43859.923853
560.589381	44091.988329
560.946251	43867.278897
561.303065	44599.685454
561.659825	44467.246780
562.016528	44239.938633
562.373177	44042.617789
562.729770	44576.445734
563.086307	44164.865770
563.442789	44675.796794
563.799216	44795.897244
564.155587	44647.946940
564.511904	44738.992699
564.868164	44883.323454
565.224370	45164.771073
565.580520	44962.116689
565.936615	45229.597791
566.292654	44995.577347
566.648638	45292.256813
567.004567	45303.123020
567.360441	45374.989709
567.716260	45287.213139
568.072023	45613.474095
568.427732	45671.800245
568.783385	45272.384585
569.138982	45701.908536
569.494525	45706.190997
569.850013	45505.424524
570.205445	45521.896494
570.560823	45518.178643
570.916145	45429.063646
571.271412	45503.350089
571.626625	45300.937680
571.981782	45393.959571
572.336884	45126.397810
572.691931	45467.666282
573.046923	45099.891423
573.401860	44985.757180
573.756743	45008.079409
574.111570	45154.807233
574.466342	45023.911153
574.821059	45184.537438
575.175722	44748.845634
575.530330	44780.783864
575.884882	44538.606834
576.239380	44524.950348
576.593823	44528.191810
576.948211	44468.217202
577.302544	44049.254468
577.656823	44097.848671
578.011047	44333.502448
578.365216	44072.718519
578.719330	43896.242846
579.073389	43783.419302
579.427394	43870.966501
579.781344	43882.808171
580.135239	43561.739603
580.489080	43655.744519
580.842866	43145.947754
581.196597	43631.355417
581.550273	43589.435702
581.903895	43461.796207
582.257463	43899.317950
582.610975	43307.849451
582.964434	43590.315384
583.317837	43265.927216
583.671186	43121.593940
584.024481	43357.716545
584.377721	42918.770677
584.730906	43205.617372
585.084037	43235.453441
585.437113	42977.994152
585.790135	43013.604863
586.143103	42650.750171
586.496016	42783.405614
586.848874	42808.392093
587.201679	42830.132069
587.554428	42329.001047
587.907124	42536.474775
588.259765	42293.803711
588.612352	42563.066862
588.964884	41972.125164
589.317362	42271.640278
589.669786	42219.371075
590.022155	42014.060002
590.374470	42408.830239
590.726731	41971.139618
591.078937	41505.145439
591.431090	41601.345778
591.783188	41264.803388
592.135232	40968.653244
592.487222	41212.932436
592.839157	41304.991467
593.191038	40997.218942
593.542866	40761.741605
593.894639	40182.079488
594.246358	40462.710441
594.598022	40431.815729
594.949633	40071.121172
595.301190	40028.732630
595.652692	39889.493440
596.004141	40191.713133
596.355535	39249.178681
596.706876	39204.093122
597.058162	39030.884117
597.409395	39482.412705
597.760573	39573.408052
598.111698	39159.894805
598.462768	39169.956948
598.813785	39225.762522
599.164748	38685.318062
599.515657	39082.195501
599.866511	38575.657842
600.217312	39173.019449
600.568060	38166.651387
600.918753	38895.398066
601.269392	38863.346410
601.619978	38524.366622
601.970510	38744.443235
602.320988	38923.709186
602.671412	39219.942509
603.021783	38961.434661
603.372100	38635.831575
603.722363	38747.283925
604.072572	38822.510543
604.422728	38829.704270
604.772830	38647.716095
605.122878	38742.562884
605.472872	38691.259062
605.822813	38964.648396
606.172701	38805.370620
606.522534	39030.879076
606.872314	39299.703646
607.222041	39057.635000
607.571714	39452.763159
607.921333	38910.629912
608.270899	39193.231956
608.620411	39522.983911
608.969870	39322.895474
609.319276	39320.304321
609.668627	39384.818487
610.017926	39868.161797
610.367171	40014.347697
610.716362	40122.568667
611.065500	40070.339793
611.414585	40252.292679
611.763616	40541.241535
612.112594	40479.537812
612.461518	40688.181088
612.810389	40975.088277
613.159207	40862.741122
613.507971	40936.110075
613.856682	41392.440362
614.205340	41280.594802
614.553945	41963.199801
614.902496	41424.129055
615.250994	41883.973027
615.599439	41963.081334
615.947830	42187.374871
616.296169	42236.266502
616.644454	42364.127807
616.992686	42535.789178
617.340864	43044.751632
617.688990	42778.193061
618.037063	43374.498546
618.385082	43343.918907
618.733048	43629.550684
619.080961	43653.486083
619.428821	43661.786342
619.776628	43749.479734
620.124382	43572.033639
620.472083	43714.955392
620.819731	43829.087115
621.167326	43506.085265
621.514868	43502.753062
621.862357	43054.450812
622.209793	43082.220008
622.557176	42740.157555
622.904506	42503.175433
623.251783	42159.661128
623.599007	41929.630757
623.946179	41730.074162
624.293297	41676.779083
624.640363	41082.106932
624.987376	41089.174629
625.334336	40834.848418
625.681243	40493.852169
626.028097	40464.439557
626.374899	40301.385956
626.721647	40285.019850
627.068343	40170.114310
627.414987	39951.572729
627.761577	39734.125078
628.108115	40050.782637
628.454600	39519.790340
628.801032	39689.427688
629.147412	39664.000108
629.493739	39675.002426
629.840014	39339.954738
630.186236	39659.190847
630.532405	39289.568406
630.878521	39504.621508
631.224585	39376.558557
631.570597	39082.321530
631.916556	39244.268597
632.262462	39208.945232
632.608316	39221.238086
632.954117	39093.530536
633.299866	39097.069426
633.645562	39012.360397
633.991206	38525.553814
634.336797	38102.817776
634.682336	38099.263763
635.027823	37843.410081
635.373257	37678.292128
635.718639	37434.814480
636.063968	37292.744682
636.409245	36724.168063
636.754470	36776.472555
637.099642	36555.029790
637.444762	36071.678918
637.789829	36226.911168
638.134845	35879.578189
638.479808	35821.423438
638.824719	35730.009675
