Dividing Wavelength (nm)	Counts (n)	Blue Motor Position (mm): 14.000000	Red Motor Position (mm): 0.000000	
326.493990	1974.214149
326.888308	1974.214149
327.282561	1974.214149
327.676750	1949.769594
328.070874	1950.114913
328.464933	1958.800821
328.858929	1968.610906
329.252859	1979.782103
329.646726	1992.873980
330.040528	2012.768893
330.434265	2028.877900
330.827938	2047.368853
331.221547	2064.869218
331.615091	2088.083732
332.008571	2108.754983
332.401986	2130.000926
332.795338	2150.722589
333.188625	2169.435352
333.581847	2186.418999
333.975006	2207.435570
334.368100	2222.138095
334.761129	2240.376989
335.154095	2254.673702
335.546996	2285.840635
335.939833	2341.754593
336.332606	2354.239011
336.725315	2364.079343
337.117960	2372.800539
337.510540	2380.546272
337.903056	2392.531615
338.295508	2395.309291
338.687896	2404.965621
339.080220	2411.420819
339.472480	2419.809299
339.864676	2419.234607
340.256807	2423.007911
340.648875	2426.251893
341.040879	2428.933787
341.432818	2430.589806
341.824694	2428.797676
342.216506	2427.197110
342.608253	2427.723910
342.999937	2427.923036
343.391557	2426.420772
343.783113	2424.006059
344.174605	2422.579413
344.566033	2422.203847
344.957397	2421.283836
345.348697	2414.924421
345.739934	2420.164700
346.131106	2413.359143
346.522215	2416.688825
346.913260	2412.171951
347.304241	2410.538617
347.695159	2409.621127
348.086012	2407.080385
348.476802	2404.642988
348.867528	2404.622823
349.258191	2402.719787
349.648789	2399.251473
350.039324	2399.543860
350.429796	2402.029149
350.820203	2398.099570
351.210548	2398.381874
351.600828	2397.897924
351.991045	2397.446740
352.381198	2395.619322
352.771288	2397.633263
353.161314	2394.333828
353.551276	2394.598488
353.941175	2392.640000
354.331010	2392.645041
354.720782	2398.369272
355.110490	2399.624519
355.500135	2397.691236
355.889717	2393.960782
356.279235	2395.642007
356.668689	2397.335835
357.058080	2397.721483
357.447408	2396.204096
357.836672	2393.696122
358.225873	2398.336504
358.615010	2393.093704
359.004084	2400.264745
359.393095	2400.100908
359.782043	2400.005126
360.170927	2399.984961
360.559748	2401.023439
360.948505	2401.767009
361.337199	2403.922102
361.725830	2403.417987
362.114398	2403.670045
362.502903	2403.538975
362.891344	2404.559808
363.279722	2403.183573
363.668037	2406.447721
364.056289	2406.425035
364.444478	2405.651218
364.832603	2408.466703
365.220665	2405.121897
365.608665	2405.900755
365.996601	2408.459141
366.384474	2407.892011
366.772284	2408.073493
367.160031	2409.651374
367.547715	2406.591393
367.935336	2407.871847
368.322893	2408.496950
368.710388	2408.136507
369.097820	2409.101888
369.485189	2408.565005
369.872495	2410.599111
370.259738	2413.850655
370.646918	2408.534758
371.034035	2411.778741
371.421090	2412.673546
371.808081	2409.290931
372.195010	2411.803947
372.581875	2412.938206
372.968678	2412.058525
373.355418	2413.404513
373.742096	2412.113978
374.128710	2412.340829
374.515262	2415.093299
374.901751	2413.565830
375.288177	2415.025244
375.674540	2414.316962
376.060841	2414.480799
376.447079	2414.455593
376.833254	2415.357960
377.219367	2411.423339
377.605417	2413.044070
377.991404	2410.667166
378.377329	2411.574574
378.763191	2412.550037
379.148991	2416.945923
379.534727	2417.349216
379.920402	2418.228897
380.306013	2417.434915
380.691563	2419.224525
381.077049	2418.007086
381.462474	2415.388207
381.847835	2415.844431
382.233134	2420.734351
382.618371	2417.061870
383.003545	2419.471542
383.388657	2418.997673
383.773706	2418.617066
384.158693	2420.217632
384.543618	2420.532704
384.928480	2419.128743
385.313280	2421.021696
385.698017	2418.632189
386.082692	2421.654361
386.467305	2421.883734
386.851856	2422.808785
387.236344	2420.958682
387.620770	2421.535894
388.005133	2422.352561
388.389435	2422.423137
388.773674	2422.919691
389.157851	2425.677202
389.541965	2425.692325
389.926018	2423.917839
390.310008	2423.985895
390.693936	2425.062181
391.077802	2423.847263
391.461606	2424.767274
391.845348	2424.424475
392.229027	2424.086718
392.612645	2426.680392
392.996200	2427.378591
393.379694	2424.691656
393.763125	2427.308015
394.146494	2426.040165
394.529801	2426.796338
394.913047	2425.732655
395.296230	2428.654003
395.679351	2427.456729
396.062410	2428.192738
396.445408	2425.115113
396.828343	2428.094435
397.211217	2425.115113
397.594028	2426.219126
397.976778	2424.187541
398.359466	2429.442944
398.742092	2423.053281
399.124656	2427.739034
399.507158	2427.668458
399.889598	2428.323808
400.271977	2431.214909
400.654294	2430.428489
401.036549	2428.432193
401.418742	2430.304981
401.800874	2429.841195
402.182944	2429.384971
402.564952	2431.340938
402.946898	2430.821699
403.328783	2433.664910
403.710606	2431.290527
404.092367	2432.916299
404.474067	2430.325146
404.855705	2432.916299
405.237282	2432.515527
405.618797	2433.322112
406.000250	2434.494180
406.381642	2433.586772
406.762972	2433.155754
407.144240	2432.029056
407.525447	2435.328491
407.906593	2435.482246
408.287677	2433.175918
408.668700	2435.822524
409.049661	2433.876639
409.430560	2433.075095
409.811399	2437.138265
410.192176	2431.381267
410.572891	2434.237081
410.953545	2433.685075
411.334138	2437.304623
411.714669	2434.973090
412.095139	2436.394695
412.475547	2434.496701
412.855894	2437.516352
413.236180	2436.024170
413.616405	2436.815631
413.996568	2434.007709
414.376670	2437.045004
414.756711	2435.434355
415.136691	2436.485436
415.516609	2436.077102
415.896466	2437.733121
416.276262	2437.445776
416.655997	2436.760179
417.035670	2432.588624
417.415283	2437.566763
417.794834	2431.484611
418.174324	2438.012905
418.553753	2438.572473
418.933121	2437.576846
419.312428	2438.390992
419.691674	2439.681527
420.070859	2439.222782
420.449983	2442.567588
420.829045	2439.580704
421.208047	2440.732608
421.586988	2439.547937
421.965867	2440.946857
422.344686	2438.769078
422.723444	2440.772937
423.102141	2438.804367
423.480777	2441.181271
423.859352	2440.876281
424.237866	2441.970211
424.616319	2441.251847
424.994712	2440.762855
425.373044	2441.599686
425.751314	2441.445931
426.129524	2440.777978
426.507673	2441.168668
426.885762	2439.437031
427.263789	2441.115736
427.641756	2440.362083
428.019662	2441.738318
428.397508	2443.722012
428.775292	2442.325613
429.153016	2438.567432
429.530679	2444.266457
429.908282	2442.055911
430.285824	2440.725046
430.663305	2443.066662
431.040726	2440.301589
431.418086	2443.699327
431.795385	2442.814604
432.172624	2444.004317
432.549802	2443.225458
432.926920	2443.699327
433.303977	2445.824173
433.680974	2443.792588
434.057910	2442.653287
434.434786	2444.047167
434.811601	2445.773762
435.188355	2442.401230
435.565050	2445.231838
435.941683	2443.991714
436.318257	2444.321909
436.694770	2442.902825
437.071222	2443.318720
437.447614	2441.672783
437.823946	2445.685542
438.200218	2445.491457
438.576429	2442.872578
438.952580	2447.147476
439.328670	2447.061777
439.704700	2445.287290
440.080670	2445.388113
440.456580	2447.593618
440.832429	2449.536983
441.208218	2446.605552
441.583947	2449.229473
441.959616	2446.101437
442.335224	2449.816767
442.710773	2448.314503
443.086261	2448.937086
443.461689	2449.027827
443.837057	2447.863320
444.212365	2449.786520
444.587612	2449.642847
444.962800	2449.073197
445.337927	2449.887343
445.712995	2447.971705
446.088002	2450.772066
446.462949	2451.346757
446.837837	2449.078238
447.212664	2450.736778
447.587431	2454.560493
447.962139	2455.601491
448.336786	2460.067953
448.711374	2454.535287
449.085901	2452.511264
449.460369	2455.412448
449.834776	2454.978909
450.209124	2454.474793
450.583412	2457.224743
450.957640	2455.840946
451.331808	2457.635597
451.705917	2456.587037
452.079965	2456.239197
452.453954	2452.080245
452.827883	2456.377829
453.201752	2453.993363
453.575562	2459.367233
453.949311	2460.781277
454.323001	2457.194496
454.696632	2457.796914
455.070202	2458.442181
455.443713	2459.871348
455.817164	2459.757923
456.190556	2457.769187
456.563888	2464.161370
456.937160	2458.152315
457.310373	2462.049127
457.683526	2462.964096
458.056619	2461.015690
458.429653	2462.313788
458.802628	2462.500310
459.175542	2462.865794
459.548398	2465.668675
459.921194	2465.424179
460.293930	2469.590693
460.666607	2466.142544
461.039224	2468.590024
461.411782	2467.884263
461.784280	2472.426342
462.156719	2469.815024
462.529099	2470.321660
462.901419	2470.077164
463.273680	2467.569190
463.645882	2466.737400
464.018024	2471.269397
464.390106	2469.890642
464.762130	2472.963225
465.134094	2477.921200
465.505999	2482.470841
465.877845	2486.339927
466.249631	2489.760350
466.621358	2488.089207
466.993026	2485.374546
467.364634	2484.693990
467.736184	2481.016468
468.107674	2480.469503
468.479105	2482.405306
468.850477	2481.432363
469.221790	2478.624441
469.593043	2479.373052
469.964238	2475.829121
470.335373	2477.359111
470.706449	2478.475727
471.077467	2483.726088
471.448425	2488.079125
471.819324	2489.674650
472.190164	2486.057622
472.560945	2485.437560
472.931667	2483.403455
473.302330	2479.806591
473.672934	2481.505460
474.043479	2482.034781
474.413965	2479.065542
474.784393	2477.941364
475.154761	2479.695686
475.525070	2476.234934
475.895321	2477.848103
476.265513	2479.279791
476.635645	2485.309011
477.005719	2484.968733
477.375734	2482.470841
477.745691	2485.508136
478.115588	2487.015441
478.485427	2490.471152
478.855207	2493.374857
479.224928	2497.737976
479.594591	2501.357524
479.964194	2501.594458
480.333739	2498.705877
480.703226	2501.017246
481.072653	2502.343070
481.442022	2508.518483
481.811333	2506.350787
482.180584	2504.326764
482.549777	2506.023112
482.918912	2506.315499
483.287988	2504.510766
483.657005	2504.795591
484.025964	2505.753410
484.394864	2507.911024
484.763706	2509.556961
485.132489	2508.546209
485.501213	2511.331447
485.869879	2511.918741
486.238487	2513.731036
486.607036	2514.104082
486.975527	2514.998886
487.343959	2516.428053
487.712333	2516.208763
488.080648	2518.326048
488.448905	2524.393077
488.817104	2522.525329
489.185244	2528.665454
489.553326	2532.496731
489.921350	2541.119625
490.289315	2549.576161
490.657222	2554.140925
491.025070	2557.962120
491.392861	2560.570917
491.760593	2559.623180
492.128267	2557.339537
492.495883	2553.230997
492.863440	2551.466593
493.230939	2552.618497
493.598380	2554.798796
493.965763	2550.967519
494.333088	2553.599001
494.700354	2553.833415
495.067563	2558.148643
495.434713	2558.693087
495.801805	2566.035528
496.168839	2566.844633
496.535815	2568.936712
496.902733	2571.890828
497.269593	2573.262022
497.636395	2576.011971
498.003139	2579.873495
498.369825	2579.069431
498.736453	2585.766604
499.103023	2585.804413
499.469535	2589.378591
499.835989	2593.696339
500.202385	2594.669282
500.568723	2597.031062
500.935003	2600.917792
501.301226	2603.158585
501.667390	2608.681169
502.033497	2615.950513
502.399546	2615.438836
502.765537	2613.059411
503.131470	2621.755401
503.497345	2623.681122
503.863163	2619.996039
504.228923	2626.315125
504.594625	2632.369551
504.960269	2632.845940
505.325856	2637.672845
505.691385	2639.616209
506.056856	2642.313227
506.422270	2646.313382
506.787625	2648.496202
507.152924	2653.272695
507.518164	2655.266472
507.883347	2655.120278
508.248472	2660.905002
508.613540	2662.923984
508.978550	2670.246260
509.343503	2669.220385
509.708398	2676.434277
510.073236	2678.980059
510.438016	2684.621110
510.802738	2684.527849
511.167403	2688.601101
511.532010	2695.237780
511.896561	2699.623584
512.261053	2708.856457
512.625488	2705.136086
512.989866	2705.249512
513.354186	2710.149513
513.718449	2709.567260
514.082655	2719.979763
514.446803	2718.905998
514.810894	2730.735065
515.174927	2731.488718
515.538904	2731.639952
515.902822	2739.796539
516.266684	2739.972980
516.630488	2742.937178
516.994235	2743.312744
517.357925	2749.372211
517.721558	2756.775145
518.085133	2757.806061
518.448651	2762.935435
518.812112	2762.156577
519.175516	2767.051537
519.538863	2769.998092
519.902152	2773.428597
520.265385	2778.966305
520.628560	2783.697427
520.991678	2779.344391
521.354739	2788.496606
521.717743	2796.242339
522.080690	2795.254273
522.443580	2802.553863
522.806413	2806.647280
523.169189	2808.583083
523.531908	2811.995945
523.894569	2813.777992
524.257174	2818.473827
524.619722	2824.170331
524.982213	2827.494972
525.344647	2828.331804
525.707025	2833.012515
526.069345	2837.836899
526.431608	2839.024091
526.793815	2847.841069
527.155964	2848.826615
527.518057	2854.467666
527.880093	2853.272912
528.242072	2859.813809
528.603995	2863.761033
528.965860	2864.638194
529.327669	2871.438710
529.689421	2874.992724
530.051117	2877.465410
530.412755	2884.742315
530.774337	2890.753891
531.135862	2891.802451
531.497331	2899.006260
531.858743	2897.138513
532.220098	2910.076634
532.581396	2913.625606
532.942638	2913.862540
533.303824	2926.165476
533.664953	2930.679830
534.026025	2939.953032
534.387040	2948.298662
534.747999	2954.123716
535.108902	2959.399283
535.469748	2963.817854
535.830537	2973.406129
536.191270	2983.110350
536.551947	2987.773418
536.912567	2998.914368
537.273131	3009.483147
537.633638	3012.583456
537.994089	3030.461908
538.354483	3031.502907
538.714821	3049.240206
539.075103	3062.047258
539.435328	3076.699371
539.795497	3081.070052
540.155609	3096.397680
540.515665	3119.400465
540.875665	3120.975826
541.235609	3137.430152
541.595496	3155.258192
541.955328	3176.216789
542.315102	3183.380269
542.674821	3195.494162
543.034483	3210.461347
543.394090	3224.132957
543.753640	3242.298755
544.113134	3278.224537
544.472571	3277.244033
544.831953	3321.938903
545.191278	3326.327227
545.550548	3342.085874
545.909761	3373.378837
546.268918	3396.316087
546.628019	3426.172321
546.987064	3441.068930
547.346053	3451.751135
547.704986	3498.152436
548.063863	3514.263963
548.422684	3546.015671
548.781449	3568.355544
549.140158	3606.146554
549.498811	3632.751243
549.857408	3646.967297
550.215949	3704.602809
550.574434	3728.379411
550.932864	3758.583485
551.291237	3813.350580
551.649555	3843.499201
552.007817	3881.980848
552.366022	3913.057041
552.724173	3954.442394
553.082267	4011.674613
553.440305	4066.101431
553.798288	4082.916200
554.156215	4134.182214
554.514086	4199.376936
554.871902	4229.964137
555.229661	4281.716622
555.587365	4324.415195
555.945014	4383.870564
556.302606	4431.335548
556.660143	4495.181761
557.017625	4551.861974
557.375050	4597.469293
557.732421	4670.271117
558.089735	4733.005756
558.446994	4785.932830
558.804197	4869.401735
559.161345	4929.986322
559.518437	4951.174291
559.875474	5026.055590
560.232455	5104.286736
560.589381	5183.765568
560.946251	5231.432198
561.303065	5343.980999
561.659825	5403.138939
562.016528	5459.259584
562.373177	5513.643552
562.729770	5622.487105
563.086307	5666.826573
563.442789	5773.908243
563.799216	5862.201532
564.155587	5925.662097
564.511904	6013.337845
564.868164	6102.578871
565.224370	6217.111366
565.580520	6279.997239
565.936615	6389.163426
566.292654	6453.896882
566.648638	6571.849800
567.004567	6660.974879
567.360441	6763.693430
567.716260	6854.713983
568.072023	6980.190823
568.427732	7078.866369
568.783385	7141.696790
569.138982	7289.092566
569.494525	7396.181798
569.850013	7472.464537
570.205445	7584.055519
570.560823	7690.675923
570.916145	7791.433465
571.271412	7913.220180
571.626625	7995.282603
571.981782	8119.562169
572.336884	8197.828603
572.691931	8361.459415
573.046923	8427.256555
573.401860	8526.947893
573.756743	8643.617837
574.111570	8782.942727
574.466342	8881.842603
574.821059	9033.820789
575.175722	9085.306093
575.530330	9208.574908
575.884882	9292.000963
576.239380	9413.442359
576.593823	9539.158653
576.948211	9654.656529
577.302544	9715.044511
577.656823	9847.503349
578.011047	10027.747284
578.365216	10115.347415
578.719330	10218.111336
579.073389	10330.944962
579.427394	10489.829528
579.781344	10625.199632
580.135239	10697.938441
580.489080	10861.849038
580.842866	10912.472305
581.196597	11144.012501
581.550273	11288.025663
581.903895	11419.461147
582.257463	11667.233859
582.610975	11686.027280
582.964434	11902.406206
583.317837	11981.824544
583.671186	12094.254877
584.024481	12306.487454
584.377721	12353.680216
584.730906	12580.441398
585.084037	12751.870876
585.437113	12834.805419
585.790135	13005.098116
586.143103	13062.214389
586.496016	13255.025921
586.848874	13428.355914
587.201679	13596.259104
587.554428	13624.061068
587.907124	13841.896887
588.259765	13942.296507
588.612352	14183.520760
588.964884	14169.294624
589.317362	14412.510132
589.669786	14574.958794
590.022155	14667.579914
590.374470	14961.416169
590.726731	14979.967615
591.078937	14989.485313
591.431090	15179.821638
591.783188	15224.503906
592.135232	15287.742660
592.487222	15532.069743
592.839157	15730.958386
593.191038	15790.444001
593.542866	15863.139960
593.894639	15814.099615
594.246358	16078.598875
594.598022	16236.979326
594.949633	16251.797798
595.301190	16403.665078
595.652692	16497.851476
596.004141	16786.318902
596.355535	16576.737972
596.706876	16713.471708
597.058162	16807.590051
597.409395	17155.104512
597.760573	17344.672061
598.111698	17339.890527
598.462768	17508.514602
598.813785	17699.987707
599.164748	17630.954147
599.515657	17970.937124
599.866511	17907.017814
600.217312	18336.826591
600.568060	18055.497438
600.918753	18532.771199
601.269392	18687.821968
601.619978	18692.404377
601.970510	18947.249827
602.320988	19196.308033
602.671412	19494.540174
603.021783	19532.870587
603.372100	19536.722029
603.722363	19753.819319
604.072572	19947.407189
604.422728	20106.894173
604.772830	20179.217087
605.122878	20388.714838
605.472872	20510.073055
605.822813	20803.203548
606.172701	20889.689583
606.522534	21170.033190
606.872314	21467.574693
607.222041	21499.389415
607.571714	21858.332172
607.921333	21728.991287
608.270899	22038.220705
608.620411	22374.536243
608.969870	22427.508688
609.319276	22576.139547
609.668627	22770.866717
610.017926	23198.553168
610.367171	23452.770995
610.716362	23651.611747
611.065500	23788.721049
611.414585	24046.684453
611.763616	24378.518405
612.112594	24494.696837
612.461518	24779.509426
612.810389	25096.265287
613.159207	25161.994371
613.507971	25372.467586
613.856682	25822.912326
614.205340	25888.459929
614.553945	26475.114125
614.902496	26290.028162
615.250994	26734.010143
615.599439	26936.072192
615.947830	27222.071973
616.296169	27408.647597
616.644454	27639.411456
616.992686	27901.574141
617.340864	28402.188444
617.688990	28369.425985
618.037063	28899.951975
618.385082	29038.583706
618.733048	29365.068993
619.080961	29526.194353
619.428821	29675.687249
619.776628	29898.647402
620.124382	29910.448743
620.472083	30147.035134
620.819731	30374.776821
621.167326	30280.640834
621.514868	30418.791135
621.862357	30240.430071
622.209793	30409.374260
622.557176	30298.703289
622.904506	30272.413671
623.251783	30151.680557
623.599007	30136.577260
623.946179	30088.817369
624.293297	30188.468378
624.640363	29899.355684
624.987376	30025.228254
625.334336	29951.884507
625.681243	29808.647682
626.028097	29912.382025
626.374899	29928.574212
626.721647	30023.453768
627.068343	30044.805575
627.414987	29998.003503
627.761577	29939.032085
628.108115	30288.457143
628.454600	29984.231071
628.801032	30238.700955
629.147412	30308.331892
629.493739	30428.742373
629.840014	30266.747414
630.186236	30622.279831
630.532405	30430.640367
630.878521	30683.673523
631.224585	30691.807424
631.570597	30551.431454
631.916556	30778.656423
632.262462	30833.789002
632.608316	30935.307758
632.954117	30946.829315
633.299866	31021.272034
633.645562	31050.699770
633.991206	30764.841141
634.336797	30521.875169
634.682336	30608.784662
635.027823	30510.850166
635.373257	30461.416611
635.718639	30353.414931
636.063968	30336.297693
636.409245	29962.160899
636.754470	30087.020197
637.099642	29970.640120
637.444762	29670.399079
637.789829	29857.821617
638.134845	29670.338585
638.479808	29695.367914
638.824719	29686.150164
639.169577	29447.703587
639.514383	29573.482896
639.859137	29389.027077
640.203839	29667.087041
640.548489	29434.561299
640.893086	29553.661079
641.237632	29413.030531
641.582125	29577.228474
