Dividing Wavelength (nm)	Counts (n)	Blue Motor Position (mm): 7.200000	Red Motor Position (mm): 0.000000	
326.493990	1975.169447
326.888308	1975.169447
327.282561	1975.169447
327.676750	1951.995263
328.070874	1952.612804
328.464933	1960.938270
328.858929	1967.030504
329.252859	1982.852166
329.646726	1995.296254
330.040528	2011.604387
330.434265	2028.756913
330.827938	2047.668801
331.221547	2067.591441
331.615091	2089.220512
332.008571	2110.030395
332.401986	2132.975207
332.795338	2151.161169
333.188625	2172.391989
333.581847	2189.521829
333.975006	2208.148893
334.368100	2225.916440
334.761129	2241.523852
335.154095	2256.917015
335.546996	2274.729932
335.939833	2301.730352
336.332606	2309.458441
336.725315	2325.113744
337.117960	2332.942656
337.510540	2341.235354
337.903056	2348.056036
338.295508	2353.752539
338.687896	2361.165556
339.080220	2369.554036
339.472480	2375.074100
339.864676	2375.300952
340.256807	2380.422764
340.648875	2381.937631
341.040879	2383.029040
341.432818	2385.156407
341.824694	2384.962323
342.216506	2386.250338
342.608253	2385.794113
342.999937	2385.789072
343.391557	2381.625079
343.783113	2383.109699
344.174605	2381.259595
344.566033	2378.345808
344.957397	2376.427649
345.348697	2377.047711
345.739934	2373.211393
346.131106	2372.349356
346.522215	2370.022863
346.913260	2366.559591
347.304241	2368.034128
347.695159	2362.866946
348.086012	2364.228057
348.476802	2362.067923
348.867528	2364.401977
349.258191	2356.903261
349.648789	2361.100021
350.039324	2358.342510
350.429796	2358.352592
350.820203	2353.472755
351.210548	2356.641121
351.600828	2353.850842
351.991045	2355.486696
352.381198	2353.722293
352.771288	2354.266737
353.161314	2354.160873
353.551276	2354.927128
353.941175	2352.754391
354.331010	2355.123733
354.720782	2353.301356
355.110490	2354.372601
355.500135	2353.944103
355.889717	2354.808661
356.279235	2353.001408
356.668689	2356.772191
357.058080	2355.602643
357.447408	2352.557786
357.836672	2349.954030
358.225873	2353.180368
358.615010	2354.420492
359.004084	2354.997704
359.393095	2357.147757
359.782043	2357.896368
360.170927	2357.863600
360.559748	2360.396780
360.948505	2360.827799
361.337199	2360.195134
361.725830	2361.710001
362.114398	2361.291585
362.502903	2361.977182
362.891344	2363.837368
363.279722	2362.806452
363.668037	2364.306195
364.056289	2360.626153
364.444478	2363.706298
364.832603	2366.383150
365.220665	2362.788808
365.608665	2363.290403
365.996601	2362.531709
366.384474	2365.931967
366.772284	2365.206041
367.160031	2366.678058
367.547715	2367.736700
367.935336	2364.951463
368.322893	2367.020856
368.710388	2365.281658
369.097820	2369.596886
369.485189	2370.337936
369.872495	2367.272914
370.259738	2368.260980
370.646918	2367.194776
371.034035	2369.002030
371.421090	2370.491691
371.808081	2366.647811
372.195010	2371.096629
372.581875	2369.962370
372.968678	2367.444313
373.355418	2370.824407
373.742096	2368.903727
374.128710	2370.756351
374.515262	2368.697040
374.901751	2369.097812
375.288177	2370.970600
375.674540	2371.991434
376.060841	2370.179139
376.447079	2372.908924
376.833254	2369.937164
377.219367	2367.865250
377.605417	2369.017153
377.991404	2367.799715
378.377329	2369.115456
378.763191	2367.835003
379.148991	2369.803573
379.534727	2373.607124
379.920402	2371.941022
380.306013	2373.891949
380.691563	2372.636702
381.077049	2375.684079
381.462474	2372.230889
381.847835	2374.872453
382.233134	2375.668956
382.618371	2375.386651
383.003545	2374.322968
383.388657	2374.658204
383.773706	2377.259440
384.158693	2374.224665
384.543618	2374.416229
384.928480	2377.082999
385.313280	2376.982176
385.698017	2374.080992
386.082692	2378.365973
386.467305	2377.539224
386.851856	2380.024513
387.236344	2377.854296
387.620770	2377.440921
388.005133	2378.587784
388.389435	2377.869419
388.773674	2377.584594
389.157851	2376.694831
389.541965	2377.234234
389.926018	2376.740201
390.310008	2377.970242
390.693936	2379.550644
391.077802	2377.146014
391.461606	2382.499719
391.845348	2377.864378
392.229027	2381.504091
392.612645	2379.694317
392.996200	2377.937475
393.379694	2380.826056
393.763125	2382.217415
394.146494	2381.993083
394.529801	2381.856972
394.913047	2382.789586
395.296230	2382.514843
395.679351	2381.841849
396.062410	2380.263968
396.445408	2382.766900
396.828343	2382.192209
397.211217	2376.155427
397.594028	2383.334030
397.976778	2378.582743
398.359466	2381.811602
398.742092	2378.900335
399.124656	2381.609956
399.507158	2383.500388
399.889598	2384.266644
400.271977	2383.686911
400.654294	2386.157076
401.036549	2384.674977
401.418742	2383.228166
401.800874	2383.601211
402.182944	2385.053064
402.564952	2386.383928
402.946898	2389.459032
403.328783	2386.368805
403.710606	2384.725389
404.092367	2385.968033
404.474067	2385.015255
404.855705	2383.059287
405.237282	2388.193703
405.618797	2385.942827
406.000250	2387.094731
406.381642	2384.828732
406.762972	2386.789741
407.144240	2389.171686
407.525447	2387.800493
407.906593	2386.225132
408.287677	2386.242776
408.668700	2385.191695
409.049661	2387.772766
409.430560	2385.927704
409.811399	2387.213198
410.192176	2387.918960
410.572891	2388.211347
410.953545	2389.945503
411.334138	2391.341903
411.714669	2388.327293
412.095139	2391.679660
412.475547	2390.452139
412.855894	2390.058929
413.236180	2389.333003
413.616405	2388.380225
413.996568	2387.762684
414.376670	2390.109341
414.756711	2391.641852
415.136691	2389.234701
415.516609	2390.706718
415.896466	2390.063971
416.276262	2392.793755
416.655997	2386.310832
417.035670	2389.196892
417.415283	2391.397356
417.794834	2384.367467
418.174324	2391.956924
418.553753	2391.694784
418.933121	2390.217726
419.312428	2388.221429
419.691674	2391.336862
420.070859	2391.614125
420.449983	2391.558673
420.829045	2390.300905
421.208047	2393.426420
421.586988	2390.905843
421.965867	2391.432644
422.344686	2394.802655
422.723444	2395.223592
423.102141	2392.818961
423.480777	2392.798797
423.859352	2392.972716
424.237866	2391.972047
424.616319	2393.333159
424.994712	2393.575134
425.373044	2395.621843
425.751314	2391.659496
426.129524	2395.392470
426.507673	2392.650083
426.885762	2395.253838
427.263789	2393.638149
427.641756	2392.924825
428.019662	2391.961965
428.397508	2392.874414
428.775292	2394.371637
429.153016	2395.180742
429.530679	2394.207799
429.908282	2395.619322
430.285824	2392.226626
430.663305	2395.707542
431.040726	2396.244425
431.418086	2394.563200
431.795385	2395.352141
432.172624	2393.779301
432.549802	2395.475649
432.926920	2396.176370
433.303977	2396.204096
433.680974	2395.203427
434.057910	2394.331307
434.434786	2394.333828
434.811601	2399.979920
435.188355	2396.408263
435.565050	2395.173180
435.941683	2395.337017
436.318257	2395.697460
436.694770	2392.902140
437.071222	2392.345093
437.447614	2393.401214
437.823946	2391.122613
438.200218	2396.899775
438.576429	2395.556308
438.952580	2398.709549
439.328670	2397.774415
439.704700	2394.883314
440.080670	2395.992368
440.456580	2397.335835
440.832429	2397.320712
441.208218	2397.640825
441.583947	2398.575959
441.959616	2400.652914
442.335224	2394.830382
442.710773	2396.115876
443.086261	2396.476318
443.461689	2397.724004
443.837057	2398.543191
444.212365	2397.618140
444.587612	2395.999929
444.962800	2396.002450
445.337927	2398.850702
445.712995	2393.300391
446.088002	2400.698285
446.462949	2400.191649
446.837837	2396.521689
447.212664	2398.112173
447.587431	2399.001936
447.962139	2396.012532
448.336786	2401.797256
448.711374	2398.601165
449.085901	2399.395146
449.460369	2399.891700
449.834776	2400.960425
450.209124	2399.932029
450.583412	2399.213665
450.957640	2400.315157
451.331808	2400.478994
451.705917	2400.728532
452.079965	2399.183418
452.453954	2399.853891
452.827883	2400.410939
453.201752	2398.086967
453.575562	2396.849364
453.949311	2397.842471
454.323001	2398.880949
454.696632	2399.790877
455.070202	2399.080074
455.443713	2400.713408
455.817164	2399.564025
456.190556	2395.994888
456.563888	2397.784498
456.937160	2398.124776
457.310373	2403.002092
457.683526	2399.735424
458.056619	2402.805487
458.429653	2401.986299
458.802628	2401.824983
459.175542	2400.521844
459.548398	2400.801628
459.921194	2403.367576
460.293930	2401.981258
460.666607	2401.807338
461.039224	2405.436969
461.411782	2403.932185
461.784280	2403.395302
462.156719	2404.012843
462.529099	2406.911507
462.901419	2406.190622
463.273680	2405.807494
463.645882	2405.857906
464.018024	2403.380178
464.390106	2403.672565
464.762130	2403.486043
465.134094	2404.869839
465.505999	2405.820097
465.877845	2405.386558
466.249631	2407.617268
466.621358	2406.195663
466.993026	2408.650705
467.364634	2409.343863
467.736184	2404.902607
468.107674	2403.980076
468.479105	2407.309758
468.850477	2402.687020
469.221790	2404.884963
469.593043	2404.433780
469.964238	2404.388409
470.335373	2404.688358
470.706449	2408.799419
471.077467	2405.358831
471.448425	2409.963925
471.819324	2405.477298
472.190164	2409.341343
472.560945	2407.219017
472.931667	2409.492577
473.302330	2407.637433
473.672934	2406.908986
474.043479	2403.818759
474.413965	2408.254974
474.784393	2404.068296
475.154761	2406.679614
475.525070	2403.458316
475.895321	2403.155847
476.265513	2404.375806
476.635645	2407.017371
477.005719	2408.529717
477.375734	2408.731363
477.745691	2408.958215
478.115588	2409.578277
478.485427	2409.953843
478.855207	2410.503329
479.224928	2410.218504
479.594591	2412.139183
479.964194	2409.268246
480.333739	2410.851168
480.703226	2409.835376
481.072653	2409.694224
481.442022	2411.829152
481.811333	2412.739081
482.180584	2412.229924
482.549777	2412.567681
482.918912	2411.614903
483.287988	2410.692372
483.657005	2407.929820
484.025964	2413.069276
484.394864	2410.846127
484.763706	2411.879564
485.132489	2410.689852
485.501213	2409.585839
485.869879	2410.543658
486.238487	2412.534914
486.607036	2409.845458
486.975527	2410.808319
487.343959	2408.295303
487.712333	2409.669018
488.080648	2410.644481
488.448905	2411.781261
488.817104	2411.042732
489.185244	2411.403175
489.553326	2412.671025
489.921350	2413.865778
490.289315	2413.578433
490.657222	2413.026426
491.025070	2411.294790
491.392861	2413.381828
491.760593	2414.319482
492.128267	2414.604308
492.495883	2414.417785
492.863440	2413.046591
493.230939	2411.874523
493.598380	2413.613721
493.965763	2405.230282
494.333088	2409.444687
494.700354	2410.178174
495.067563	2411.448545
495.434713	2406.853533
495.801805	2412.948288
496.168839	2412.204718
496.535815	2413.318813
496.902733	2411.156158
497.269593	2411.534245
497.636395	2412.396282
498.003139	2412.489543
498.369825	2410.031981
498.736453	2413.530542
499.103023	2413.749832
499.469535	2413.225552
499.835989	2411.327558
500.202385	2414.589184
500.568723	2410.455438
500.935003	2413.192784
501.301226	2412.355953
501.667390	2412.154307
502.033497	2411.816549
502.399546	2412.620613
502.765537	2412.688669
503.131470	2411.967784
503.497345	2413.875861
503.863163	2411.312434
504.228923	2412.872671
504.594625	2410.732701
504.960269	2411.156158
505.325856	2410.468041
505.691385	2415.191602
506.056856	2413.354101
506.422270	2414.546334
506.787625	2409.812691
507.152924	2412.116498
507.518164	2414.044739
507.883347	2412.842424
508.248472	2415.592374
508.613540	2413.903587
508.978550	2414.884092
509.343503	2411.788823
509.708398	2413.896025
510.073236	2415.373083
510.438016	2415.491551
510.802738	2413.109605
511.167403	2413.417116
511.532010	2412.439132
511.896561	2413.210428
512.261053	2418.783424
512.625488	2412.628175
512.989866	2410.765469
513.354186	2414.561458
513.718449	2412.406364
514.082655	2417.046747
514.446803	2416.033475
514.810894	2413.916190
515.174927	2418.198650
515.538904	2418.672519
515.902822	2419.214443
516.266684	2422.115627
516.630488	2420.222673
516.994235	2419.597570
517.357925	2423.300298
517.721558	2420.749474
518.085133	2421.593867
518.448651	2424.031265
518.812112	2424.119485
519.175516	2424.109403
519.538863	2425.044537
519.902152	2426.745927
520.265385	2428.059147
520.628560	2428.109559
520.991678	2428.843047
521.354739	2428.890938
521.717743	2428.908582
522.080690	2431.575352
522.443580	2433.566608
522.806413	2435.636001
523.169189	2434.572318
523.531908	2436.861002
523.894569	2437.458378
524.257174	2437.221444
524.619722	2436.422421
524.982213	2438.673297
525.344647	2440.538523
525.707025	2442.602876
526.069345	2445.408278
526.431608	2443.003648
526.793815	2447.381890
527.155964	2446.466920
527.518057	2447.495316
527.880093	2447.152517
528.242072	2448.717796
528.603995	2447.092023
528.965860	2453.055708
529.327669	2450.812395
529.689421	2453.668209
530.051117	2454.920935
530.412755	2453.491768
530.774337	2457.801955
531.135862	2454.767180
531.497331	2454.832715
531.858743	2456.017386
532.220098	2458.290947
532.581396	2460.798921
532.942638	2462.497790
533.303824	2464.917543
533.664953	2465.174642
534.026025	2464.947790
534.387040	2467.387709
534.747999	2464.357975
535.108902	2467.327215
535.469748	2470.200673
535.830537	2470.858543
536.191270	2468.509366
536.551947	2470.387195
536.912567	2472.857361
537.273131	2472.713688
537.633638	2472.491877
537.994089	2476.063535
538.354483	2473.379120
538.714821	2478.367342
539.075103	2480.477065
539.435328	2478.750470
539.795497	2481.039153
540.155609	2481.644092
540.515665	2482.816160
540.875665	2480.527476
541.235609	2482.337251
541.595496	2486.377735
541.955328	2485.369505
542.315102	2486.649958
542.674821	2487.133908
543.034483	2487.612818
543.394090	2487.769094
543.753640	2490.181286
544.113134	2494.526761
544.472571	2493.309322
544.831953	2493.921822
545.191278	2490.571975
545.550548	2493.276554
545.909761	2496.586072
546.268918	2494.579693
546.628019	2496.427276
546.987064	2495.197234
547.346053	2496.639004
547.704986	2497.755620
548.063863	2496.407111
548.422684	2498.206803
548.781449	2498.811741
549.140158	2499.169663
549.498811	2502.653101
549.857408	2501.060096
550.215949	2501.886845
550.574434	2497.997595
550.932864	2500.442555
551.291237	2498.501710
551.649555	2501.861639
552.007817	2502.955570
552.366022	2503.129490
552.724173	2503.835251
553.082267	2507.013699
553.440305	2506.262567
553.798288	2508.904131
554.156215	2506.375993
554.514086	2509.234327
554.871902	2507.099398
555.229661	2507.951353
555.587365	2506.076044
555.945014	2507.298524
556.302606	2508.347084
556.660143	2509.201559
557.017625	2508.004285
557.375050	2508.417660
557.732421	2507.207783
558.089735	2511.356653
558.446994	2509.015037
558.804197	2509.917403
559.161345	2510.209790
559.518437	2506.186949
559.875474	2512.669873
560.232455	2509.093175
560.589381	2509.927486
560.946251	2509.002434
561.303065	2510.976046
561.659825	2508.082423
562.016528	2509.332629
562.373177	2506.771723
562.729770	2506.960767
563.086307	2506.781806
563.442789	2509.367918
563.799216	2507.653925
564.155587	2505.133348
564.511904	2504.173008
564.868164	2504.782988
565.224370	2508.720129
565.580520	2504.331805
565.936615	2503.068996
566.292654	2505.955056
566.648638	2503.686537
567.004567	2502.320384
567.360441	2504.818276
567.716260	2502.060765
568.072023	2505.990344
568.427732	2496.414673
568.783385	2498.907523
569.138982	2495.963489
569.494525	2498.083295
569.850013	2495.232522
570.205445	2501.123110
570.560823	2496.260918
570.916145	2495.885352
571.271412	2494.085660
571.626625	2498.952894
571.981782	2493.475680
572.336884	2495.045999
572.691931	2492.787563
573.046923	2492.727069
573.401860	2491.764208
573.756743	2491.877634
574.111570	2490.564414
574.466342	2490.289671
574.821059	2488.598364
575.175722	2485.321614
575.530330	2488.164824
575.884882	2489.215905
576.239380	2485.182982
576.593823	2489.359578
576.948211	2482.566623
577.302544	2484.018475
577.656823	2479.400778
578.011047	2482.639720
578.365216	2481.767600
578.719330	2481.172744
579.073389	2481.139977
579.427394	2481.986890
579.781344	2479.052939
580.135239	2479.539410
580.489080	2480.030923
580.842866	2480.441777
581.196597	2480.676190
581.550273	2476.061014
581.903895	2475.897177
582.257463	2476.403813
582.610975	2478.521097
582.964434	2474.823411
583.317837	2473.721919
583.671186	2475.652681
584.024481	2473.041363
584.377721	2470.477936
584.730906	2473.623616
585.084037	2472.423822
585.437113	2473.585807
585.790135	2471.191259
586.143103	2468.766464
586.496016	2471.246712
586.848874	2468.771506
587.201679	2469.653707
587.554428	2466.997019
587.907124	2468.302678
588.259765	2465.194807
588.612352	2472.053297
588.964884	2469.976341
589.317362	2470.057000
589.669786	2471.246712
590.022155	2468.660600
590.374470	2468.622792
590.726731	2472.222175
591.078937	2470.205714
591.431090	2466.762606
591.783188	2467.526341
592.135232	2469.063892
592.487222	2466.578604
592.839157	2471.423152
593.191038	2468.640436
593.542866	2470.566156
593.894639	2468.494242
594.246358	2470.079685
594.598022	2470.155302
594.949633	2467.554067
595.301190	2468.935343
595.652692	2467.811166
596.004141	2468.791670
596.355535	2464.640280
596.706876	2467.261680
597.058162	2467.450723
597.409395	2467.422997
597.760573	2466.475260
598.111698	2468.756382
598.462768	2467.793522
598.813785	2472.431383
599.164748	2469.016002
599.515657	2470.767803
599.866511	2469.033646
600.217312	2471.397947
600.568060	2468.244705
600.918753	2473.951291
601.269392	2473.351394
601.619978	2472.368369
601.970510	2476.187043
602.320988	2476.504636
602.671412	2479.690645
603.021783	2474.541106
603.372100	2478.992445
603.722363	2478.284163
604.072572	2479.385655
604.422728	2478.286683
604.772830	2478.090078
605.122878	2475.312403
605.472872	2479.541931
605.822813	2476.683597
606.172701	2484.000831
606.522534	2485.190544
606.872314	2485.634165
607.222041	2488.389156
607.571714	2486.836480
607.921333	2489.218426
608.270899	2495.741679
608.620411	2493.241266
608.969870	2495.988695
609.319276	2498.552122
609.668627	2499.527585
610.017926	2502.446413
610.367171	2499.330980
610.716362	2505.425735
611.065500	2505.869357
611.414585	2510.464368
611.763616	2515.056860
612.112594	2510.983607
612.461518	2514.681294
612.810389	2518.772190
613.159207	2519.664474
613.507971	2528.153777
613.856682	2526.820392
614.205340	2529.003212
614.553945	2536.534696
614.902496	2535.924716
615.250994	2542.180788
615.599439	2542.142979
615.947830	2547.907539
616.296169	2549.803012
616.644454	2555.945658
616.992686	2560.238201
617.340864	2565.806155
617.688990	2571.230437
618.037063	2578.099009
618.385082	2584.261820
618.733048	2589.277768
619.080961	2591.760536
619.428821	2599.644901
619.776628	2601.565580
620.124382	2604.071034
620.472083	2609.119749
620.819731	2611.292487
621.167326	2614.223917
621.514868	2616.552931
621.862357	2611.683176
622.209793	2619.577623
622.557176	2618.788682
622.904506	2620.265740
623.251783	2618.060236
623.599007	2618.571913
623.946179	2620.704321
624.293297	2626.068108
624.640363	2628.266052
624.987376	2634.756537
625.334336	2635.394243
625.681243	2635.600930
626.028097	2640.178298
626.374899	2645.794143
626.721647	2650.421923
627.068343	2653.575164
627.414987	2659.155722
627.761577	2661.663696
628.108115	2669.278359
628.454600	2673.714574
628.801032	2677.266067
629.147412	2687.053467
629.493739	2690.274764
629.840014	2696.669468
630.186236	2704.137937
630.532405	2712.118084
630.878521	2722.056719
631.224585	2726.941597
631.570597	2730.611557
631.916556	2741.044225
632.262462	2751.043353
632.608316	2760.160280
632.954117	2764.689757
633.299866	2770.361055
633.645562	2774.346087
633.991206	2775.734925
634.336797	2773.945315
634.682336	2779.972015
635.027823	2778.399175
635.373257	2785.786986
635.718639	2784.395627
636.063968	2789.386370
636.409245	2787.480813
636.754470	2794.377112
637.099642	2794.336783
637.444762	2800.199645
637.789829	2805.467650
638.134845	2807.065696
638.479808	2815.030719
638.824719	2820.664209
639.169577	2820.049188
639.514383	2831.215344
639.859137	2832.236177
640.203839	2842.633557
640.548489	2844.392920
640.893086	2849.834845
641.237632	2853.005731
641.582125	2866.944522
641.926566	2869.460057
642.270955	2884.628889
642.615292	2890.665671
642.959576	2899.470046
643.303809	2905.597569
643.647990	2916.083169
643.992118	2924.529622
644.336195	2934.601847
