Dividing Wavelength (nm)	Counts (n)	Blue Motor Position (mm): 30.200000	Red Motor Position (mm): 0.000000	
326.493990	1971.325567
326.888308	1971.325567
327.282561	1971.325567
327.676750	1946.253389
328.070874	1949.273040
328.464933	1955.594647
328.858929	1965.984465
329.252859	1975.061062
329.646726	1988.770480
330.040528	2006.406957
330.434265	2024.751716
330.827938	2041.798378
331.221547	2062.550288
331.615091	2083.251786
332.008571	2103.948243
332.401986	2125.688219
332.795338	2147.629841
333.188625	2165.667089
333.581847	2184.778104
333.975006	2202.583459
334.368100	2221.525595
334.761129	2237.851371
335.154095	2254.777045
335.546996	2290.722993
335.939833	2367.928264
336.332606	2384.780841
336.725315	2398.439848
337.117960	2403.929664
337.510540	2410.679769
337.903056	2422.019845
338.295508	2424.285843
338.687896	2434.567277
339.080220	2442.141610
339.472480	2446.577826
339.864676	2449.496654
340.256807	2455.851028
340.648875	2455.649382
341.040879	2457.444033
341.432818	2456.203909
341.824694	2457.854887
342.216506	2458.210288
342.608253	2459.054682
342.999937	2456.990329
343.391557	2455.082252
343.783113	2455.367077
344.174605	2452.614607
344.566033	2452.012190
344.957397	2448.485902
345.348697	2447.270984
345.739934	2446.726540
346.131106	2446.323248
346.522215	2442.491971
346.913260	2444.021961
347.304241	2442.915427
347.695159	2441.902156
348.086012	2438.542227
348.476802	2434.184149
348.867528	2434.688264
349.258191	2435.005857
349.648789	2430.282296
350.039324	2428.888417
350.429796	2431.567790
350.820203	2430.990578
351.210548	2428.951431
351.600828	2426.234249
351.991045	2429.284147
352.381198	2424.207706
352.771288	2428.056627
353.161314	2424.593354
353.551276	2428.913623
353.941175	2425.223498
354.331010	2425.422624
354.720782	2430.829261
355.110490	2429.493355
355.500135	2429.379929
355.889717	2427.844898
356.279235	2427.008067
356.668689	2430.219282
357.058080	2430.642738
357.447408	2428.631318
357.836672	2424.142171
358.225873	2432.301278
358.615010	2424.999167
359.004084	2430.083170
359.393095	2432.475198
359.782043	2432.162646
360.170927	2431.721545
360.559748	2434.844540
360.948505	2436.651794
361.337199	2437.783533
361.725830	2434.622729
362.114398	2435.348656
362.502903	2436.934098
362.891344	2439.653801
363.279722	2435.588110
363.668037	2440.573812
364.056289	2439.777309
364.444478	2436.621547
364.832603	2438.748914
365.220665	2440.137752
365.608665	2436.631629
365.996601	2441.143462
366.384474	2441.725715
366.772284	2442.313010
367.160031	2441.816456
367.547715	2442.905345
367.935336	2442.078596
368.322893	2441.859306
368.710388	2445.650253
369.097820	2446.366097
369.485189	2442.577670
369.872495	2447.074379
370.259738	2446.532455
370.646918	2445.204111
371.034035	2446.419029
371.421090	2447.197888
371.808081	2446.207301
372.195010	2447.006324
372.581875	2447.477672
372.968678	2448.372477
373.355418	2448.190995
373.742096	2448.783331
374.128710	2449.663012
374.515262	2449.012703
374.901751	2452.259206
375.288177	2450.015893
375.674540	2451.535801
376.060841	2450.862807
376.447079	2449.458845
376.833254	2453.395986
377.219367	2449.423557
377.605417	2452.700307
377.991404	2451.505554
378.377329	2449.922631
378.763191	2449.138732
379.148991	2456.564352
379.534727	2455.273816
379.920402	2457.547377
380.306013	2456.362705
380.691563	2458.618622
381.077049	2455.220884
381.462474	2459.324383
381.847835	2456.866821
382.233134	2459.387398
382.618371	2459.488221
383.003545	2458.842953
383.388657	2461.053499
383.773706	2458.187603
384.158693	2458.290947
384.543618	2460.027624
384.928480	2460.579631
385.313280	2463.410238
385.698017	2461.502162
386.082692	2463.153140
386.467305	2462.507872
386.851856	2465.139354
387.236344	2465.807307
387.620770	2465.731690
388.005133	2465.484673
388.389435	2465.280507
388.773674	2468.426187
389.157851	2469.265539
389.541965	2468.267390
389.926018	2464.915023
390.310008	2468.368213
390.693936	2466.175311
391.077802	2469.542802
391.461606	2471.733183
391.845348	2473.540437
392.229027	2468.390898
392.612645	2472.391054
392.996200	2470.954325
393.379694	2471.241671
393.763125	2472.365848
394.146494	2473.646301
394.529801	2474.367186
394.913047	2476.250057
395.296230	2477.497743
395.679351	2475.425829
396.062410	2474.679738
396.445408	2477.921200
396.828343	2477.401961
397.211217	2475.844244
397.594028	2474.525983
397.976778	2473.666466
398.359466	2476.761734
398.742092	2475.761065
399.124656	2480.348515
399.507158	2480.383803
399.889598	2480.028402
400.271977	2480.847590
400.654294	2486.844042
401.036549	2484.908239
401.418742	2484.875472
401.800874	2484.938486
402.182944	2485.455204
402.564952	2484.300780
402.946898	2482.995121
403.328783	2485.861017
403.710606	2487.784217
404.092367	2490.839157
404.474067	2490.670278
404.855705	2490.778663
405.237282	2488.424444
405.618797	2491.907881
406.000250	2492.323776
406.381642	2493.526092
406.762972	2494.337717
407.144240	2491.086173
407.525447	2496.855774
407.906593	2494.546925
408.287677	2496.492811
408.668700	2494.902327
409.049661	2497.450630
409.430560	2500.200579
409.811399	2501.415497
410.192176	2497.826196
410.572891	2502.103615
410.953545	2501.223933
411.334138	2500.576145
411.714669	2502.940446
412.095139	2501.425580
412.475547	2502.459016
412.855894	2506.007988
413.236180	2506.320540
413.616405	2506.255005
413.996568	2506.539830
414.376670	2505.864316
414.756711	2506.688544
415.136691	2509.471261
415.516609	2510.552589
415.896466	2511.369256
416.276262	2512.448062
416.655997	2513.053001
417.035670	2510.996210
417.415283	2517.542148
417.794834	2516.465862
418.174324	2522.235463
418.553753	2518.930986
418.933121	2521.416275
419.312428	2524.892151
419.691674	2523.684794
420.070859	2528.904909
420.449983	2529.192255
420.829045	2531.135620
421.208047	2533.535209
421.586988	2534.309026
421.965867	2541.628782
422.344686	2539.579553
422.723444	2544.862682
423.102141	2543.373021
423.480777	2551.259906
423.859352	2552.734443
424.237866	2563.933367
424.616319	2562.894889
424.994712	2571.507700
425.373044	2576.034657
425.751314	2587.364650
426.129524	2589.434043
426.507673	2604.262597
426.885762	2613.407251
427.263789	2625.266565
427.641756	2637.657721
428.019662	2650.028713
428.397508	2663.990188
428.775292	2688.381811
429.153016	2707.134903
429.530679	2725.426730
429.908282	2749.899012
430.285824	2767.328801
430.663305	2804.802218
431.040726	2828.069664
431.418086	2857.099148
431.795385	2903.528175
432.172624	2948.875874
432.549802	2982.581029
432.926920	3030.852598
433.303977	3074.267015
433.680974	3131.869759
434.057910	3198.844008
434.434786	3260.366250
434.811601	3317.318686
435.188355	3434.507868
435.565050	3492.652537
435.941683	3564.037796
436.318257	3696.146274
436.694770	3771.153602
437.071222	3898.223446
437.447614	3925.153290
437.823946	4021.872868
438.200218	4132.092655
438.576429	4216.680696
438.952580	4345.759441
439.328670	4454.008137
439.704700	4610.495635
440.080670	4673.235315
440.456580	4867.828895
440.832429	5017.175598
441.208218	5013.855998
441.583947	5189.784706
441.959616	5340.406821
442.335224	5515.889386
442.710773	5680.336866
443.086261	5912.164408
443.461689	5949.353000
443.837057	6117.949349
444.212365	6397.572070
444.587612	6561.064251
444.962800	6631.595035
445.337927	6881.847994
445.712995	6763.486743
446.088002	7347.554827
446.462949	7593.505162
446.837837	7822.270203
447.212664	8002.889704
447.587431	8979.623344
447.962139	10039.841012
448.336786	10969.190327
448.711374	10755.263922
449.085901	9855.395275
449.460369	10040.284634
449.834776	10258.191029
450.209124	11336.216574
450.583412	11438.191554
450.957640	11853.736386
451.331808	11604.761360
451.705917	11315.031125
452.079965	11548.955787
452.453954	11927.107860
452.827883	12129.008592
453.201752	12260.668407
453.575562	12561.736197
453.949311	13306.211277
454.323001	13597.146347
454.696632	13727.805493
455.070202	14703.654411
455.443713	15025.678277
455.817164	15573.850826
456.190556	16111.817559
456.563888	16086.881491
456.937160	16564.566106
457.310373	15933.353151
457.683526	16398.906229
458.056619	16646.545350
458.429653	16867.027775
458.802628	17442.911547
459.175542	17772.275333
459.548398	18818.897009
459.921194	20037.356497
460.293930	20723.495344
460.666607	22270.007918
461.039224	23698.134035
461.411782	24236.554472
461.784280	23706.814902
462.156719	23643.240911
462.529099	23533.263099
462.901419	22908.041555
463.273680	22427.054984
463.645882	22739.430082
464.018024	22975.537563
464.390106	23808.994049
464.762130	26021.155701
465.134094	29298.624065
465.505999	33603.088894
465.877845	37527.435599
466.249631	38821.391407
466.621358	37682.395628
466.993026	36239.551862
467.364634	34851.472671
467.736184	33529.677091
468.107674	32767.908333
468.479105	32377.055073
468.850477	32049.304456
469.221790	31102.031319
469.593043	29879.720390
469.964238	29342.557721
470.335373	29448.590830
470.706449	31043.652237
471.077467	33391.920001
471.448425	37561.105466
471.819324	40311.725362
472.190164	38894.553673
472.560945	35924.757010
472.931667	33370.502658
473.302330	32544.507080
473.672934	31962.962093
474.043479	32549.225600
474.413965	31993.690446
474.784393	31801.705664
475.154761	32702.615309
475.525070	32856.138608
475.895321	32553.132494
476.265513	33223.565627
476.635645	34211.314188
477.005719	34166.246272
477.375734	34712.137699
477.745691	35435.487823
478.115588	36744.824191
478.485427	38680.544089
478.855207	41927.780654
479.224928	44545.248554
479.594591	46216.726291
479.964194	45307.776005
480.333739	45508.333270
480.703226	45616.221524
481.072653	46311.666341
481.442022	46873.790283
481.811333	47217.571769
482.180584	46029.729730
482.549777	45597.024810
482.918912	45149.098126
483.287988	44918.382159
483.657005	44166.978013
484.025964	43599.192856
484.394864	43651.081452
484.763706	43271.790078
485.132489	42474.060249
485.501213	42362.902807
485.869879	42544.651527
486.238487	42195.105481
486.607036	42425.463526
486.975527	41936.509412
487.343959	42153.654593
487.712333	42284.533029
488.080648	42224.434914
488.448905	42669.135259
488.817104	42492.387364
489.185244	43450.067963
489.553326	45112.252333
489.921350	47815.210640
490.289315	50781.896911
490.657222	51451.122687
491.025070	51757.554265
491.392861	50838.720797
491.760593	49558.325694
492.128267	47873.022593
492.495883	46370.247069
492.863440	45004.724521
493.230939	43698.463257
493.598380	42642.064263
493.965763	42333.888446
494.333088	41573.228742
494.700354	41118.715791
495.067563	40860.999403
495.434713	40749.327763
495.801805	40822.482467
496.168839	40470.534312
496.535815	40141.561214
496.902733	40192.633144
497.269593	39794.795365
497.636395	39743.546995
498.003139	40134.133074
498.369825	39628.444850
498.736453	39918.671638
499.103023	39475.854164
499.469535	39344.592600
499.835989	39455.195515
500.202385	39135.031835
500.568723	39155.251903
500.935003	39347.140903
501.301226	39165.394704
501.667390	39750.584446
502.033497	40011.358293
502.399546	39465.010642
502.765537	38797.589599
503.131470	39167.138943
503.497345	39515.588538
503.863163	38228.970130
504.228923	38821.373763
504.594625	39216.658198
504.960269	38525.377374
505.325856	39196.158346
505.691385	38579.960467
506.056856	38707.277328
506.422270	39148.242178
506.787625	38734.683561
507.152924	38917.329606
507.518164	39018.198053
507.883347	38262.652600
508.248472	38503.919702
508.613540	38959.009866
508.978550	39247.815049
509.343503	39004.697843
509.708398	39194.368736
510.073236	39718.323582
510.438016	39732.811858
510.802738	39190.282881
511.167403	39783.840938
511.532010	40018.952791
511.896561	40304.546759
512.261053	41124.253498
512.625488	40689.063290
512.989866	40549.178832
513.354186	40411.421742
513.718449	40394.725440
514.082655	41054.476367
514.446803	40735.981308
514.810894	41243.882600
515.174927	41171.761332
515.538904	41070.061094
515.902822	41719.956566
516.266684	41192.447707
516.630488	41603.281581
516.994235	41453.433283
517.357925	41995.054852
517.721558	42176.463294
518.085133	42466.647233
518.448651	42602.655043
518.812112	42378.119530
519.175516	42464.131697
519.538863	42796.653766
519.902152	42765.864919
520.265385	43212.861510
520.628560	43249.490534
520.991678	43071.195005
521.354739	43272.561374
521.717743	43590.312863
522.080690	43490.429961
522.443580	44032.669072
522.806413	44078.382255
523.169189	44032.626222
523.531908	44212.913007
523.894569	44064.052775
524.257174	44237.670114
524.619722	44531.786153
524.982213	44515.225962
525.344647	44434.212099
525.707025	44503.943860
526.069345	44860.993663
526.431608	44793.298529
526.793815	45100.914778
527.155964	44640.717925
527.518057	44803.325384
527.880093	44600.595382
528.242072	45115.123270
528.603995	44831.359240
528.965860	44826.023179
529.327669	44914.787816
529.689421	44808.048945
530.051117	44775.641887
530.412755	44928.489672
530.774337	44993.916287
531.135862	44811.844934
531.497331	44999.625394
531.858743	44896.553962
532.220098	45221.327778
532.581396	44945.087671
532.942638	44634.729035
533.303824	44918.059525
533.664953	44892.049692
534.026025	44617.029543
534.387040	45085.826604
534.747999	45023.278488
535.108902	45188.164548
535.469748	44694.133992
535.830537	44844.284759
536.191270	45030.275609
536.551947	44683.461869
536.912567	44979.773330
537.273131	45107.730418
537.633638	44611.857320
537.994089	44934.849088
538.354483	44541.865940
538.714821	45101.650786
539.075103	45439.299709
539.435328	45223.656792
539.795497	45115.914731
540.155609	45097.154077
540.515665	45552.075362
540.875665	45000.028686
541.235609	45345.141037
541.595496	45310.142827
541.955328	45961.132229
542.315102	45346.023239
542.674821	45145.874308
543.034483	45182.957036
543.394090	45141.465819
543.753640	45111.392816
544.113134	46104.603467
544.472571	45130.894520
544.831953	46344.716146
545.191278	45581.046873
545.550548	45311.655173
545.909761	45756.867196
546.268918	45950.248378
546.628019	46258.308248
546.987064	45817.895404
547.346053	45123.942768
547.704986	45973.409959
548.063863	45554.570733
548.422684	45767.735923
548.781449	45614.416791
549.140158	46000.112951
549.498811	45852.991917
549.857408	45296.090611
550.215949	46121.077958
550.574434	46041.853705
550.932864	45835.363002
551.291237	46539.092956
551.649555	46148.406053
552.007817	46395.571306
552.366022	46046.962914
552.724173	46218.412557
553.082267	46617.014071
553.440305	46900.500837
553.798288	46233.863693
554.156215	46548.605613
554.514086	46755.487005
554.871902	46501.095258
555.229661	46509.085487
555.587365	46363.726337
555.945014	46438.811803
556.302606	46386.088895
556.660143	46611.499048
557.017625	46677.984306
557.375050	46492.323651
557.732421	46840.271651
558.089735	46804.681105
558.446994	46730.981956
558.804197	47194.526135
559.161345	47150.226995
559.518437	46407.725528
559.875474	46722.613641
560.232455	46880.953763
560.589381	47055.052531
560.946251	46749.301509
561.303065	47434.101930
561.659825	47230.267915
562.016528	46918.664114
562.373177	46652.511355
562.729770	47123.249260
563.086307	46657.791964
563.442789	47106.575644
563.799216	47147.638363
564.155587	46941.513144
564.511904	46971.611353
564.868164	47071.597598
565.224370	47317.437027
565.580520	47049.366110
565.936615	47266.309645
566.292654	46994.659508
566.648638	47214.910040
567.004567	47196.189715
567.360441	47224.831031
567.716260	47087.240298
568.072023	47371.707569
568.427732	47372.889719
568.783385	46930.959488
569.138982	47316.827048
569.494525	47298.510015
569.850013	47052.647901
570.205445	47021.629681
570.560823	46989.089033
570.916145	46865.699231
571.271412	46896.349446
571.626625	46638.547359
571.981782	46721.439052
572.336884	46399.901657
572.691931	46724.826707
573.046923	46336.057964
573.401860	46175.915630
573.756743	46172.384301
574.111570	46281.822710
574.466342	46135.145298
574.821059	46252.155520
575.175722	45790.320293
575.530330	45801.204144
575.884882	45533.879317
576.239380	45489.562533
576.593823	45467.925901
576.948211	45374.223454
577.302544	44923.998004
577.656823	44976.554553
578.011047	45186.768148
578.365216	44922.841059
578.719330	44708.851640
579.073389	44556.634000
579.427394	44658.452705
579.781344	44623.857786
580.135239	44293.896623
580.489080	44357.495820
580.842866	43861.189183
581.196597	44312.818594
581.550273	44267.765802
581.903895	44110.481802
582.257463	44534.992326
582.610975	43961.785408
582.964434	44215.184047
583.317837	43868.977765
583.671186	43714.191657
584.024481	43930.149647
584.377721	43469.967918
584.730906	43762.984985
585.084037	43776.465031
585.437113	43496.895241
585.790135	43529.425807
586.143103	43136.601455
586.496016	43274.905511
586.848874	43308.109071
587.201679	43308.502281
587.554428	42788.214875
587.907124	42984.716531
588.259765	42750.507044
588.612352	43002.295034
588.964884	42392.617888
589.317362	42677.175899
589.669786	42623.820327
590.022155	42395.922365
590.374470	42807.313286
590.726731	42330.909124
591.078937	41861.587783
591.431090	41958.282155
591.783188	41620.907975
592.135232	41283.548919
592.487222	41546.795452
592.839157	41623.688172
593.191038	41309.117651
593.542866	41070.035889
593.894639	40485.859419
594.246358	40759.178178
594.598022	40735.930897
594.949633	40345.879180
595.301190	40294.837497
595.652692	40142.786215
596.004141	40469.289147
596.355535	39492.326134
596.706876	39457.353129
597.058162	39291.335330
597.409395	39737.469884
597.760573	39813.775309
598.111698	39391.515660
598.462768	39406.941591
598.813785	39450.066141
599.164748	38911.103781
599.515657	39293.727358
599.866511	38784.918659
600.217312	39382.005523
600.568060	38367.085143
600.918753	39103.176783
601.269392	39075.442876
601.619978	38730.292716
601.970510	38937.085888
602.320988	39110.095767
602.671412	39423.025392
603.021783	39160.711472
603.372100	38819.629524
603.722363	38904.930888
604.072572	38998.255248
604.422728	39003.319088
604.772830	38820.557096
605.122878	38912.749717
605.472872	38850.254533
605.822813	39122.708734
606.172701	38957.598343
606.522534	39188.523518
606.872314	39448.793250
607.222041	39212.509328
607.571714	39592.377914
607.921333	39043.804594
608.270899	39337.340900
608.620411	39668.748875
608.969870	39477.547992
609.319276	39462.966454
609.668627	39524.203870
610.017926	40017.339622
610.367171	40158.625520
610.716362	40243.737841
611.065500	40189.585767
611.414585	40376.083253
611.763616	40682.000633
612.112594	40592.111819
612.461518	40816.861581
612.810389	41120.981789
613.159207	40977.790335
613.507971	41043.345500
613.856682	41516.712366
614.205340	41401.884964
614.553945	42100.548558
614.902496	41549.981461
615.250994	42019.506969
615.599439	42091.928185
615.947830	42299.301089
616.296169	42340.835156
616.644454	42474.874396
616.992686	42642.827998
617.340864	43158.099456
617.688990	42890.469639
618.037063	43483.848735
618.385082	43455.169611
618.733048	43749.648613
619.080961	43768.273156
619.428821	43761.213020
619.776628	43873.499680
620.124382	43699.337897
620.472083	43818.679653
620.819731	43956.275427
621.167326	43613.930669
621.514868	43601.458854
621.862357	43168.244778
622.209793	43186.947459
622.557176	42853.097045
622.904506	42598.400309
623.251783	42245.035589
623.599007	42044.042264
623.946179	41816.305619
624.293297	41779.348920
624.640363	41200.707638
624.987376	41189.904445
625.334336	40938.658378
625.681243	40581.933729
626.028097	40552.654708
626.374899	40404.374208
626.721647	40380.380837
627.068343	40277.674889
627.414987	40046.240557
627.761577	39821.337040
628.108115	40152.399695
628.454600	39605.326118
628.801032	39794.616404
629.147412	39767.119430
629.493739	39770.108834
629.840014	39436.228174
630.186236	39759.779510
630.532405	39374.302640
630.878521	39594.827915
631.224585	39478.112601
631.570597	39184.636788
631.916556	39356.071307
632.262462	39311.159668
632.608316	39319.076800
632.954117	39211.428001
633.299866	39203.306702
633.645562	39116.810584
633.991206	38634.720001
634.336797	38209.418015
634.682336	38184.295425
635.027823	37944.936399
635.373257	37780.267109
635.718639	37528.842081
636.063968	37385.630462
636.409245	36830.244023
636.754470	36878.591208
