Dividing Wavelength (nm)	Counts (n)	Blue Motor Position (mm): 4.600000	Red Motor Position (mm): 0.000000	
326.493990	1978.857051
326.888308	1978.857051
327.282561	1978.857051
327.676750	1953.923504
328.070874	1958.185800
328.464933	1961.313836
328.858929	1970.352625
329.252859	1983.837711
329.646726	1998.429331
330.040528	2013.134377
330.434265	2032.600792
330.827938	2050.680891
331.221547	2069.928016
331.615091	2094.286872
332.008571	2112.911414
332.401986	2133.023098
332.795338	2152.131591
333.188625	2172.041628
333.581847	2192.433096
333.975006	2208.670652
334.368100	2229.495659
334.761129	2244.087279
335.154095	2259.087232
335.546996	2275.813780
335.939833	2286.120419
336.332606	2300.086936
336.725315	2313.448514
337.117960	2319.021510
337.510540	2325.317911
337.903056	2337.399036
338.295508	2341.038749
338.687896	2349.477641
339.080220	2356.643641
339.472480	2359.754033
339.864676	2365.264014
340.256807	2365.442975
340.648875	2369.511186
341.040879	2369.871629
341.432818	2371.623430
341.824694	2374.350694
342.216506	2371.651156
342.608253	2372.470344
342.999937	2370.048069
343.391557	2371.245343
343.783113	2367.814838
344.174605	2369.095291
344.566033	2366.519262
344.957397	2365.616895
345.348697	2364.354086
345.739934	2361.742768
346.131106	2360.243025
346.522215	2359.602798
346.913260	2354.312108
347.304241	2354.125585
347.695159	2353.077025
348.086012	2353.001408
348.476802	2350.712724
348.867528	2348.353464
349.258191	2347.073011
349.648789	2348.245079
350.039324	2345.139728
350.429796	2343.934892
350.820203	2345.477485
351.210548	2343.622341
351.600828	2342.067145
351.991045	2343.322392
352.381198	2343.317351
352.771288	2341.928513
353.161314	2341.648729
353.551276	2340.824500
353.941175	2338.447596
354.331010	2341.013544
354.720782	2340.794253
355.110490	2340.050683
355.500135	2341.081599
355.889717	2338.689572
356.279235	2342.828359
356.668689	2341.968842
357.058080	2343.319872
357.447408	2339.029850
357.836672	2340.547237
358.225873	2339.783502
358.615010	2341.658811
359.004084	2343.206446
359.393095	2343.944975
359.782043	2345.401868
360.170927	2344.431446
360.559748	2348.479493
360.948505	2348.716427
361.337199	2348.560151
361.725830	2347.937568
362.114398	2348.202229
362.502903	2348.378669
362.891344	2348.008145
363.279722	2351.622652
363.668037	2351.068125
364.056289	2350.097703
364.444478	2349.578464
364.832603	2348.345902
365.220665	2350.281705
365.608665	2350.233814
365.996601	2353.359329
366.384474	2353.765142
366.772284	2354.952334
367.160031	2352.779597
367.547715	2350.818588
367.935336	2354.201202
368.322893	2353.586181
368.710388	2355.912674
369.097820	2356.005935
369.485189	2352.139370
369.872495	2357.757736
370.259738	2354.377643
370.646918	2356.058867
371.034035	2356.593230
371.421090	2355.690863
371.808081	2356.731861
372.195010	2357.457788
372.581875	2359.035669
372.968678	2356.958713
373.355418	2356.275637
373.742096	2357.699763
374.128710	2355.968127
374.515262	2357.634228
374.901751	2357.127592
375.288177	2356.815040
375.674540	2356.799917
376.060841	2357.528364
376.447079	2359.547346
376.833254	2359.270082
377.219367	2354.549042
377.605417	2357.898888
377.991404	2356.326048
378.377329	2354.843949
378.763191	2354.415451
379.148991	2360.598426
379.534727	2359.396111
379.920402	2359.171780
380.306013	2360.996678
380.691563	2359.348220
381.077049	2359.786801
381.462474	2360.066585
381.847835	2362.171266
382.233134	2362.914837
382.618371	2359.973323
383.003545	2362.801411
383.388657	2362.589682
383.773706	2363.852491
384.158693	2361.752851
384.543618	2364.273428
384.928480	2362.078005
385.313280	2361.987264
385.698017	2363.565145
386.082692	2363.081195
386.467305	2362.062882
386.851856	2364.555732
387.236344	2363.615557
387.620770	2368.250898
388.005133	2365.652183
388.389435	2364.202851
388.773674	2364.492718
389.157851	2368.628984
389.541965	2367.814838
389.926018	2366.436083
390.310008	2363.812162
390.693936	2366.990609
391.077802	2365.926926
391.461606	2364.805269
391.845348	2363.955835
392.229027	2366.098325
392.612645	2367.482122
392.996200	2367.991278
393.379694	2368.782740
393.763125	2371.472195
394.146494	2368.079499
394.529801	2367.189735
394.913047	2368.117307
395.296230	2370.912627
395.679351	2368.959180
396.062410	2366.325177
396.445408	2365.826103
396.828343	2369.788450
397.211217	2365.921885
397.594028	2367.126721
397.976778	2367.146885
398.359466	2368.689478
398.742092	2365.649663
399.124656	2370.811804
399.507158	2370.849613
399.889598	2370.844572
400.271977	2371.152082
400.654294	2371.172247
401.036549	2369.533872
401.418742	2371.961187
401.800874	2372.838348
402.182944	2370.837010
402.564952	2371.608306
402.946898	2373.939840
403.328783	2372.576208
403.710606	2371.933461
404.092367	2368.470188
404.474067	2370.327853
404.855705	2374.015457
405.237282	2373.463451
405.618797	2371.933461
406.000250	2372.906403
406.381642	2374.544778
406.762972	2373.808770
407.144240	2371.147041
407.525447	2372.689634
407.906593	2374.587628
408.287677	2375.721888
408.668700	2372.929089
409.049661	2376.268853
409.430560	2377.382948
409.811399	2375.106867
410.192176	2374.854809
410.572891	2377.183823
410.953545	2374.474202
411.334138	2375.248019
411.714669	2375.744573
412.095139	2375.994110
412.475547	2378.728936
412.855894	2375.936137
413.236180	2376.924203
413.616405	2371.739376
413.996568	2375.873123
414.376670	2378.350850
414.756711	2375.076620
415.136691	2375.885725
415.516609	2380.190871
415.896466	2376.667104
416.276262	2380.314379
416.655997	2377.844214
417.035670	2374.466641
417.415283	2377.244316
417.794834	2372.530838
418.174324	2380.432846
418.553753	2377.249358
418.933121	2376.785571
419.312428	2381.272198
419.691674	2379.031405
420.070859	2376.417567
420.449983	2381.635161
420.829045	2380.269009
421.208047	2383.623897
421.586988	2378.126518
421.965867	2377.667773
422.344686	2378.902856
422.723444	2379.268340
423.102141	2380.821015
423.480777	2381.342774
423.859352	2378.905377
424.237866	2378.655839
424.616319	2379.311189
424.994712	2378.963350
425.373044	2382.048536
425.751314	2379.999307
426.129524	2380.120295
426.507673	2378.882691
426.885762	2379.641385
427.263789	2382.207332
427.641756	2381.373021
428.019662	2382.638351
428.397508	2379.041488
428.775292	2380.155583
429.153016	2380.712630
429.530679	2379.785058
429.908282	2381.743546
430.285824	2381.577188
430.663305	2380.768083
431.040726	2381.211704
431.418086	2382.719009
431.795385	2384.324617
432.172624	2380.921838
432.549802	2383.712117
432.926920	2382.293032
433.303977	2382.779503
433.680974	2384.843856
434.057910	2381.599873
434.434786	2382.320758
434.811601	2382.827394
435.188355	2383.437374
435.565050	2383.497868
435.941683	2384.606922
436.318257	2382.819832
436.694770	2379.853113
437.071222	2382.643392
437.447614	2379.001158
437.823946	2383.208001
438.200218	2384.385111
438.576429	2384.579195
438.952580	2383.644061
439.328670	2383.898639
439.704700	2383.011396
440.080670	2384.256561
440.456580	2385.753784
440.832429	2383.412168
441.208218	2381.793958
441.583947	2385.214381
441.959616	2382.406458
442.335224	2385.128681
442.710773	2387.692108
443.086261	2385.978115
443.461689	2386.565410
443.837057	2386.802344
444.212365	2386.739330
444.587612	2386.262941
444.962800	2384.783362
445.337927	2387.503064
445.712995	2385.552138
446.088002	2384.614483
446.462949	2384.695142
446.837837	2385.708414
447.212664	2387.271171
447.587431	2385.073228
447.962139	2386.900647
448.336786	2385.930224
448.711374	2383.623897
449.085901	2386.081459
449.460369	2385.950389
449.834776	2385.650440
450.209124	2387.261089
450.583412	2385.688249
450.957640	2387.200595
451.331808	2391.364588
451.705917	2385.272354
452.079965	2387.961809
452.453954	2387.460215
452.827883	2386.275543
453.201752	2387.331665
453.575562	2389.701008
453.949311	2392.249311
454.323001	2386.928373
454.696632	2388.004659
455.070202	2387.374515
455.443713	2388.075235
455.817164	2383.961654
456.190556	2382.940820
456.563888	2387.147663
456.937160	2382.245141
457.310373	2386.656151
457.683526	2390.182438
458.056619	2390.726882
458.429653	2390.278220
458.802628	2389.874927
459.175542	2388.576830
459.548398	2390.646224
459.921194	2389.338044
460.293930	2387.979453
460.666607	2391.515823
461.039224	2391.089845
461.411782	2391.599002
461.784280	2388.904505
462.156719	2388.029865
462.529099	2390.726882
462.901419	2391.147819
463.273680	2389.320400
463.645882	2390.830226
464.018024	2389.975750
464.390106	2389.685884
464.762130	2390.464742
465.134094	2389.574979
465.505999	2389.300236
465.877845	2392.445916
466.249631	2390.855432
466.621358	2386.767056
466.993026	2393.902809
467.364634	2392.861811
467.736184	2392.506410
468.107674	2389.534649
468.479105	2392.851729
468.850477	2389.297715
469.221790	2390.835267
469.593043	2391.583878
469.964238	2393.509599
470.335373	2391.069681
470.706449	2391.256203
471.077467	2391.815772
471.448425	2391.750237
471.819324	2391.525905
472.190164	2390.905843
472.560945	2391.178066
472.931667	2390.900802
473.302330	2389.469114
473.672934	2393.098745
474.043479	2389.572458
474.413965	2390.434495
474.784393	2385.416027
475.154761	2392.173693
475.525070	2386.991387
475.895321	2388.486089
476.265513	2387.810575
476.635645	2391.513302
477.005719	2392.700494
477.375734	2392.839126
477.745691	2389.388456
478.115588	2392.927346
478.485427	2391.173024
478.855207	2389.829557
479.224928	2392.798797
479.594591	2394.432130
479.964194	2394.560680
480.333739	2394.273334
480.703226	2390.547921
481.072653	2390.918446
481.442022	2392.511451
481.811333	2393.711245
482.180584	2392.246790
482.549777	2392.655124
482.918912	2393.101266
483.287988	2391.714948
483.657005	2394.885834
484.025964	2392.057747
484.394864	2394.207799
484.763706	2393.726369
485.132489	2393.338200
485.501213	2394.691750
485.869879	2391.278889
486.238487	2395.873900
486.607036	2390.532798
486.975527	2393.260062
487.343959	2392.524054
487.712333	2393.360885
488.080648	2393.648231
488.448905	2395.100083
488.817104	2396.299878
489.185244	2395.251318
489.553326	2393.386091
489.921350	2394.747203
490.289315	2396.370454
490.657222	2392.433313
491.025070	2394.285937
491.392861	2394.389281
491.760593	2393.507079
492.128267	2393.161760
492.495883	2393.617984
492.863440	2395.057233
493.230939	2392.007335
493.598380	2393.368447
493.965763	2392.826523
494.333088	2394.195196
494.700354	2393.590258
495.067563	2395.188303
495.434713	2389.701008
495.801805	2393.423900
496.168839	2394.270813
496.535815	2393.368447
496.902733	2392.824002
497.269593	2396.614950
497.636395	2393.897768
498.003139	2397.890362
498.369825	2393.670916
498.736453	2393.181924
499.103023	2396.178890
499.469535	2396.660320
499.835989	2395.515978
500.202385	2394.971534
500.568723	2395.047151
500.935003	2394.943808
501.301226	2396.413304
501.667390	2394.732079
502.033497	2395.518499
502.399546	2394.895917
502.765537	2394.391801
503.131470	2394.933725
503.497345	2396.839281
503.863163	2394.442213
504.228923	2397.567728
504.594625	2393.991029
504.960269	2394.492624
505.325856	2395.460526
505.691385	2396.463715
506.056856	2395.964641
506.422270	2394.769888
506.787625	2395.223592
507.152924	2398.260887
507.518164	2395.354662
507.883347	2396.015053
508.248472	2394.258211
508.613540	2395.107645
508.978550	2396.632594
509.343503	2393.595299
509.708398	2395.488252
510.073236	2396.927502
510.438016	2396.695608
510.802738	2394.963972
511.167403	2395.762995
511.532010	2395.407594
511.896561	2397.129148
512.261053	2397.489590
512.625488	2393.509599
512.989866	2391.074722
513.354186	2395.173180
513.718449	2391.903992
514.082655	2397.305588
514.446803	2395.001781
514.810894	2399.221227
515.174927	2398.578479
515.538904	2396.277193
515.902822	2395.783160
516.266684	2396.045300
516.630488	2394.069167
516.994235	2398.139899
517.357925	2395.034548
517.721558	2397.086298
518.085133	2395.921791
518.448651	2397.708880
518.812112	2399.816083
519.175516	2396.352810
519.538863	2396.486401
519.902152	2395.553787
520.265385	2397.444220
520.628560	2397.635784
520.991678	2399.725342
521.354739	2396.017573
521.717743	2398.775084
522.080690	2399.412790
522.443580	2397.240053
522.806413	2399.143089
523.169189	2395.458005
523.531908	2396.342728
523.894569	2397.003119
524.257174	2397.484549
524.619722	2396.075547
524.982213	2397.545043
525.344647	2398.255846
525.707025	2398.815414
526.069345	2394.149826
526.431608	2397.378685
526.793815	2395.397511
527.155964	2396.360372
527.518057	2397.973541
527.880093	2395.059754
528.242072	2396.985475
528.603995	2395.969682
528.965860	2399.203583
529.327669	2396.730897
529.689421	2395.999929
530.051117	2397.608057
530.412755	2398.926319
530.774337	2399.594272
531.135862	2398.255846
531.497331	2398.510424
531.858743	2393.784342
532.220098	2394.578324
532.581396	2392.410628
532.942638	2394.142264
533.303824	2397.663510
533.664953	2398.094529
534.026025	2398.754920
534.387040	2397.466905
534.747999	2397.240053
535.108902	2399.218706
535.469748	2396.156205
535.830537	2396.524209
536.191270	2396.277193
536.551947	2396.395660
536.912567	2396.297357
537.273131	2397.575290
537.633638	2397.043448
537.994089	2397.257697
538.354483	2398.638973
538.714821	2396.710732
539.075103	2397.892883
539.435328	2398.936401
539.795497	2396.299878
540.155609	2397.958417
540.515665	2397.527399
540.875665	2397.925650
541.235609	2396.705691
541.595496	2395.952038
541.955328	2396.882131
542.315102	2400.410939
542.674821	2397.681154
543.034483	2397.930691
543.394090	2397.476987
543.753640	2400.985630
544.113134	2397.671072
544.472571	2398.064282
544.831953	2396.504045
545.191278	2394.938766
545.550548	2397.706360
545.909761	2398.028994
546.268918	2397.376164
546.628019	2398.540671
546.987064	2397.779457
547.346053	2397.809703
547.704986	2400.141237
548.063863	2397.446740
548.422684	2397.237532
548.781449	2398.402039
549.140158	2399.097718
549.498811	2399.309447
549.857408	2397.935732
550.215949	2394.714435
550.574434	2394.689229
550.932864	2397.285423
551.291237	2391.079763
551.649555	2399.344735
552.007817	2398.457492
552.366022	2401.088974
552.724173	2397.376164
553.082267	2399.135527
553.440305	2397.779457
553.798288	2397.413973
554.156215	2398.351628
554.514086	2400.675599
554.871902	2398.462533
555.229661	2398.187790
555.587365	2396.405742
555.945014	2399.700136
556.302606	2399.253994
556.660143	2399.826165
557.017625	2396.985475
557.375050	2398.454971
557.732421	2397.086298
558.089735	2398.412121
558.446994	2398.734755
558.804197	2398.898593
559.161345	2398.439848
559.518437	2399.808521
559.875474	2398.906154
560.232455	2402.011505
560.589381	2396.506565
560.946251	2402.172822
561.303065	2397.056051
561.659825	2398.633932
562.016528	2396.481359
562.373177	2399.591751
562.729770	2399.170815
563.086307	2399.319529
563.442789	2397.512275
563.799216	2401.446896
564.155587	2399.869015
564.511904	2398.457492
564.868164	2398.588562
565.224370	2399.803480
565.580520	2400.448748
565.936615	2399.367420
566.292654	2397.736607
566.648638	2401.895559
567.004567	2401.653583
567.360441	2400.350445
567.716260	2397.464384
568.072023	2398.941443
568.427732	2397.114024
568.783385	2396.720814
569.138982	2393.111348
569.494525	2395.223592
569.850013	2396.025135
570.205445	2397.739127
570.560823	2399.259035
570.916145	2397.466905
571.271412	2399.742986
571.626625	2399.869015
571.981782	2398.157543
572.336884	2400.297513
572.691931	2395.677295
573.046923	2398.187790
573.401860	2399.947153
573.756743	2398.507903
574.111570	2400.254663
574.466342	2400.940260
574.821059	2400.398336
575.175722	2398.875908
575.530330	2400.436145
575.884882	2397.129148
576.239380	2398.253325
576.593823	2399.934550
576.948211	2401.880435
577.302544	2402.306413
577.656823	2398.732235
578.011047	2400.320198
578.365216	2398.674261
578.719330	2399.337173
579.073389	2400.635270
579.427394	2403.324726
579.781344	2399.165774
580.135239	2400.400857
580.489080	2399.692574
580.842866	2401.227606
581.196597	2401.668707
581.550273	2399.717780
581.903895	2400.053017
582.257463	2399.206103
582.610975	2398.248284
582.964434	2400.695764
583.317837	2399.221227
583.671186	2400.559653
584.024481	2402.172822
584.377721	2399.869015
584.730906	2397.807183
585.084037	2398.460012
585.437113	2397.419014
585.790135	2398.507903
586.143103	2398.891031
586.496016	2399.962276
586.848874	2397.408932
587.201679	2398.215516
587.554428	2397.184600
587.907124	2397.192162
588.259765	2393.209651
588.612352	2398.555794
588.964884	2399.405229
589.317362	2399.014539
589.669786	2397.013201
590.022155	2399.248953
590.374470	2399.990002
590.726731	2399.440517
591.078937	2401.852709
591.431090	2398.734755
591.783188	2400.436145
592.135232	2398.830537
592.487222	2398.364230
592.839157	2396.330125
593.191038	2401.056207
593.542866	2399.634601
593.894639	2399.632081
594.246358	2399.848850
594.598022	2396.428427
594.949633	2402.780281
595.301190	2399.851371
595.652692	2400.174005
596.004141	2399.498490
596.355535	2397.794580
596.706876	2396.388098
597.058162	2399.657286
597.409395	2400.385733
597.760573	2400.773902
598.111698	2399.359858
598.462768	2400.574776
598.813785	2399.843809
599.164748	2398.313819
599.515657	2399.939591
599.866511	2399.435476
600.217312	2397.232491
600.568060	2398.341545
600.918753	2400.428583
601.269392	2396.972872
601.619978	2400.617626
601.970510	2400.110990
602.320988	2399.750548
602.671412	2401.693913
603.021783	2398.603685
603.372100	2400.083264
603.722363	2399.034704
604.072572	2401.247770
604.422728	2401.656104
604.772830	2396.899775
605.122878	2394.250649
605.472872	2399.816083
605.822813	2396.614950
606.172701	2398.850702
606.522534	2397.010681
606.872314	2397.948335
607.222041	2398.933881
607.571714	2397.108983
607.921333	2399.385064
608.270899	2397.401370
608.620411	2400.158881
608.969870	2398.815414
609.319276	2396.793911
609.668627	2401.661145
610.017926	2399.251473
610.367171	2400.297513
610.716362	2402.986968
611.065500	2401.479663
611.414585	2399.949673
611.763616	2398.018911
612.112594	2400.098387
612.461518	2398.603685
612.810389	2401.983779
613.159207	2394.699312
613.507971	2397.943294
613.856682	2401.215003
614.205340	2397.570249
614.553945	2400.373130
614.902496	2400.307595
615.250994	2398.114693
615.599439	2397.688716
615.947830	2399.705177
616.296169	2398.424724
616.644454	2400.945301
616.992686	2397.887841
617.340864	2400.022770
617.688990	2396.874569
618.037063	2398.636453
618.385082	2402.124931
618.733048	2400.340363
619.080961	2399.811042
619.428821	2398.003788
619.776628	2400.032852
620.124382	2399.206103
620.472083	2401.204921
620.819731	2398.369272
621.167326	2400.073182
621.514868	2399.516134
621.862357	2397.051010
622.209793	2400.688202
622.557176	2398.707029
622.904506	2397.093860
623.251783	2394.933725
623.599007	2397.862636
623.946179	2395.715104
624.293297	2397.250135
624.640363	2398.714591
624.987376	2398.495300
625.334336	2397.918088
625.681243	2400.741134
626.028097	2398.344066
626.374899	2396.788870
626.721647	2399.826165
627.068343	2398.638973
627.414987	2397.935732
627.761577	2401.041083
628.108115	2398.691905
628.454600	2398.984292
628.801032	2396.645197
629.147412	2398.545712
629.493739	2400.897410
629.840014	2401.182235
630.186236	2398.765002
630.532405	2399.662327
630.878521	2398.739796
631.224585	2397.671072
631.570597	2398.477656
631.916556	2399.662327
632.262462	2400.789025
632.608316	2400.206772
632.954117	2396.627553
633.299866	2401.348593
633.645562	2401.378840
633.991206	2399.105280
634.336797	2398.371792
634.682336	2401.094015
635.027823	2396.405742
635.373257	2398.419683
635.718639	2401.431772
636.063968	2399.392626
636.409245	2398.394477
636.754470	2401.711557
637.099642	2397.872718
637.444762	2400.960425
637.789829	2399.586710
638.134845	2400.814231
638.479808	2398.775084
638.824719	2397.976062
639.169577	2398.908675
639.514383	2401.353635
639.859137	2397.277862
640.203839	2398.540671
640.548489	2399.261556
640.893086	2396.120917
641.237632	2393.935577
641.582125	2397.439179
641.926566	2396.430948
642.270955	2401.255332
642.615292	2401.401526
642.959576	2399.531258
643.303809	2400.456309
643.647990	2396.839281
643.992118	2398.782646
644.336195	2401.159550
