Dividing Wavelength (nm)	Counts (n)	Blue Motor Position (mm): 19.000000	Red Motor Position (mm): 0.000000	
326.493990	1975.018213
326.888308	1975.018213
327.282561	1975.018213
327.676750	1949.527618
328.070874	1949.998966
328.464933	1957.631273
328.858929	1966.700309
329.252859	1978.680611
329.646726	1992.445482
330.040528	2008.806546
330.434265	2025.099556
330.827938	2047.174768
331.221547	2063.102294
331.615091	2084.217167
332.008571	2106.365476
332.401986	2129.408590
332.795338	2147.256796
333.188625	2168.633808
333.581847	2186.640810
333.975006	2205.356094
334.368100	2223.511809
334.761129	2243.111815
335.154095	2255.787797
335.546996	2289.916408
335.939833	2349.628876
336.332606	2364.298633
336.725315	2375.636188
337.117960	2386.446943
337.510540	2392.710576
337.903056	2403.604510
338.295508	2409.908473
338.687896	2414.574061
339.080220	2423.146543
339.472480	2429.556370
339.864676	2431.552667
340.256807	2436.419901
340.648875	2433.891762
341.040879	2438.602720
341.432818	2436.424942
341.824694	2442.005499
342.216506	2438.995930
342.608253	2441.133380
342.999937	2439.061465
343.391557	2438.335539
343.783113	2436.868563
344.174605	2431.910589
344.566033	2431.532502
344.957397	2431.620722
345.348697	2429.442944
345.739934	2425.362130
346.131106	2427.345824
346.522215	2422.828950
346.913260	2422.597057
347.304241	2422.017324
347.695159	2418.667477
348.086012	2418.254103
348.476802	2417.515574
348.867528	2415.221849
349.258191	2413.901067
349.648789	2412.113978
350.039324	2408.693555
350.429796	2410.737743
350.820203	2408.063410
351.210548	2412.015675
351.600828	2405.331105
351.991045	2404.579973
352.381198	2407.302196
352.771288	2408.197001
353.161314	2408.081054
353.551276	2404.645508
353.941175	2403.372617
354.331010	2404.690878
354.720782	2408.002917
355.110490	2412.166910
355.500135	2405.883111
355.889717	2407.765982
356.279235	2404.990827
356.668689	2408.368400
357.058080	2408.567526
357.447408	2410.510891
357.836672	2404.708523
358.225873	2406.447721
358.615010	2407.372772
359.004084	2413.727147
359.393095	2407.365211
359.782043	2411.693041
360.170927	2411.574574
360.559748	2410.079872
360.948505	2414.667322
361.337199	2415.718402
361.725830	2413.878381
362.114398	2413.986766
362.502903	2416.280491
362.891344	2417.291242
363.279722	2415.297466
363.668037	2416.368711
364.056289	2416.923238
364.444478	2417.082035
364.832603	2415.839390
365.220665	2417.349216
365.608665	2419.073290
365.996601	2421.735020
366.384474	2420.646130
366.772284	2420.290729
367.160031	2421.238466
367.547715	2417.621438
367.935336	2418.790986
368.322893	2419.370718
368.710388	2421.856007
369.097820	2421.636717
369.485189	2422.592016
369.872495	2423.348189
370.259738	2421.641758
370.646918	2424.900864
371.034035	2424.984043
371.421090	2422.728127
371.808081	2425.294074
372.195010	2423.280133
372.581875	2422.561769
372.968678	2423.151584
373.355418	2421.261151
373.742096	2423.648137
374.128710	2426.715680
374.515262	2422.765936
374.901751	2425.979671
375.288177	2426.587130
375.674540	2425.034455
376.060841	2427.865063
376.447079	2425.553694
376.833254	2425.684764
377.219367	2423.544794
377.605417	2426.249373
377.991404	2423.963210
378.377329	2428.399425
378.763191	2425.011770
379.148991	2428.964034
379.534727	2428.230546
379.920402	2430.347831
380.306013	2431.167018
380.691563	2432.644077
381.077049	2430.506627
381.462474	2426.161153
381.847835	2430.635177
382.233134	2430.352872
382.618371	2429.982347
383.003545	2432.197934
383.388657	2432.817996
383.773706	2433.322112
384.158693	2433.748089
384.543618	2431.837492
384.928480	2433.732966
385.313280	2434.574838
385.698017	2432.855805
386.082692	2431.983685
386.467305	2433.639704
386.851856	2436.258584
387.236344	2438.953081
387.620770	2436.233378
388.005133	2434.910075
388.389435	2435.963676
388.773674	2435.482246
389.157851	2436.210693
389.541965	2438.080961
389.926018	2436.072061
390.310008	2437.269335
390.693936	2436.276228
391.077802	2438.053235
391.461606	2435.467123
391.845348	2437.231527
392.229027	2436.351845
392.612645	2436.966866
392.996200	2441.574481
393.379694	2440.546085
393.763125	2438.753955
394.146494	2437.539037
394.529801	2438.365786
394.913047	2438.317895
395.296230	2441.405602
395.679351	2443.626230
396.062410	2440.949378
396.445408	2438.877463
396.828343	2441.395520
397.211217	2438.879984
397.594028	2441.234203
397.976778	2438.189346
398.359466	2438.355704
398.742092	2438.254881
399.124656	2442.681014
399.507158	2438.895107
399.889598	2446.121601
400.271977	2444.513473
400.654294	2443.711930
401.036549	2442.436518
401.418742	2443.268308
401.800874	2444.616817
402.182944	2443.379214
402.564952	2443.041456
402.946898	2446.731581
403.328783	2447.674277
403.710606	2447.228135
404.092367	2445.597321
404.474067	2444.430294
404.855705	2444.493309
405.237282	2447.674277
405.618797	2447.870882
406.000250	2445.294852
406.381642	2448.720316
406.762972	2448.604370
407.144240	2449.839452
407.525447	2449.985646
407.906593	2448.115378
408.287677	2449.836932
408.668700	2452.090328
409.049661	2449.292487
409.430560	2451.145111
409.811399	2448.468258
410.192176	2449.378187
410.572891	2450.782148
410.953545	2451.472786
411.334138	2450.028496
411.714669	2450.383897
412.095139	2451.354319
412.475547	2452.430605
412.855894	2449.484051
413.236180	2451.777776
413.616405	2452.138218
413.996568	2452.649896
414.376670	2452.576799
414.756711	2449.731067
415.136691	2453.330451
415.516609	2452.125616
415.896466	2452.511264
416.276262	2454.336162
416.655997	2451.671912
417.035670	2449.216870
417.415283	2453.713579
417.794834	2450.149483
418.174324	2454.358847
418.553753	2455.898919
418.933121	2455.969495
419.312428	2455.944290
419.691674	2455.546038
420.070859	2455.334310
420.449983	2457.413786
420.829045	2456.244238
421.208047	2455.483024
421.586988	2454.810030
421.965867	2457.622994
422.344686	2454.754577
422.723444	2460.745989
423.102141	2457.181893
423.480777	2459.175669
423.859352	2456.914712
424.237866	2457.302881
424.616319	2458.401852
424.994712	2459.997377
425.373044	2460.015021
425.751314	2460.251956
426.129524	2461.696246
426.507673	2458.989147
426.885762	2460.443519
427.263789	2459.208437
427.641756	2459.470577
428.019662	2458.928653
428.397508	2461.378653
428.775292	2461.396298
429.153016	2462.838068
429.530679	2463.216154
429.908282	2461.078705
430.285824	2461.976030
430.663305	2462.429734
431.040726	2461.295474
431.418086	2462.137347
431.795385	2464.978037
432.172624	2465.814869
432.549802	2462.013839
432.926920	2465.827472
433.303977	2466.351752
433.680974	2465.376288
434.057910	2466.369396
434.434786	2469.827627
434.811601	2467.405353
435.188355	2467.654890
435.565050	2470.077164
435.941683	2466.916361
436.318257	2467.037349
436.694770	2465.207410
437.071222	2466.455095
437.447614	2464.854529
437.823946	2468.408542
438.200218	2467.407873
438.576429	2465.214972
438.952580	2469.575570
439.328670	2467.478450
439.704700	2472.272587
440.080670	2467.395271
440.456580	2471.176136
440.832429	2473.565643
441.208218	2471.347535
441.583947	2472.622947
441.959616	2467.090281
442.335224	2470.440127
442.710773	2475.037660
443.086261	2472.915334
443.461689	2472.247381
443.837057	2471.070272
444.212365	2472.736373
444.587612	2475.345170
444.962800	2473.825262
445.337927	2473.500108
445.712995	2471.924747
446.088002	2477.994297
446.462949	2472.811990
446.837837	2476.328195
447.212664	2476.630664
447.587431	2480.076293
447.962139	2485.238435
448.336786	2486.743219
448.711374	2485.654330
449.085901	2482.065028
449.460369	2480.963536
449.834776	2482.566623
450.209124	2488.492499
450.583412	2484.865389
450.957640	2485.939155
451.331808	2485.407313
451.705917	2484.348671
452.079965	2484.653661
452.453954	2486.138281
452.827883	2487.852273
453.201752	2486.768425
453.575562	2485.987046
453.949311	2489.233549
454.323001	2488.258086
454.696632	2487.156594
455.070202	2492.328818
455.443713	2491.466780
455.817164	2489.407469
456.190556	2489.924187
456.563888	2494.186483
456.937160	2489.500730
457.310373	2493.231184
457.683526	2493.251349
458.056619	2497.238901
458.429653	2495.618170
458.802628	2499.888028
459.175542	2499.111690
459.548398	2503.326095
459.921194	2503.368944
460.293930	2507.248112
460.666607	2512.818587
461.039224	2516.554082
461.411782	2514.756911
461.784280	2516.654905
462.156719	2513.357991
462.529099	2518.134484
462.901419	2512.979904
463.273680	2517.355626
463.645882	2513.496623
464.018024	2516.576767
464.390106	2520.697911
464.762130	2526.845598
465.134094	2532.592513
465.505999	2548.998948
465.877845	2555.827191
466.249631	2562.368088
466.621358	2562.058057
466.993026	2561.800959
467.364634	2558.771225
467.736184	2552.008517
468.107674	2553.150339
468.479105	2553.046995
468.850477	2552.608415
469.221790	2550.644885
469.593043	2543.940151
469.964238	2545.545758
470.335373	2546.488454
470.706449	2554.191337
471.077467	2561.269117
471.448425	2576.347208
471.819324	2584.226532
472.190164	2580.211252
472.560945	2575.212948
472.931667	2569.581980
473.302330	2563.784653
473.672934	2564.752554
474.043479	2568.135168
474.413965	2566.983265
474.784393	2565.092832
475.154761	2574.023236
475.525070	2570.733883
475.895321	2574.429049
476.265513	2575.706982
476.635645	2586.341296
477.005719	2585.491861
477.375734	2590.280957
477.745691	2592.960331
478.115588	2601.356372
478.485427	2609.661673
478.855207	2624.144908
479.224928	2633.518934
479.594591	2643.848258
479.964194	2642.648463
480.333739	2645.156437
480.703226	2649.045688
481.072653	2657.338386
481.442022	2660.542039
481.811333	2664.955569
482.180584	2662.273675
482.549777	2666.384736
482.918912	2667.014881
483.287988	2668.635612
483.657005	2667.582010
484.025964	2666.185611
484.394864	2671.856909
484.763706	2674.387568
485.132489	2676.593073
485.501213	2679.030471
485.869879	2682.226562
486.238487	2688.008766
486.607036	2691.681246
486.975527	2695.086546
487.343959	2697.954962
487.712333	2705.993082
488.080648	2711.251006
488.448905	2722.548231
488.817104	2725.832543
489.185244	2740.814852
489.553326	2759.099117
489.921350	2784.138528
490.289315	2815.761687
490.657222	2834.509738
491.025070	2847.473065
491.392861	2847.858713
491.760593	2849.968436
492.128267	2851.173272
492.495883	2846.633713
492.863440	2848.846779
493.230939	2850.875844
493.598380	2854.840711
493.965763	2859.836495
494.333088	2871.388299
494.700354	2881.369783
495.067563	2895.643810
495.434713	2907.540933
495.801805	2933.512958
496.168839	2945.321861
496.535815	2962.078656
496.902733	2982.631441
497.269593	2999.292454
497.636395	3019.023530
498.003139	3051.037378
498.369825	3068.293247
498.736453	3098.817434
499.103023	3119.176134
499.469535	3146.587408
499.835989	3174.588497
500.202385	3200.941128
500.568723	3237.353383
500.935003	3276.369393
501.301226	3306.336532
501.667390	3358.189840
502.033497	3403.580390
502.399546	3431.493258
502.765537	3457.745067
503.131470	3506.919002
503.497345	3563.059812
503.863163	3578.642019
504.228923	3640.950680
504.594625	3705.260680
504.960269	3738.038262
505.325856	3814.091630
505.691385	3851.139069
506.056856	3913.843461
506.422270	3992.036799
506.787625	4042.745765
507.152924	4114.834265
507.518164	4188.629196
507.883347	4222.604052
508.248472	4310.088236
508.613540	4409.275458
508.978550	4498.685363
509.343503	4572.054316
509.708398	4661.988501
510.073236	4778.048465
510.438016	4869.638669
510.802738	4928.168986
511.167403	5059.458276
511.532010	5170.693856
511.896561	5292.354542
512.261053	5452.010405
512.625488	5521.434655
512.989866	5619.631291
513.354186	5716.605447
513.718449	5822.797353
514.082655	5997.490978
514.446803	6088.572025
514.810894	6249.389874
515.174927	6370.793461
515.538904	6487.463405
515.902822	6674.659092
516.266684	6753.306133
516.630488	6925.073368
516.994235	7040.190636
517.357925	7244.458190
517.721558	7409.543376
518.085133	7583.949655
518.448651	7754.368381
518.812112	7870.660239
519.175516	8033.161833
519.538863	8225.975885
519.902152	8382.367601
520.265385	8603.366744
520.628560	8770.087784
520.991678	8900.036128
521.354739	9097.200696
521.717743	9315.056680
522.080690	9466.566038
522.443580	9731.382891
522.806413	9915.702599
523.169189	10080.013967
523.531908	10290.764445
523.894569	10444.527199
524.257174	10659.459314
524.619722	10901.603577
524.982213	11084.526886
525.344647	11257.201528
525.707025	11456.183432
526.069345	11735.160886
526.431608	11902.680949
526.793815	12179.954493
527.155964	12267.456321
527.518057	12513.709124
527.880093	12664.916013
528.242072	13005.788754
528.603995	13135.674083
528.965860	13347.793234
529.327669	13572.527873
529.689421	13765.142799
530.051117	13960.553046
530.412755	14206.415160
530.774337	14437.736066
531.135862	14610.478764
531.497331	14877.251585
531.858743	15065.097580
532.220098	15387.184461
532.581396	15522.093299
532.942638	15639.897503
533.303824	15952.612879
533.664953	16174.796694
534.026025	16305.871735
534.387040	16687.403902
534.747999	16886.123666
535.108902	17194.296962
535.469748	17246.488028
535.830537	17523.194442
536.191270	17842.543977
536.551947	17944.982743
536.912567	18310.174010
537.273131	18582.169466
537.633638	18625.162947
537.994089	18992.705912
538.354483	19070.349763
538.714821	19543.981291
539.075103	19927.862635
539.435328	20074.676159
539.795497	20265.060375
540.155609	20499.257259
540.515665	20951.042946
540.875665	20939.922161
541.235609	21321.280408
541.595496	21563.938869
541.955328	22124.396710
542.315102	22062.224159
542.674821	22208.828475
543.034483	22462.073359
543.394090	22692.572557
543.753640	22913.551536
544.113134	23658.492922
544.472571	23414.765736
544.831953	24289.040445
545.191278	24130.226455
545.550548	24221.390681
545.909761	24701.452200
546.268918	25045.500868
546.628019	25455.318949
546.987064	25458.308353
547.346053	25300.762213
547.704986	26030.171804
548.063863	26017.284095
548.422684	26363.472732
548.781449	26515.725661
549.140158	26970.281462
549.498811	27128.795503
549.857408	27007.401998
550.215949	27743.773423
550.574434	27941.311036
550.932864	28038.771663
551.291237	28698.711634
551.649555	28683.348718
552.007817	29059.315451
552.366022	29066.347861
552.724173	29408.095242
553.082267	29876.476407
553.440305	30302.179164
553.798288	30074.505533
554.156215	30507.850679
554.514086	30853.157115
554.871902	30907.387328
555.229661	31116.968258
555.587365	31226.585627
555.945014	31507.929903
556.302606	31641.165078
556.660143	32010.238034
557.017625	32280.527059
557.375050	32346.301514
557.732421	32798.742551
558.089735	32992.953003
558.446994	33132.814775
558.804197	33665.173224
559.161345	33819.908921
559.518437	33479.951150
559.875474	33898.203081
560.232455	34213.716298
560.589381	34538.946338
560.946251	34501.798075
561.303065	35196.804312
561.659825	35229.740691
562.016528	35162.169065
562.373177	35141.606198
562.729770	35690.035846
563.086307	35498.519890
563.442789	36026.837855
563.799216	36234.729998
564.155587	36242.359784
564.511904	36435.509073
564.868164	36672.120670
565.224370	37037.992493
565.580520	36991.697057
565.936615	37322.631163
566.292654	37251.250945
566.648638	37604.358566
567.004567	37723.281906
567.360441	37907.599093
567.716260	37941.858775
568.072023	38345.014971
568.427732	38499.034824
568.783385	38251.804037
569.138982	38720.580933
569.494525	38838.168367
569.850013	38778.687793
570.205445	38901.452492
570.560823	38975.002926
570.916145	39015.828711
571.271412	39165.636680
571.626625	39086.160369
571.981782	39264.551680
572.336884	39124.561358
572.691931	39512.750369
573.046923	39288.224938
573.401860	39280.653125
573.756743	39384.770596
574.111570	39596.930076
574.466342	39581.920041
574.821059	39808.464453
575.175722	39499.920632
575.530330	39618.760793
575.884882	39486.664918
576.239380	39552.930886
576.593823	39631.146908
576.948211	39664.151342
577.302544	39359.438798
577.656823	39469.061209
578.011047	39755.446638
578.365216	39608.686047
578.719330	39512.962097
579.073389	39473.457095
579.427394	39657.411320
579.781344	39716.254188
580.135239	39476.791818
580.489080	39639.109411
580.842866	39269.565107
581.196597	39763.600705
581.550273	39778.585535
581.903895	39724.695600
582.257463	40194.745388
582.610975	39726.656609
582.964434	40053.275487
583.317837	39813.495525
583.671186	39733.384029
584.024481	40009.200679
584.377721	39657.865023
584.730906	39990.866003
585.084037	40079.691133
585.437113	39891.328420
585.790135	39992.416157
586.143103	39704.931756
586.496016	39880.268128
586.848874	39971.326490
587.201679	40051.642153
587.554428	39624.903439
587.907124	39857.729129
588.259765	39692.646464
588.612352	39997.202733
588.964884	39486.987552
589.317362	39801.994133
589.669786	39820.457358
590.022155	39655.425105
590.374470	40093.057753
590.726731	39717.801822
591.078937	39341.242753
591.431090	39458.252975
591.783188	39200.229077
592.135232	38944.652660
592.487222	39226.856452
592.839157	39369.803410
593.191038	39088.469217
593.542866	38910.093029
593.894639	38395.272755
594.246358	38692.514309
594.598022	38711.416115
594.949633	38387.186744
595.301190	38398.660410
595.652692	38279.790002
596.004141	38620.511508
596.355535	37731.594768
596.706876	37738.244050
597.058162	37614.977757
597.409395	38087.296063
597.760573	38198.145995
598.111698	37813.717685
598.462768	37870.314719
598.813785	37943.300545
599.164748	37473.026426
599.515657	37881.687562
599.866511	37413.989473
600.217312	38028.309522
600.568060	37071.092709
600.918753	37810.027561
601.269392	37797.258318
601.619978	37483.166707
601.970510	37713.166831
602.320988	37926.263965
602.671412	38242.929085
603.021783	38011.998869
603.372100	37707.324133
603.722363	37847.495937
604.072572	37925.467463
604.422728	37972.718198
604.772830	37806.592014
605.122878	37918.286339
605.472872	37898.106601
605.822813	38193.004018
606.172701	38042.709578
606.522534	38289.882392
606.872314	38558.268382
607.222041	38345.148562
607.571714	38730.544773
607.921333	38210.443890
608.270899	38525.216057
608.620411	38876.692865
608.969870	38692.448774
609.319276	38694.772746
609.668627	38783.431518
610.017926	39253.481306
610.367171	39437.803535
610.716362	39530.790138
611.065500	39501.117906
611.414585	39699.696518
611.763616	40018.065548
612.112594	39933.280902
612.461518	40167.142550
612.810389	40459.794133
613.159207	40353.637516
613.507971	40436.004928
613.856682	40917.233474
614.205340	40799.633437
614.553945	41496.336023
614.902496	40970.173152
615.250994	41431.534510
615.599439	41526.797195
615.947830	41761.077258
616.296169	41803.233907
616.644454	41951.549694
616.992686	42122.588482
617.340864	42659.670493
617.688990	42389.018504
618.037063	42980.277795
618.385082	42957.811893
618.733048	43259.688788
619.080961	43280.100420
619.428821	43297.464674
619.776628	43408.231427
620.124382	43237.860592
620.472083	43374.377559
620.819731	43507.133825
621.167326	43208.160634
621.514868	43205.733318
621.862357	42750.144081
622.209793	42807.794716
622.557176	42473.180568
622.904506	42241.136256
623.251783	41909.710638
623.599007	41675.075173
623.946179	41480.181645
624.293297	41419.581935
624.640363	40854.539165
624.987376	40845.999450
625.334336	40620.178443
625.681243	40276.477615
626.028097	40236.541594
626.374899	40104.498651
626.721647	40086.448800
627.068343	39997.341365
627.414987	39769.965162
627.761577	39544.060975
628.108115	39886.834231
628.454600	39336.118420
628.801032	39524.650012
629.147412	39493.984674
629.493739	39516.017037
629.840014	39173.180766
630.186236	39530.321311
630.532405	39134.752051
630.878521	39357.883602
631.224585	39240.684337
631.570597	38962.092531
631.916556	39119.684042
632.262462	39092.734033
632.608316	39088.643137
632.954117	38994.774332
633.299866	38981.516097
633.645562	38905.898789
633.991206	38422.051364
634.336797	38006.234309
634.682336	38005.805811
635.027823	37755.764581
635.373257	37598.674665
635.718639	37350.191151
636.063968	37227.086174
636.409245	36643.872565
636.754470	36708.575774
637.099642	36477.189333
637.444762	36013.302357
637.789829	36156.728225
638.134845	35820.062327
638.479808	35767.152897
638.824719	35665.303945
639.169577	35287.633302
639.514383	35358.769023
