Dividing Wavelength (nm)	Counts (n)	Blue Motor Position (mm): 20.200000	Red Motor Position (mm): 0.000000	
326.493990	1971.262553
326.888308	1971.262553
327.282561	1971.262553
327.676750	1948.300097
328.070874	1949.449480
328.464933	1954.702363
328.858929	1966.218879
329.252859	1977.924438
329.646726	1992.309370
330.040528	2008.897287
330.434265	2024.479494
330.827938	2046.605118
331.221547	2066.182439
331.615091	2086.848649
332.008571	2105.208531
332.401986	2129.471605
332.795338	2148.902732
333.188625	2170.478871
333.581847	2188.349761
333.975006	2203.097657
334.368100	2224.031048
334.761129	2237.937071
335.154095	2255.339134
335.546996	2289.495472
335.939833	2352.915708
336.332606	2367.194776
336.725315	2378.194574
337.117960	2387.404762
337.510540	2396.405742
337.903056	2404.542164
338.295508	2410.200860
338.687896	2415.594894
339.080220	2424.502613
339.472480	2428.482604
339.864676	2435.736824
340.256807	2435.325970
340.648875	2435.315888
341.040879	2438.635488
341.432818	2442.471806
341.824694	2441.135900
342.216506	2442.723864
342.608253	2442.723864
342.999937	2442.655808
343.391557	2440.263781
343.783113	2439.817638
344.174605	2435.729263
344.566033	2431.968562
344.957397	2434.637853
345.348697	2430.093253
345.739934	2426.355237
346.131106	2427.983530
346.522215	2427.353386
346.913260	2424.341296
347.304241	2424.273241
347.695159	2422.171079
348.086012	2419.988260
348.476802	2417.835687
348.867528	2419.083373
349.258191	2416.676222
349.648789	2412.434091
350.039324	2410.183216
350.429796	2417.422312
350.820203	2412.237486
351.210548	2409.137176
351.600828	2407.995355
351.991045	2410.170613
352.381198	2411.105747
352.771288	2410.130283
353.161314	2409.976528
353.551276	2408.050808
353.941175	2407.861764
354.331010	2408.610376
354.720782	2410.326888
355.110490	2414.120357
355.500135	2409.553071
355.889717	2412.146745
356.279235	2410.468041
356.668689	2409.608524
357.058080	2411.405695
357.447408	2408.857392
357.836672	2406.964439
358.225873	2407.667680
358.615010	2407.970149
359.004084	2411.783782
359.393095	2412.454255
359.782043	2415.103382
360.170927	2414.324523
360.559748	2416.567837
360.948505	2417.487848
361.337199	2416.227559
361.725830	2419.907601
362.114398	2419.774011
362.502903	2419.022879
362.891344	2419.622776
363.279722	2416.288053
363.668037	2416.434246
364.056289	2419.622776
364.444478	2418.100348
364.832603	2418.491037
365.220665	2423.161666
365.608665	2423.131419
365.996601	2421.510688
366.384474	2420.578075
366.772284	2422.695359
367.160031	2421.205698
367.547715	2423.801893
367.935336	2419.277457
368.322893	2422.279464
368.710388	2420.565472
369.097820	2427.189548
369.485189	2424.421955
369.872495	2423.023034
370.259738	2425.704928
370.646918	2425.347006
371.034035	2426.783735
371.421090	2426.294743
371.808081	2425.709969
372.195010	2424.081677
372.581875	2425.531008
372.968678	2425.936821
373.355418	2428.132244
373.742096	2428.550660
374.128710	2430.814138
374.515262	2426.423293
374.901751	2428.038983
375.288177	2428.517892
375.674540	2429.516041
376.060841	2433.881680
376.447079	2430.748603
376.833254	2428.974117
377.219367	2426.715680
377.605417	2430.478901
377.991404	2429.226174
378.377329	2425.251224
378.763191	2426.960176
379.148991	2431.819848
379.534727	2430.022677
379.920402	2432.865887
380.306013	2435.280600
380.691563	2433.964859
381.077049	2433.392688
381.462474	2430.965372
381.847835	2434.476536
382.233134	2431.751792
382.618371	2439.517690
383.003545	2432.820517
383.388657	2434.789087
383.773706	2437.097936
384.158693	2435.167174
384.543618	2436.631629
384.928480	2434.658018
385.313280	2433.448141
385.698017	2433.896803
386.082692	2437.344952
386.467305	2435.809921
386.851856	2436.432504
387.236344	2437.115580
387.620770	2439.799994
388.005133	2439.336208
388.389435	2439.089192
388.773674	2436.286310
389.157851	2440.341918
389.541965	2438.600200
389.926018	2439.600869
390.310008	2438.494336
390.693936	2441.266970
391.077802	2438.176743
391.461606	2441.246806
391.845348	2441.841662
392.229027	2441.456013
392.612645	2443.394337
392.996200	2443.716971
393.379694	2442.514656
393.763125	2443.457352
394.146494	2442.108843
394.529801	2445.317537
394.913047	2442.224789
395.296230	2445.972887
395.679351	2445.143618
396.062410	2442.340736
396.445408	2446.103957
396.828343	2442.839810
397.211217	2440.478030
397.594028	2443.404419
397.976778	2443.290993
398.359466	2447.165120
398.742092	2441.917279
399.124656	2445.660336
399.507158	2447.260902
399.889598	2446.487085
400.271977	2446.063628
400.654294	2447.845676
401.036549	2445.287290
401.418742	2447.817950
401.800874	2448.382559
402.182944	2446.287959
402.564952	2446.547579
402.946898	2449.421037
403.328783	2450.043619
403.710606	2447.139914
404.092367	2452.418002
404.474067	2448.624534
404.855705	2450.222580
405.237282	2449.602518
405.618797	2450.824998
406.000250	2450.164607
406.381642	2452.362550
406.762972	2453.648044
407.144240	2452.586881
407.525447	2452.385235
407.906593	2449.768876
408.287677	2451.001438
408.668700	2451.765173
409.049661	2454.678960
409.430560	2454.159721
409.811399	2452.566717
410.192176	2452.231480
410.572891	2452.493620
410.953545	2453.731223
411.334138	2452.536470
411.714669	2452.415482
412.095139	2454.484876
412.475547	2452.211315
412.855894	2455.649382
413.236180	2454.615946
413.616405	2454.726851
413.996568	2454.167283
414.376670	2456.788683
414.756711	2453.643003
415.136691	2456.438323
415.516609	2454.252982
415.896466	2456.955041
416.276262	2456.677777
416.655997	2454.106789
417.035670	2455.334310
417.415283	2455.762808
417.794834	2451.389607
418.174324	2458.827830
418.553753	2457.197016
418.933121	2459.329424
419.312428	2460.123406
419.691674	2456.622325
420.070859	2460.902264
420.449983	2460.715742
420.829045	2459.631894
421.208047	2460.625001
421.586988	2462.220526
421.965867	2459.629373
422.344686	2461.393777
422.723444	2460.244394
423.102141	2462.759930
423.480777	2461.628191
423.859352	2462.170115
424.237866	2462.104580
424.616319	2465.882924
424.994712	2464.806638
425.373044	2463.392594
425.751314	2464.138685
426.129524	2461.434106
426.507673	2463.984930
426.885762	2469.477267
427.263789	2467.533902
427.641756	2463.102728
428.019662	2466.772688
428.397508	2465.088943
428.775292	2467.480970
429.153016	2463.208592
429.530679	2468.567339
429.908282	2466.603809
430.285824	2467.869139
430.663305	2469.678913
431.040726	2468.043059
431.418086	2466.203038
431.795385	2472.668318
432.172624	2468.799232
432.549802	2470.871146
432.926920	2472.615385
433.303977	2470.548512
433.680974	2469.759572
434.057910	2469.978862
434.434786	2469.827627
434.811601	2473.222844
435.188355	2471.244192
435.565050	2472.166723
435.941683	2473.820221
436.318257	2475.304841
436.694770	2471.365179
437.071222	2470.682103
437.447614	2470.805611
437.823946	2471.072792
438.200218	2476.325675
438.576429	2473.868112
438.952580	2474.926754
439.328670	2474.367186
439.704700	2475.350211
440.080670	2473.835345
440.456580	2478.246354
440.832429	2477.742239
441.208218	2476.570171
441.583947	2478.009420
441.959616	2475.481281
442.335224	2480.267857
442.710773	2477.354070
443.086261	2479.370532
443.461689	2480.393886
443.837057	2479.541931
444.212365	2476.993628
444.587612	2479.352888
444.962800	2482.874133
445.337927	2482.251551
445.712995	2477.699389
446.088002	2479.436067
446.462949	2480.587970
446.837837	2480.708958
447.212664	2480.104019
447.587431	2489.203302
447.962139	2487.910246
448.336786	2495.025835
448.711374	2493.861328
449.085901	2489.662047
449.460369	2489.969558
449.834776	2488.560555
450.209124	2494.456184
450.583412	2491.623056
450.957640	2493.389980
451.331808	2493.982316
451.705917	2491.418889
452.079965	2491.222284
452.453954	2492.399394
452.827883	2496.124806
453.201752	2496.268479
453.575562	2492.860659
453.949311	2497.311998
454.323001	2496.197903
454.696632	2500.271155
455.070202	2499.782163
455.443713	2502.451454
455.817164	2498.950373
456.190556	2501.448265
456.563888	2504.636795
456.937160	2503.623523
457.310373	2505.723163
457.683526	2505.755931
458.056619	2508.606703
458.429653	2507.273318
458.802628	2508.392454
459.175542	2511.412105
459.548398	2513.983094
459.921194	2516.914525
460.293930	2521.539783
460.666607	2528.249559
461.039224	2529.033459
461.411782	2532.549663
461.784280	2534.946732
462.156719	2532.300126
462.529099	2531.067564
462.901419	2530.981865
463.273680	2532.277441
463.645882	2530.334076
464.018024	2533.416742
464.390106	2541.369162
464.762130	2546.264122
465.134094	2557.009342
465.505999	2571.502659
465.877845	2584.423137
466.249631	2590.439754
466.621358	2586.487489
466.993026	2585.365832
467.364634	2584.193764
467.736184	2578.620768
468.107674	2576.339646
468.479105	2577.375603
468.850477	2574.945767
469.221790	2572.888977
469.593043	2570.600293
469.964238	2568.641804
470.335373	2569.970148
470.706449	2579.865933
471.077467	2588.806420
471.448425	2602.372165
471.819324	2616.633589
472.190164	2615.537138
472.560945	2604.237392
472.931667	2596.960486
473.302330	2594.081987
473.672934	2595.364961
474.043479	2598.606423
474.413965	2595.238932
474.784393	2593.192224
475.154761	2604.169336
475.525070	2604.552464
475.895321	2604.504573
476.265513	2606.258894
476.635645	2618.135853
477.005719	2619.469238
477.375734	2625.576596
477.745691	2631.668830
478.115588	2639.696868
478.485427	2648.617190
478.855207	2669.064110
479.224928	2687.272757
479.594591	2699.847916
479.964194	2700.377237
480.333739	2705.378061
480.703226	2711.182950
481.072653	2722.250803
481.442022	2732.592730
481.811333	2737.734707
482.180584	2740.933319
482.549777	2746.760893
482.918912	2749.692324
483.287988	2759.671288
483.657005	2760.724889
484.025964	2766.867535
484.394864	2776.554112
484.763706	2789.323355
485.132489	2789.570372
485.501213	2799.453554
485.869879	2814.070379
486.238487	2828.145281
486.607036	2842.991479
486.975527	2852.506657
487.343959	2872.910727
487.712333	2888.664333
488.080648	2906.474729
488.448905	2932.814758
488.817104	2950.216821
489.185244	2986.923983
489.553326	3035.805531
489.921350	3101.897579
490.289315	3179.370031
490.657222	3227.324007
491.025070	3266.113165
491.392861	3284.115126
491.760593	3293.436219
492.128267	3295.321611
492.495883	3304.214206
492.863440	3314.266267
493.230939	3329.573731
493.598380	3351.497709
493.965763	3384.882750
494.333088	3413.007347
494.700354	3443.564301
495.067563	3486.237669
495.434713	3535.088970
495.801805	3592.658947
496.168839	3635.526399
496.535815	3681.826876
496.902733	3737.476173
497.269593	3790.007517
497.636395	3848.069007
498.003139	3927.010955
498.369825	3974.092812
498.736453	4054.751273
499.103023	4109.180611
499.469535	4177.992361
499.835989	4258.073611
500.202385	4317.229030
500.568723	4403.679778
500.935003	4502.103265
501.301226	4583.268363
501.667390	4709.251839
502.033497	4814.019618
502.399546	4871.899626
502.765537	4926.422226
503.131470	5046.363879
503.497345	5173.559752
503.863163	5190.742525
504.228923	5334.700235
504.594625	5478.000074
504.960269	5534.587026
505.325856	5701.383683
505.691385	5768.063025
506.056856	5898.883488
506.422270	6058.688065
506.787625	6149.920347
507.152924	6288.393281
507.518164	6427.516524
507.883347	6485.068857
508.248472	6643.766901
508.613540	6828.182391
508.978550	7004.297621
509.343503	7117.874817
509.708398	7287.297916
510.073236	7498.998651
510.438016	7660.607961
510.802738	7736.641164
511.167403	7976.826939
511.532010	8181.185233
511.896561	8382.523877
512.261053	8673.796705
512.625488	8777.692365
512.989866	8923.842977
513.354186	9070.175070
513.718449	9240.107325
514.082655	9539.141009
514.446803	9662.679526
514.810894	9941.351990
515.174927	10116.557292
515.538904	10273.138051
515.902822	10595.540004
516.266684	10683.921513
516.630488	10959.912083
516.994235	11124.914090
517.357925	11441.546442
517.721558	11693.538599
518.085133	11968.205867
518.448651	12205.432484
518.812112	12367.190508
519.175516	12601.233638
519.538863	12918.085280
519.902152	13125.848874
520.265385	13461.393115
520.628560	13696.328529
520.991678	13863.596534
521.354739	14149.024144
521.717743	14467.466271
522.080690	14674.955122
522.443580	15069.574124
522.806413	15321.926724
523.169189	15529.171079
523.531908	15819.322251
523.894569	16026.909404
524.257174	16314.280379
524.619722	16661.580591
524.982213	16911.465546
525.344647	17124.340870
525.707025	17401.490906
526.069345	17796.122511
526.431608	18032.635806
526.793815	18398.782371
527.155964	18481.716914
527.518057	18796.879770
527.880093	18958.509245
528.242072	19431.316543
528.603995	19558.996367
528.965860	19812.979780
529.327669	20112.588156
529.689421	20330.013122
530.051117	20573.851213
530.412755	20882.712627
530.774337	21159.078763
531.135862	21336.484528
531.497331	21685.120646
531.858743	21874.426055
532.220098	22318.483653
532.581396	22425.963574
532.942638	22514.866843
533.303824	22930.557868
533.664953	23164.565709
534.026025	23267.485906
534.387040	23765.627523
534.747999	23987.055165
535.108902	24330.577032
535.469748	24330.882022
535.830537	24634.523321
536.191270	25005.723643
536.551947	25059.575769
536.912567	25475.344933
537.273131	25795.589272
537.633638	25747.882312
537.994089	26184.801637
538.354483	26204.706633
538.714821	26790.297146
539.075103	27231.574548
539.435328	27343.765427
539.795497	27512.260953
540.155609	27748.494463
540.515665	28280.338715
540.875665	28180.647377
541.235609	28620.830848
541.595496	28842.762605
541.955328	29510.486117
542.315102	29345.632825
542.674821	29433.301011
543.034483	29710.027589
543.394090	29893.563398
543.753640	30103.086355
544.113134	30998.922078
544.472571	30575.102192
544.831953	31634.543523
545.191278	31318.735399
545.550548	31347.142301
545.909761	31887.208674
546.268918	32258.865221
546.628019	32677.797708
546.987064	32591.541046
547.346053	32270.800153
547.704986	33130.952069
548.063863	33003.673017
548.422684	33355.769886
548.781449	33446.911427
549.140158	33964.577433
549.498811	34046.917120
549.857408	33822.464786
550.215949	34647.048841
550.574434	34788.949760
550.932864	34796.884536
551.291237	35542.077980
551.649555	35427.674035
552.007817	35802.584646
552.366022	35711.296912
552.724173	36032.912445
553.082267	36536.359877
553.440305	36942.192926
553.798288	36569.480257
554.156215	36999.599065
554.514086	37342.253854
554.871902	37290.455998
555.229661	37472.305541
555.587365	37510.661160
555.945014	37748.202850
556.302606	37845.497119
556.660143	38195.728762
557.017625	38416.617000
557.375050	38406.101153
557.732421	38869.582317
558.089735	39011.957105
558.446994	39072.894572
558.804197	39628.238162
559.161345	39720.529086
559.518437	39224.638344
559.875474	39638.305347
560.232455	39932.439029
560.589381	40218.922761
560.946251	40079.476884
561.303065	40810.577782
561.659825	40774.987236
562.016528	40614.759203
562.373177	40517.437207
562.729770	41064.064642
563.086307	40757.005441
563.442789	41288.413632
563.799216	41453.750875
564.155587	41369.684594
564.511904	41540.126005
564.868164	41698.733308
565.224370	42057.366034
565.580520	41930.727208
565.936615	42230.401119
566.292654	42071.095617
566.648638	42396.776840
567.004567	42471.728716
567.360441	42596.630864
567.716260	42572.251844
568.072023	42945.125829
568.427732	43036.247206
568.783385	42710.777710
569.138982	43152.428158
569.494525	43210.905542
569.850013	43065.017071
570.205445	43148.221315
570.560823	43174.279039
570.916145	43142.280315
571.271412	43255.895320
571.626625	43105.192546
571.981782	43232.832041
572.336884	43011.520346
572.691931	43400.853699
573.046923	43098.112246
573.401860	43017.610060
573.756743	43084.445677
574.111570	43252.795010
574.466342	43180.769525
574.821059	43357.444323
575.175722	42989.614012
575.530330	43044.580233
575.884882	42873.952299
576.239380	42885.279771
576.593823	42927.607820
576.948211	42887.485276
577.302544	42521.253011
577.656823	42596.028446
578.011047	42850.576468
578.365216	42656.754185
578.719330	42515.284285
579.073389	42413.515992
579.427394	42544.376784
579.781344	42559.333887
580.135239	42276.855352
580.489080	42417.354830
580.842866	41969.284473
581.196597	42441.358284
581.550273	42437.784106
581.903895	42333.280987
582.257463	42790.939618
582.610975	42236.909249
582.964434	42543.978532
583.317837	42252.937597
583.671186	42132.895122
584.024481	42398.440421
584.377721	41978.623211
584.730906	42282.972792
585.084037	42348.585930
585.437113	42088.737134
585.790135	42165.549196
586.143103	41841.087931
586.496016	41985.360713
586.848874	42022.113245
587.201679	42060.806622
587.554428	41611.644855
587.907124	41810.820843
588.259765	41598.386620
588.612352	41878.601677
588.964884	41335.021620
589.317362	41623.887297
589.669786	41594.031063
590.022155	41395.084448
590.374470	41814.722697
590.726731	41390.617985
591.078937	40951.026849
591.431090	41060.228324
591.783188	40746.945818
592.135232	40437.665988
592.487222	40713.626312
592.839157	40809.337659
593.191038	40507.072595
593.542866	40311.536319
593.894639	39741.976675
594.246358	40022.595025
594.598022	40003.078198
594.949633	39649.894959
595.301190	39618.997727
595.652692	39477.631171
596.004141	39819.489457
596.355535	38884.443639
596.706876	38841.671969
597.058162	38683.725057
597.409395	39141.154316
597.760573	39244.563505
598.111698	38824.645472
598.462768	38846.957619
598.813785	38907.955580
599.164748	38379.987976
599.515657	38777.228379
599.866511	38276.684652
600.217312	38892.660719
600.568060	37901.504338
600.918753	38623.324472
601.269392	38600.137685
601.619978	38259.965665
601.970510	38473.720670
602.320988	38673.000002
602.671412	38959.604722
603.021783	38718.655212
603.372100	38375.473623
603.722363	38509.964046
604.072572	38594.436140
604.422728	38593.649720
604.772830	38420.234028
605.122878	38524.951396
605.472872	38479.291145
605.822813	38744.241588
606.172701	38595.068805
606.522534	38823.523815
606.872314	39092.880227
607.222041	38859.028662
607.571714	39258.910629
607.921333	38707.877225
608.270899	39005.600210
608.620411	39341.018422
608.969870	39156.013117
609.319276	39152.242334
609.668627	39214.316582
610.017926	39698.741219
610.367171	39852.486329
610.716362	39962.506992
611.065500	39910.535216
611.414585	40093.229152
611.763616	40389.245706
612.112594	40315.932205
612.461518	40543.426876
612.810389	40848.996416
613.159207	40725.001675
613.507971	40805.395476
613.856682	41264.828594
614.205340	41154.137458
614.553945	41842.305370
614.902496	41305.011631
615.250994	41772.722323
615.599439	41855.616537
615.947830	42069.124525
616.296169	42113.564817
616.644454	42262.656942
616.992686	42437.779065
617.340864	42956.738127
617.688990	42683.608412
618.037063	43282.482365
618.385082	43243.937703
618.733048	43538.625913
619.080961	43561.938729
619.428821	43587.308335
619.776628	43689.318604
620.124382	43518.085731
620.472083	43649.564065
620.819731	43778.993169
621.167326	43448.353971
621.514868	43435.526755
621.862357	43015.502858
622.209793	43038.987073
622.557176	42697.998385
622.904506	42465.439876
623.251783	42116.856691
623.599007	41895.502146
623.946179	41686.016998
624.293297	41648.387305
624.640363	41059.915772
624.987376	41041.439943
625.334336	40805.881948
625.681243	40470.325104
626.028097	40432.029978
626.374899	40286.736363
626.721647	40278.052975
627.068343	40179.299292
627.414987	39935.085635
627.761577	39707.550636
628.108115	40058.553575
628.454600	39496.333851
628.801032	39696.477741
629.147412	39676.547540
629.493739	39664.925159
629.840014	39333.325621
630.186236	39680.693889
630.532405	39302.062906
630.878521	39513.458651
631.224585	39387.704548
631.570597	39091.788817
631.916556	39265.874983
632.262462	39225.132377
632.608316	39241.889173
632.954117	39134.938573
633.299866	39130.063777
633.645562	39051.797343
633.991206	38551.354439
634.336797	38138.050400
634.682336	38122.185889
635.027823	37887.865497
635.373257	37699.195273
635.718639	37462.588717
636.063968	37343.945161
636.409245	36769.452748
636.754470	36819.244225
637.099642	36591.442044
637.444762	36114.168283
637.789829	36258.299913
638.134845	35916.638232
638.479808	35865.200818
638.824719	35766.762207
639.169577	35389.845216
