Dividing Wavelength (nm)	Counts (n)	Blue Motor Position (mm): 17.800000	Red Motor Position (mm): 0.000000	
326.493990	1973.596607
326.888308	1973.596607
327.282561	1973.596607
327.676750	1948.579881
328.070874	1950.160283
328.464933	1955.105655
328.858929	1966.851543
329.252859	1978.110961
329.646726	1992.730307
330.040528	2006.961484
330.434265	2027.942766
330.827938	2045.223842
331.221547	2066.061451
331.615091	2087.849318
332.008571	2107.353542
332.401986	2129.438837
332.795338	2147.440798
333.188625	2169.914262
333.581847	2186.539987
333.975006	2205.461958
334.368100	2223.408466
334.761129	2241.342370
335.154095	2255.692015
335.546996	2287.983126
335.939833	2347.738443
336.332606	2361.465505
336.725315	2374.655684
337.117960	2384.112888
337.510540	2387.059443
337.903056	2397.691236
338.295508	2402.061917
338.687896	2415.108423
339.080220	2420.389032
339.472480	2422.768456
339.864676	2429.258942
340.256807	2429.682399
340.648875	2434.597524
341.040879	2434.499221
341.432818	2436.702205
341.824694	2437.816300
342.216506	2437.418049
342.608253	2434.849581
342.999937	2435.404108
343.391557	2433.727925
343.783113	2432.523089
344.174605	2431.986206
344.566033	2428.220464
344.957397	2427.839857
345.348697	2425.248704
345.739934	2424.328693
346.131106	2422.511357
346.522215	2420.789803
346.913260	2418.425502
347.304241	2420.999011
347.695159	2415.476427
348.086012	2415.365522
348.476802	2411.325037
348.867528	2414.014492
349.258191	2411.050294
349.648789	2409.996693
350.039324	2405.474778
350.429796	2407.526528
350.820203	2404.096022
351.210548	2405.666342
351.600828	2404.572411
351.991045	2402.664335
352.381198	2403.155847
352.771288	2404.539644
353.161314	2402.107287
353.551276	2401.968655
353.941175	2400.388254
354.331010	2403.289438
354.720782	2405.578122
355.110490	2406.634243
355.500135	2403.591907
355.889717	2404.524520
356.279235	2403.975035
356.668689	2404.564850
357.058080	2404.947977
357.447408	2404.443862
357.836672	2404.131310
358.225873	2405.010992
358.615010	2402.104767
359.004084	2407.125756
359.393095	2407.949984
359.782043	2409.943761
360.170927	2409.490057
360.559748	2411.410737
360.948505	2408.718760
361.337199	2409.033832
361.725830	2412.950809
362.114398	2410.410067
362.502903	2413.449883
362.891344	2410.657084
363.279722	2412.126580
363.668037	2415.695717
364.056289	2413.336457
364.444478	2415.625141
364.832603	2414.407702
365.220665	2415.287384
365.608665	2414.359812
365.996601	2417.006417
366.384474	2416.870306
366.772284	2418.107909
367.160031	2415.630182
367.547715	2416.048598
367.935336	2417.631520
368.322893	2415.000038
368.710388	2416.330903
369.097820	2421.137643
369.485189	2418.362488
369.872495	2418.758218
370.259738	2418.526325
370.646918	2419.600091
371.034035	2419.370718
371.421090	2420.172262
371.808081	2420.436923
372.195010	2418.632189
372.581875	2418.299473
372.968678	2420.993970
373.355418	2421.475400
373.742096	2422.143353
374.128710	2424.220308
374.515262	2421.188054
374.901751	2422.733168
375.288177	2423.012952
375.674540	2421.493044
376.060841	2426.897161
376.447079	2423.068405
376.833254	2421.825760
377.219367	2419.133784
377.605417	2420.265523
377.991404	2418.564134
378.377329	2419.171593
378.763191	2419.496747
379.148991	2423.925401
379.534727	2424.807603
379.920402	2425.004208
380.306013	2428.409507
380.691563	2424.943714
381.077049	2423.980854
381.462474	2425.956986
381.847835	2427.078643
382.233134	2428.321287
382.618371	2426.332552
383.003545	2427.910433
383.388657	2427.834816
383.773706	2427.297933
384.158693	2431.431679
384.543618	2429.765578
384.928480	2427.365988
385.313280	2429.160639
385.698017	2426.403128
386.082692	2428.217943
386.467305	2429.725248
386.851856	2431.184663
387.236344	2433.861515
387.620770	2429.067378
388.005133	2429.821030
388.389435	2430.408325
388.773674	2432.923861
389.157851	2437.730601
389.541965	2431.524940
389.926018	2432.293716
390.310008	2433.952256
390.693936	2434.463933
391.077802	2434.693306
391.461606	2435.502411
391.845348	2438.257401
392.229027	2436.094746
392.612645	2433.412852
392.996200	2433.269180
393.379694	2437.017277
393.763125	2434.612647
394.146494	2435.714139
394.529801	2436.641712
394.913047	2438.617844
395.296230	2435.888059
395.679351	2437.188677
396.062410	2436.861002
396.445408	2437.153389
396.828343	2439.091712
397.211217	2432.523089
397.594028	2434.932760
397.976778	2436.886208
398.359466	2437.806218
398.742092	2434.607606
399.124656	2440.392330
399.507158	2435.981320
399.889598	2440.263781
400.271977	2441.125818
400.654294	2439.585745
401.036549	2439.447114
401.418742	2441.791250
401.800874	2442.106322
402.182944	2440.911569
402.564952	2442.065993
402.946898	2439.300920
403.328783	2439.744542
403.710606	2439.472319
404.092367	2444.185798
404.474067	2442.255036
404.855705	2446.416509
405.237282	2441.095571
405.618797	2442.078596
406.000250	2442.486929
406.381642	2443.989193
406.762972	2439.943667
407.144240	2445.123453
407.525447	2442.164296
407.906593	2442.338215
408.287677	2443.437187
408.668700	2446.454317
409.049661	2446.900460
409.430560	2443.613627
409.811399	2447.777620
410.192176	2445.297373
410.572891	2448.314503
410.953545	2443.323761
411.334138	2446.393824
411.714669	2443.822835
412.095139	2447.870882
412.475547	2445.766200
412.855894	2447.308793
413.236180	2446.434153
413.616405	2447.470110
413.996568	2446.073710
414.376670	2447.104626
414.756711	2445.564554
415.136691	2445.657815
415.516609	2446.658484
415.896466	2452.218877
416.276262	2450.459514
416.655997	2446.509770
417.035670	2446.038422
417.415283	2446.839966
417.794834	2443.855603
418.174324	2448.228804
418.553753	2448.397682
418.933121	2450.497323
419.312428	2447.049174
419.691674	2449.796603
420.070859	2452.239042
420.449983	2453.635441
420.829045	2450.169648
421.208047	2451.379525
421.586988	2451.780297
421.965867	2451.306428
422.344686	2449.274843
422.723444	2451.175358
423.102141	2450.308280
423.480777	2450.391459
423.859352	2449.887343
424.237866	2454.038733
424.616319	2454.832715
424.994712	2455.714917
425.373044	2453.413630
425.751314	2452.954885
426.129524	2453.869855
426.507673	2453.703497
426.885762	2452.208795
427.263789	2453.678291
427.641756	2451.382045
428.019662	2455.024279
428.397508	2454.096707
428.775292	2456.592078
429.153016	2455.515792
429.530679	2455.780452
429.908282	2457.794393
430.285824	2456.390432
430.663305	2458.931173
431.040726	2456.645010
431.418086	2455.445215
431.795385	2457.055864
432.172624	2457.277675
432.549802	2455.909002
432.926920	2454.341203
433.303977	2458.933694
433.680974	2459.392439
434.057910	2458.200206
434.434786	2462.628860
434.811601	2461.129116
435.188355	2459.281533
435.565050	2461.449230
435.941683	2459.520988
436.318257	2459.616770
436.694770	2456.917232
437.071222	2459.057202
437.447614	2458.129630
437.823946	2458.842953
438.200218	2461.668520
438.576429	2462.641463
438.952580	2461.524847
439.328670	2463.616926
439.704700	2460.060392
440.080670	2461.797069
440.456580	2460.665330
440.832429	2465.477112
441.208218	2463.629529
441.583947	2460.231791
441.959616	2462.759930
442.335224	2463.145578
442.710773	2466.727318
443.086261	2464.340331
443.461689	2463.942080
443.837057	2464.857050
444.212365	2469.252936
444.587612	2464.975517
444.962800	2468.108594
445.337927	2464.862091
445.712995	2465.386371
446.088002	2464.640280
446.462949	2468.093470
446.837837	2467.750672
447.212664	2467.034828
447.587431	2473.066569
447.962139	2473.749645
448.336786	2475.221662
448.711374	2474.392392
449.085901	2474.462968
449.460369	2472.562453
449.834776	2474.001703
450.209124	2474.878863
450.583412	2476.411374
450.957640	2473.076651
451.331808	2477.921200
451.705917	2474.621765
452.079965	2473.583287
452.453954	2473.111939
452.827883	2477.127218
453.201752	2473.215283
453.575562	2478.730305
453.949311	2479.680563
454.323001	2479.471355
454.696632	2479.068062
455.070202	2483.090903
455.443713	2482.082672
455.817164	2477.654019
456.190556	2481.916314
456.563888	2481.245841
456.937160	2475.236785
457.310373	2479.494040
457.683526	2482.725419
458.056619	2479.539410
458.429653	2484.625934
458.802628	2485.407313
459.175542	2484.217601
459.548398	2488.401759
459.921194	2487.355719
460.293930	2492.404435
460.666607	2492.684219
461.039224	2496.086998
461.411782	2495.043479
461.784280	2497.606906
462.156719	2494.592296
462.529099	2495.875269
462.901419	2494.846874
463.273680	2494.990547
463.645882	2494.811586
464.018024	2494.688078
464.390106	2498.854591
464.762130	2502.101094
465.134094	2506.519666
465.505999	2517.423681
465.877845	2523.568848
466.249631	2527.853829
466.621358	2528.365506
466.993026	2526.646472
467.364634	2527.100176
467.736184	2519.205729
468.107674	2520.201357
468.479105	2521.433919
468.850477	2516.672549
469.221790	2520.813857
469.593043	2515.901253
469.964238	2515.674401
470.335373	2517.403517
470.706449	2521.423837
471.077467	2526.240659
471.448425	2537.883204
471.819324	2543.509132
472.190164	2542.664739
472.560945	2538.505787
472.931667	2531.445651
473.302330	2527.301822
473.672934	2530.601257
474.043479	2532.027904
474.413965	2531.531350
474.784393	2528.650331
475.154761	2536.736342
475.525070	2530.954138
475.895321	2535.634850
476.265513	2536.212062
476.635645	2540.963349
477.005719	2545.381921
477.375734	2546.349822
477.745691	2551.511964
478.115588	2556.464897
478.485427	2563.393963
478.855207	2574.862588
479.224928	2587.120154
479.594591	2591.216091
479.964194	2591.233735
480.333739	2593.976123
480.703226	2596.605085
481.072653	2600.796804
481.442022	2602.115066
481.811333	2610.364914
482.180584	2605.028853
482.549777	2608.373658
482.918912	2607.758638
483.287988	2611.857096
483.657005	2610.473299
484.025964	2612.323402
484.394864	2612.008330
484.763706	2614.586881
485.132489	2613.129987
485.501213	2616.530245
485.869879	2619.310442
486.238487	2623.842439
486.607036	2626.360495
486.975527	2623.703807
487.343959	2628.830661
487.712333	2633.604633
488.080648	2637.539254
488.448905	2641.226858
488.817104	2645.158958
489.185244	2653.814619
489.553326	2662.543377
489.921350	2680.131963
490.289315	2697.246680
490.657222	2709.048021
491.025070	2716.556820
491.392861	2715.772921
491.760593	2713.413661
492.128267	2708.740511
492.495883	2706.600541
492.863440	2703.439738
493.230939	2702.209696
493.598380	2701.609799
493.965763	2701.992927
494.333088	2706.610623
494.700354	2706.514842
495.067563	2711.356870
495.434713	2713.262426
495.801805	2724.894888
496.168839	2729.318501
496.535815	2734.276476
496.902733	2740.764441
497.269593	2748.752149
497.636395	2751.746594
498.003139	2766.179418
498.369825	2769.461209
498.736453	2776.491098
499.103023	2786.782614
499.469535	2793.938532
499.835989	2799.735858
500.202385	2808.963691
500.568723	2820.432316
500.935003	2835.127279
501.301226	2842.260512
501.667390	2862.659541
502.033497	2880.026316
502.399546	2886.347923
502.765537	2893.425703
503.131470	2910.200142
503.497345	2929.568255
503.863163	2925.673964
504.228923	2949.427881
504.594625	2972.720532
504.960269	2985.265443
505.325856	3012.553209
505.691385	3021.130733
506.056856	3043.074875
506.422270	3070.939853
506.787625	3088.515836
507.152924	3113.280504
507.518164	3135.569966
507.883347	3148.402223
508.248472	3174.394412
508.613540	3213.596945
508.978550	3246.162799
509.343503	3270.675410
509.708398	3303.027014
510.073236	3345.488653
510.438016	3379.471071
510.802738	3401.755492
511.167403	3445.616051
511.532010	3488.707834
511.896561	3536.203065
512.261053	3598.075667
512.625488	3624.720685
512.989866	3662.766273
513.354186	3702.833364
513.718449	3743.460023
514.082655	3814.658759
514.446803	3851.018082
514.810894	3922.173968
515.174927	3970.228767
515.538904	4016.012526
515.902822	4096.413889
516.266684	4130.877737
516.630488	4205.340621
516.994235	4260.720216
517.357925	4345.303216
517.721558	4416.882560
518.085133	4496.215198
518.448651	4566.808996
518.812112	4629.001711
519.175516	4701.611970
519.538863	4793.532369
519.902152	4865.010890
520.265385	4969.811437
520.628560	5051.142893
520.991678	5117.103870
521.354739	5211.436461
521.717743	5314.923788
522.080690	5396.184667
522.443580	5519.584552
522.806413	5618.118945
523.169189	5704.897367
523.531908	5805.521319
523.894569	5892.481223
524.257174	6005.004818
524.619722	6123.114011
524.982213	6230.115022
525.344647	6323.043652
525.707025	6432.008192
526.069345	6577.886582
526.431608	6672.085583
526.793815	6810.737478
527.155964	6874.732405
527.518057	6998.903586
527.880093	7090.345076
528.242072	7258.026456
528.603995	7345.926535
528.965860	7464.476829
529.327669	7589.898216
529.689421	7703.414919
530.051117	7822.239956
530.412755	7958.572921
530.774337	8095.558715
531.135862	8193.319291
531.497331	8346.378804
531.858743	8460.273593
532.220098	8635.206672
532.581396	8728.858708
532.942638	8808.314854
533.303824	8986.595260
533.664953	9121.289849
534.026025	9208.264877
534.387040	9417.835724
534.747999	9551.411178
535.108902	9721.872754
535.469748	9781.547413
535.830537	9941.094891
536.191270	10120.731367
536.551947	10205.957114
536.912567	10406.027907
537.273131	10580.527447
537.633638	10631.042330
537.994089	10845.571152
538.354483	10920.873388
538.714821	11190.007989
539.075103	11421.041549
539.435328	11533.519773
539.795497	11666.079434
540.155609	11822.045173
540.515665	12086.597365
540.875665	12128.204528
541.235609	12363.187832
541.595496	12534.060263
541.955328	12871.194988
542.315102	12886.883058
542.674821	13007.512829
543.034483	13190.254656
543.394090	13357.164739
543.753640	13518.945448
544.113134	13957.651862
544.472571	13879.854255
544.831953	14387.506009
545.191278	14359.426782
545.550548	14464.365961
545.909761	14773.706285
546.268918	15005.546429
546.628019	15294.928825
546.987064	15348.783471
547.346053	15319.461600
547.704986	15766.632111
548.063863	15820.310317
548.422684	16075.561580
548.781449	16212.257508
549.140158	16536.774225
549.498811	16677.482911
549.857408	16680.880649
550.215949	17160.894277
550.574434	17336.021441
550.932864	17461.881408
551.291237	17924.787881
551.649555	17987.963621
552.007817	18267.006610
552.366022	18350.498200
552.724173	18623.942987
553.082267	18970.250092
553.440305	19296.241347
553.798288	19226.297857
554.156215	19557.307581
554.514086	19851.894967
554.871902	19954.714341
555.229661	20168.847433
555.587365	20303.224430
555.945014	20544.620082
556.302606	20716.745239
556.660143	21021.719923
557.017625	21255.284143
557.375050	21375.432483
557.732421	21747.096591
558.089735	21946.068413
558.446994	22107.443309
558.804197	22540.974978
559.161345	22718.663049
559.518437	22584.097008
559.875474	22936.229166
560.232455	23222.261715
560.589381	23512.483463
560.946251	23573.914963
561.303065	24125.311330
561.659825	24237.159410
562.016528	24285.869559
562.373177	24336.742363
562.729770	24809.831967
563.086307	24762.745069
563.442789	25200.768406
563.799216	25430.115700
564.155587	25537.179726
564.511904	25759.620639
564.868164	26000.368503
565.224370	26354.386052
565.580520	26416.987101
565.936615	26737.296975
566.292654	26764.272189
566.648638	27121.969781
567.004567	27297.941338
567.360441	27522.358384
567.716260	27658.681266
568.072023	28035.462146
568.427732	28229.591939
568.783385	28164.825715
569.138982	28602.586912
569.494525	28773.797100
569.850013	28831.273816
570.205445	29005.614560
570.560823	29169.585650
570.916145	29297.893098
571.271412	29501.933800
571.626625	29550.275945
571.981782	29775.809606
572.336884	29765.639078
572.691931	30151.980506
573.046923	30083.816544
573.401860	30164.006178
573.756743	30346.337151
574.111570	30600.252509
574.466342	30687.436744
574.821059	30957.909771
575.175722	30817.669913
575.530330	31005.036998
575.884882	30985.729379
576.239380	31137.039612
576.593823	31295.026852
576.948211	31402.446279
577.302544	31245.195047
577.656823	31439.531527
578.011047	31782.168672
578.365216	31742.036046
578.719330	31763.957504
579.073389	31830.916630
579.427394	32051.895609
579.781344	32191.704449
580.135239	32104.137086
580.489080	32318.895281
580.842866	32109.843672
581.196597	32587.767742
581.550273	32707.338870
581.903895	32753.082300
582.257463	33227.154928
582.610975	32914.913421
582.964434	33279.053607
583.317837	33168.380116
583.671186	33178.331353
584.024481	33496.176103
584.377721	33291.974084
584.730906	33647.272087
585.084037	33821.088551
585.437113	33730.889706
585.790135	33892.163779
586.143103	33716.466965
586.496016	33958.006289
586.848874	34115.912872
587.201679	34261.324955
587.554428	33980.935978
587.907124	34268.614463
588.259765	34193.264337
588.612352	34523.538051
588.964884	34170.672406
589.317362	34518.169222
589.669786	34600.481182
590.022155	34526.219945
590.374470	34995.881564
590.726731	34728.012292
591.078937	34453.660097
591.431090	34653.534286
591.783188	34480.852081
592.135232	34330.852548
592.487222	34640.407121
592.839157	34833.309393
593.191038	34672.368036
593.542866	34566.392900
593.894639	34169.089483
594.246358	34499.869834
594.598022	34580.094756
594.949633	34358.336919
595.301190	34416.171557
595.652692	34380.084457
596.004141	34760.026140
596.355535	34012.874208
596.706876	34063.532763
597.058162	34027.110426
597.409395	34511.950959
597.760573	34669.335782
598.111698	34389.927310
598.462768	34479.632122
598.813785	34604.589723
599.164748	34221.245261
599.515657	34641.858973
599.866511	34273.479177
600.217312	34884.356117
600.568060	34055.696289
600.918753	34785.294924
601.269392	34839.147050
601.619978	34600.455977
601.970510	34852.490984
602.320988	35096.623982
602.671412	35430.229900
603.021783	35278.155932
603.372100	35053.978341
603.722363	35211.945418
604.072572	35346.811407
604.422728	35425.148417
604.772830	35316.511551
605.122878	35470.861600
605.472872	35473.790510
605.822813	35799.164223
606.172701	35694.232606
606.522534	35975.304659
606.872314	36273.506553
607.222041	36118.841433
607.571714	36524.361931
607.921333	36071.913332
608.270899	36399.114463
608.620411	36770.818901
608.969870	36640.391648
609.319276	36692.318053
609.668627	36800.047511
610.017926	37279.070552
610.367171	37492.482759
610.716362	37622.136195
611.065500	37628.636763
611.414585	37852.574899
611.763616	38183.957668
612.112594	38150.388624
612.461518	38412.132894
612.810389	38730.950586
613.159207	38654.468721
613.507971	38765.744630
613.856682	39261.728634
614.205340	39178.854585
614.553945	39873.596161
614.902496	39398.928677
615.250994	39892.228266
615.599439	40000.373619
615.947830	40233.766439
616.296169	40329.850831
616.644454	40492.329740
616.992686	40676.530981
617.340864	41214.235574
617.688990	40983.920378
618.037063	41576.616398
618.385082	41597.496857
618.733048	41900.742425
619.080961	41938.969495
619.428821	41986.842812
619.776628	42120.062864
620.124382	41990.180056
620.472083	42161.521314
620.819731	42298.365955
621.167326	42028.875953
621.514868	42048.319683
621.862357	41661.764007
622.209793	41718.111504
622.557176	41420.953128
622.904506	41208.080325
623.251783	40916.280696
623.599007	40738.524571
623.946179	40539.038551
624.293297	40526.788547
624.640363	39970.270368
624.987376	39990.540848
625.334336	39775.270976
625.681243	39450.141759
626.028097	39458.762132
626.374899	39324.430505
626.721647	39323.223149
627.068343	39245.239019
627.414987	39047.240140
627.761577	38838.312040
628.108115	39180.782826
628.454600	38671.888428
628.801032	38869.035352
629.147412	38854.988177
629.493739	38875.079695
629.840014	38546.842607
630.186236	38913.538658
630.532405	38540.911689
630.878521	38771.136144
631.224585	38660.954165
631.570597	38389.798062
631.916556	38568.479239
632.262462	38524.343937
632.608316	38553.484327
632.954117	38457.825912
633.299866	38470.766554
633.645562	38409.597193
633.991206	37938.645039
634.336797	37542.024699
634.682336	37547.769093
635.027823	37325.199631
635.373257	37146.717579
635.718639	36941.958512
636.063968	36818.886303
636.409245	36267.318537
636.754470	36341.294949
637.099642	36114.117872
637.444762	35649.767109
637.789829	35804.767466
638.134845	35464.764324
638.479808	35437.030416
638.824719	35341.031724
639.169577	34988.329915
639.514383	35051.674534
639.859137	34766.458652
640.203839	35006.321793
