Dividing Wavelength (nm)	Counts (n)	Blue Motor Position (mm): 18.600000	Red Motor Position (mm): 0.000000	
326.493990	1973.498305
326.888308	1973.498305
327.282561	1973.498305
327.676750	1949.958637
328.070874	1953.305963
328.464933	1958.621860
328.858929	1965.934053
329.252859	1979.635910
329.646726	1994.540081
330.040528	2009.222442
330.434265	2028.046110
330.827938	2048.636703
331.221547	2067.909034
331.615091	2087.274627
332.008571	2109.251537
332.401986	2129.811883
332.795338	2148.965747
333.188625	2168.306133
333.581847	2188.387570
333.975006	2208.791640
334.368100	2222.843856
334.761129	2240.482854
335.154095	2256.430544
335.546996	2291.385905
335.939833	2351.589884
336.332606	2365.009436
336.725315	2377.327495
337.117960	2382.885368
337.510540	2390.999105
337.903056	2401.459499
338.295508	2406.510735
338.687896	2417.364339
339.080220	2423.292736
339.472480	2426.977820
339.864676	2430.388160
340.256807	2437.246650
340.648875	2436.702205
341.040879	2435.993923
341.432818	2441.579522
341.824694	2439.431990
342.216506	2440.415015
342.608253	2441.362752
342.999937	2441.266970
343.391557	2438.123811
343.783113	2437.065168
344.174605	2435.671289
344.566033	2433.203645
344.957397	2431.169539
345.348697	2426.987902
345.739934	2424.633683
346.131106	2427.842378
346.522215	2424.784918
346.913260	2419.615214
347.304241	2420.651172
347.695159	2419.264854
348.086012	2416.608166
348.476802	2416.903074
348.867528	2411.879564
349.258191	2411.385531
349.648789	2411.859399
350.039324	2410.984759
350.429796	2410.052146
350.820203	2412.207239
351.210548	2409.842938
351.600828	2409.016188
351.991045	2409.109450
352.381198	2404.622823
352.771288	2407.387896
353.161314	2404.721125
353.551276	2406.639284
353.941175	2402.445044
354.331010	2407.892011
354.720782	2408.819583
355.110490	2409.661456
355.500135	2408.121384
355.889717	2407.118194
356.279235	2407.902093
356.668689	2407.884449
357.058080	2410.783113
357.447408	2406.051990
357.836672	2404.408574
358.225873	2407.254305
358.615010	2406.563667
359.004084	2411.539286
359.393095	2411.335119
359.782043	2412.093813
360.170927	2409.245561
360.559748	2412.880233
360.948505	2412.310582
361.337199	2414.778227
361.725830	2415.521797
362.114398	2413.407033
362.502903	2413.177661
362.891344	2416.517425
363.279722	2414.241344
363.668037	2417.755029
364.056289	2418.491037
364.444478	2417.134967
364.832603	2420.363826
365.220665	2417.712179
365.608665	2417.122364
365.996601	2419.325348
366.384474	2417.911304
366.772284	2419.799217
367.160031	2418.501119
367.547715	2418.475914
367.935336	2417.210584
368.322893	2420.918353
368.710388	2419.597570
369.097820	2423.648138
369.485189	2423.716193
369.872495	2424.036306
370.259738	2421.175452
370.646918	2423.527150
371.034035	2420.482293
371.421090	2422.387849
371.808081	2423.249886
372.195010	2424.386667
372.581875	2422.579413
372.968678	2424.583272
373.355418	2422.211409
373.742096	2423.643096
374.128710	2426.380443
374.515262	2425.505803
374.901751	2427.464291
375.288177	2426.458581
375.674540	2425.962027
376.060841	2427.426482
376.447079	2426.314908
376.833254	2423.824578
377.219367	2422.670154
377.605417	2426.892120
377.991404	2422.319793
378.377329	2424.973961
378.763191	2420.845256
379.148991	2427.786925
379.534727	2431.131730
379.920402	2429.571493
380.306013	2430.042841
380.691563	2429.939498
381.077049	2429.513520
381.462474	2429.521082
381.847835	2431.451844
382.233134	2431.061154
382.618371	2428.890938
383.003545	2433.896803
383.388657	2432.820517
383.773706	2434.421083
384.158693	2431.411514
384.543618	2434.189190
384.928480	2433.236412
385.313280	2433.853953
385.698017	2434.426124
386.082692	2433.241453
386.467305	2433.004519
386.851856	2434.191711
387.236344	2435.404108
387.620770	2437.566763
388.005133	2436.155240
388.389435	2436.127514
388.773674	2435.066351
389.157851	2439.694130
389.541965	2436.417380
389.926018	2437.617175
390.310008	2435.562905
390.693936	2436.964345
391.077802	2436.359407
391.461606	2440.876281
391.845348	2436.324119
392.229027	2440.583894
392.612645	2437.332350
392.996200	2437.854109
393.379694	2441.183791
393.763125	2438.993410
394.146494	2440.472988
394.529801	2442.938113
394.913047	2438.771599
395.296230	2439.986517
395.679351	2439.570622
396.062410	2441.027515
396.445408	2439.351332
396.828343	2441.584563
397.211217	2433.813624
397.594028	2440.568770
397.976778	2437.894438
398.359466	2440.745211
398.742092	2438.761517
399.124656	2442.542382
399.507158	2442.471806
399.889598	2443.432146
400.271977	2440.588935
400.654294	2443.714450
401.036549	2443.013730
401.418742	2444.947012
401.800874	2443.749738
402.182944	2443.490119
402.564952	2442.078596
402.946898	2445.509101
403.328783	2446.456838
403.710606	2447.835594
404.092367	2445.478854
404.474067	2444.417691
404.855705	2446.280398
405.237282	2447.039091
405.618797	2448.216201
406.000250	2445.466251
406.381642	2447.505398
406.762972	2449.446242
407.144240	2448.364915
407.525447	2447.812908
407.906593	2445.511622
408.287677	2446.792075
408.668700	2448.974894
409.049661	2446.494647
409.430560	2449.975563
409.811399	2450.315841
410.192176	2450.913218
410.572891	2450.935903
410.953545	2451.976902
411.334138	2450.111675
411.714669	2450.502364
412.095139	2451.034206
412.475547	2450.388938
412.855894	2451.923969
413.236180	2450.502364
413.616405	2449.559668
413.996568	2452.337344
414.376670	2450.577981
414.756711	2450.053701
415.136691	2451.114864
415.516609	2453.554783
415.896466	2451.477827
416.276262	2451.913887
416.655997	2451.225770
417.035670	2448.501026
417.415283	2453.101079
417.794834	2446.560182
418.174324	2455.339351
418.553753	2453.375822
418.933121	2452.085286
419.312428	2452.700307
419.691674	2453.343054
420.070859	2456.685339
420.449983	2457.592747
420.829045	2454.144598
421.208047	2455.213322
421.586988	2455.523353
421.965867	2456.491255
422.344686	2455.954372
422.723444	2457.451595
423.102141	2454.658795
423.480777	2455.276337
423.859352	2456.087963
424.237866	2458.517799
424.616319	2457.600309
424.994712	2459.014352
425.373044	2459.621811
425.751314	2458.795062
426.129524	2457.635597
426.507673	2454.923456
426.885762	2460.473766
427.263789	2458.898406
427.641756	2460.251956
428.019662	2461.214816
428.397508	2460.544343
428.775292	2459.833540
429.153016	2458.747171
429.530679	2465.971145
429.908282	2463.841257
430.285824	2461.174487
430.663305	2462.467543
431.040726	2467.475929
431.418086	2460.216667
431.795385	2463.206072
432.172624	2463.644652
432.549802	2464.148767
432.926920	2463.450568
433.303977	2464.476443
433.680974	2465.013325
434.057910	2463.248922
434.434786	2463.790846
434.811601	2465.199848
435.188355	2467.680096
435.565050	2467.470888
435.941683	2463.541308
436.318257	2465.698922
436.694770	2463.034673
437.071222	2466.087091
437.447614	2462.928808
437.823946	2463.276648
438.200218	2465.598099
438.576429	2466.603809
438.952580	2467.281845
439.328670	2465.945939
439.704700	2468.285034
440.080670	2466.215641
440.456580	2470.719912
440.832429	2467.206227
441.208218	2468.771506
441.583947	2473.003554
441.959616	2469.527679
442.335224	2469.862915
442.710773	2469.429376
443.086261	2473.038842
443.461689	2467.680096
443.837057	2473.966415
444.212365	2472.403657
444.587612	2476.108905
444.962800	2471.607155
445.337927	2471.617237
445.712995	2471.201342
446.088002	2476.048411
446.462949	2475.352732
446.837837	2475.231744
447.212664	2474.488174
447.587431	2479.748618
447.962139	2482.548979
448.336786	2484.046202
448.711374	2485.989567
449.085901	2478.654688
449.460369	2481.099647
449.834776	2482.178454
450.209124	2482.639720
450.583412	2485.740029
450.957640	2484.789772
451.331808	2485.815647
451.705917	2482.485965
452.079965	2482.324648
452.453954	2483.882364
452.827883	2483.595018
453.201752	2484.411685
453.575562	2484.618373
453.949311	2486.249186
454.323001	2489.498210
454.696632	2487.869917
455.070202	2487.549804
455.443713	2490.841677
455.817164	2487.572489
456.190556	2486.939824
456.563888	2490.657675
456.937160	2489.029382
457.310373	2491.970896
457.683526	2491.290340
458.056619	2492.210350
458.429653	2489.379743
458.802628	2493.982316
459.175542	2494.211688
459.548398	2496.364261
459.921194	2500.601351
460.293930	2502.645539
460.666607	2509.504029
461.039224	2510.050994
461.411782	2512.889163
461.784280	2510.081241
462.156719	2514.358660
462.529099	2509.940088
462.901419	2507.545540
463.273680	2509.199039
463.645882	2509.352794
464.018024	2510.292969
464.390106	2515.676922
464.762130	2521.597757
465.134094	2528.990609
465.505999	2539.229192
465.877845	2549.102292
466.249631	2554.569423
466.621358	2550.380225
466.993026	2552.043805
467.364634	2550.430636
467.736184	2545.946530
468.107674	2542.430325
468.479105	2543.584749
468.850477	2541.984183
469.221790	2542.679862
469.593043	2540.222300
469.964238	2537.270704
470.335373	2539.529141
470.706449	2545.202960
471.077467	2553.102448
471.448425	2564.326577
471.819324	2576.006930
472.190164	2572.132803
472.560945	2567.066444
472.931667	2558.093190
473.302330	2557.624363
473.672934	2558.088149
474.043479	2560.437327
474.413965	2556.842984
474.784393	2556.021276
475.154761	2563.404046
475.525070	2560.906154
475.895321	2565.697771
476.265513	2563.663665
476.635645	2574.965932
477.005719	2575.833010
477.375734	2577.751169
477.745691	2583.374577
478.115588	2587.962027
478.485427	2598.346803
478.855207	2611.715943
479.224928	2622.526698
479.594591	2630.831999
479.964194	2629.730507
480.333739	2631.557925
480.703226	2637.352731
481.072653	2641.980511
481.442022	2643.510501
481.811333	2649.675832
482.180584	2649.327992
482.549777	2647.644247
482.918912	2649.635503
483.287988	2653.862510
483.657005	2652.876965
484.025964	2653.076090
484.394864	2656.252017
484.763706	2657.605567
485.132489	2658.167656
485.501213	2658.616318
485.869879	2666.709891
486.238487	2668.318019
486.607036	2672.252639
486.975527	2674.558967
487.343959	2675.388237
487.712333	2682.322344
488.080648	2685.384845
488.448905	2690.415917
488.817104	2700.513348
489.185244	2710.325954
489.553326	2724.557131
489.921350	2749.599063
490.289315	2772.158226
490.657222	2787.874023
491.025070	2799.297278
491.392861	2797.207720
491.760593	2797.926084
492.128267	2796.708646
492.495883	2791.559107
492.863440	2792.572379
493.230939	2793.530198
493.598380	2794.704787
493.965763	2799.453554
494.333088	2803.020170
494.700354	2811.310348
495.067563	2821.185968
495.434713	2826.254848
495.801805	2847.528517
496.168839	2857.489838
496.535815	2870.140613
496.902733	2882.004969
497.269593	2896.825961
497.636395	2908.995306
498.003139	2931.451126
498.369825	2943.890173
498.736453	2962.373564
499.103023	2977.887715
499.469535	3002.743124
499.835989	3021.410517
500.202385	3039.677138
500.568723	3066.017166
500.935003	3094.300560
501.301226	3116.262347
501.667390	3153.302225
502.033497	3185.772297
502.399546	3204.457333
502.765537	3222.855024
503.131470	3262.806168
503.497345	3303.851243
503.863163	3312.665701
504.228923	3357.436188
504.594625	3410.126328
504.960269	3428.614760
505.325856	3487.510560
505.691385	3515.909900
506.056856	3566.296233
506.422270	3622.734471
506.787625	3658.685459
507.152924	3715.458934
507.518164	3766.525822
507.883347	3799.386584
508.248472	3860.263558
508.613540	3934.950772
508.978550	4006.129344
509.343503	4059.494999
509.708398	4134.061226
510.073236	4223.030030
510.438016	4288.101243
510.802738	4338.033872
511.167403	4442.975572
511.532010	4532.766084
511.896561	4619.947798
512.261053	4752.373869
512.625488	4809.782529
512.989866	4886.392944
513.354186	4963.396569
513.718449	5054.961567
514.082655	5191.387793
514.446803	5265.984267
514.810894	5402.216408
515.174927	5497.952961
515.538904	5592.774544
515.902822	5749.362865
516.266684	5818.835006
516.630488	5956.153516
516.994235	6053.190687
517.357925	6217.330656
517.721558	6352.756213
518.085133	6501.198029
518.448651	6635.988400
518.812112	6742.722230
519.175516	6876.789196
519.538863	7040.714916
519.902152	7167.600759
520.265385	7352.611105
520.628560	7496.992272
520.991678	7614.320086
521.354739	7779.059953
521.717743	7969.865105
522.080690	8101.013243
522.443580	8321.606574
522.806413	8482.129515
523.169189	8626.067060
523.531908	8805.053227
523.894569	8942.318806
524.257174	9119.464952
524.619722	9338.276234
524.982213	9497.047375
525.344647	9645.912648
525.707025	9816.482609
526.069345	10057.842973
526.431608	10218.847344
526.793815	10446.604154
527.155964	10533.929542
527.518057	10736.062167
527.880093	10878.477284
528.242072	11158.692341
528.603995	11274.296081
528.965860	11453.327619
529.327669	11657.161633
529.689421	11817.707260
530.051117	11997.341215
530.412755	12209.853576
530.774337	12416.964341
531.135862	12579.249166
531.497331	12826.071620
531.858743	13003.497550
532.220098	13289.893062
532.581396	13414.132298
532.942638	13525.698074
533.303824	13802.628819
533.664953	13995.400022
534.026025	14128.063026
534.387040	14459.770949
534.747999	14647.458148
535.108902	14909.998920
535.469748	14978.777902
535.830537	15218.590632
536.191270	15494.341747
536.551947	15591.139463
536.912567	15901.137657
537.273131	16161.934190
537.633638	16209.633587
537.994089	16538.485697
538.354483	16623.860158
538.714821	17045.562759
539.075103	17399.207263
539.435328	17547.059264
539.795497	17735.716885
540.155609	17955.730483
540.515665	18372.041571
540.875665	18375.709010
541.235609	18732.685717
541.595496	18958.698288
541.955328	19455.050296
542.315102	19442.981773
542.674821	19581.474872
543.034483	19830.132306
543.394090	20049.364525
543.753640	20254.796586
544.113134	20925.943041
544.472571	20732.166129
544.831953	21512.519100
545.191278	21405.714694
545.550548	21506.812514
545.909761	21952.586625
546.268918	22287.793109
546.628019	22675.563704
546.987064	22700.764432
547.346053	22580.490063
547.704986	23246.429007
548.063863	23257.816973
548.422684	23589.638322
548.781449	23750.975410
549.140158	24191.930178
549.498811	24341.733106
549.857408	24273.881695
550.215949	24947.175683
550.574434	25141.648274
550.932864	25245.866568
551.291237	25875.075665
551.649555	25879.469031
552.007817	26238.268115
552.366022	26272.061489
552.724173	26598.791273
553.082267	27053.180716
553.440305	27462.267830
553.798288	27283.344677
554.156215	27692.245269
554.514086	28040.183187
554.871902	28110.466953
555.229661	28348.442183
555.587365	28453.522514
555.945014	28743.761905
556.302606	28912.086032
556.660143	29269.007286
557.017625	29537.509222
557.375050	29625.263108
557.732421	30066.265767
558.089735	30269.648598
558.446994	30408.965926
558.804197	30937.777923
559.161345	31101.696082
559.518437	30806.952419
559.875474	31222.149412
560.232455	31547.722251
560.589381	31860.914016
560.946251	31855.106607
561.303065	32533.504762
561.659825	32582.086362
562.016528	32559.978381
562.373177	32562.735892
562.729770	33105.463995
563.086307	32952.394400
563.442789	33459.544559
563.799216	33683.185267
564.155587	33733.836260
564.511904	33936.319246
564.868164	34176.585679
565.224370	34542.757450
565.580520	34532.226480
565.936615	34884.706477
566.292654	34823.529555
566.648638	35187.755441
567.004567	35331.541752
567.360441	35517.734248
567.716260	35594.977328
568.072023	35977.167366
568.427732	36133.501108
568.783385	35941.874248
569.138982	36424.408453
569.494525	36548.173821
569.850013	36520.762547
570.205445	36648.822978
570.560823	36753.247959
570.916145	36821.865625
571.271412	36985.531726
571.626625	36951.395552
571.981782	37135.072513
572.336884	37026.027314
572.691931	37425.059847
573.046923	37231.600527
573.401860	37256.246728
573.756743	37375.699389
574.111570	37601.099460
574.466342	37593.711649
574.821059	37840.970163
575.175722	37586.447346
575.530330	37710.908394
575.884882	37622.151318
576.239380	37700.304327
576.593823	37789.104252
576.948211	37838.053855
577.302544	37556.008859
577.656823	37711.452838
578.011047	38018.877523
578.365216	37890.502020
578.719330	37826.973399
579.073389	37804.701582
579.427394	37984.872420
579.781344	38085.609797
580.135239	37880.727223
580.489080	38058.057371
580.842866	37705.169040
581.196597	38200.558187
581.550273	38246.218438
581.903895	38227.319152
582.257463	38689.061118
582.610975	38245.578212
582.964434	38575.864529
583.317837	38357.191878
583.671186	38317.097061
584.024481	38605.587172
584.377721	38277.176164
584.730906	38617.527145
585.084037	38718.720747
585.437113	38557.625635
585.790135	38681.154069
586.143103	38404.858509
586.496016	38606.615568
586.848874	38696.201913
587.201679	38789.022158
587.554428	38391.335613
587.907124	38646.584356
588.259765	38501.134465
588.612352	38797.829054
588.964884	38329.581479
589.317362	38665.917181
589.669786	38678.658697
590.022155	38552.284532
590.374470	38992.079835
590.726731	38631.778487
591.078937	38253.616332
591.431090	38405.047552
591.783188	38164.881942
592.135232	37924.325642
592.487222	38215.210301
592.839157	38370.364413
593.191038	38118.578943
593.542866	37951.194992
593.894639	37457.159394
594.246358	37767.286138
594.598022	37807.081006
594.949633	37493.554004
595.301190	37535.677886
595.652692	37423.940711
596.004141	37784.297511
596.355535	36923.795235
596.706876	36936.408202
597.058162	36828.772006
597.409395	37300.089643
597.760573	37419.325535
598.111698	37078.150325
598.462768	37135.435476
598.813785	37206.840900
599.164748	36749.487258
599.515657	37180.490789
599.866511	36724.994813
600.217312	37343.761159
600.568060	36427.150840
600.918753	37135.863974
601.269392	37156.056316
601.619978	36873.353450
601.970510	37100.270908
602.320988	37307.318658
602.671412	37623.454457
603.021783	37427.509848
603.372100	37132.551936
603.722363	37277.628782
604.072572	37385.340596
604.422728	37428.855836
604.772830	37283.531973
605.122878	37414.901922
605.472872	37382.121819
605.822813	37680.767335
606.172701	37532.171763
606.522534	37804.867940
606.872314	38075.875329
607.222041	37872.800008
607.571714	38277.579456
607.921333	37774.341233
608.270899	38077.634692
608.620411	38440.814538
608.969870	38262.466077
609.319276	38284.836197
609.668627	38369.146975
610.017926	38847.980973
610.367171	39047.958505
610.716362	39156.550000
611.065500	39126.900453
611.414585	39336.015077
611.763616	39647.097119
612.112594	39586.623437
612.461518	39824.843162
612.810389	40135.010235
613.159207	40031.250686
613.507971	40113.910486
613.856682	40602.569692
614.205340	40492.231438
614.553945	41195.172451
614.902496	40668.356750
615.250994	41147.906592
615.599439	41221.542726
615.947830	41453.274486
616.296169	41531.185519
616.644454	41673.514936
616.992686	41855.298944
617.340864	42375.246072
617.688990	42137.820329
618.037063	42715.932290
618.385082	42692.705174
618.733048	43004.251002
619.080961	43037.157134
619.428821	43039.700396
619.776628	43175.622507
620.124382	42999.703881
620.472083	43140.712516
620.819731	43281.453970
621.167326	42976.086076
621.514868	42983.541942
621.862357	42555.200141
622.209793	42591.226747
622.557176	42275.751339
622.904506	42036.651933
623.251783	41705.203629
623.599007	41511.935873
623.946179	41305.747640
624.293297	41259.033788
624.640363	40694.600997
624.987376	40688.206293
625.334336	40461.495523
625.681243	40120.761414
626.028097	40102.527560
626.374899	39960.059511
626.721647	39942.899424
627.068343	39854.185198
627.414987	39618.607038
627.761577	39416.532386
628.108115	39750.216441
628.454600	39199.535919
628.801032	39394.752081
629.147412	39376.510666
629.493739	39386.343436
629.840014	39059.462418
630.186236	39407.624667
630.532405	39025.366574
630.878521	39260.037327
631.224585	39127.066812
631.570597	38844.391671
631.916556	39011.142958
632.262462	38974.967638
632.608316	38995.931277
632.954117	38882.533041
633.299866	38879.490705
633.645562	38804.561515
633.991206	38334.211779
634.336797	37907.077334
634.682336	37906.674042
635.027823	37666.760489
635.373257	37489.226174
635.718639	37271.034953
636.063968	37139.012175
636.409245	36559.710501
636.754470	36624.113762
637.099642	36408.148211
637.444762	35931.708761
637.789829	36074.542293
638.134845	35739.068628
638.479808	35687.263211
638.824719	35603.564934
639.169577	35220.301130
639.514383	35302.774407
