Dividing Wavelength (nm)	Counts (n)	Blue Motor Position (mm): 15.200000	Red Motor Position (mm): 0.000000	
326.493990	1974.821608
326.888308	1974.821608
327.282561	1974.821608
327.676750	1947.735488
328.070874	1952.186827
328.464933	1957.033896
328.858929	1969.535958
329.252859	1982.562299
329.646726	1995.628970
330.040528	2011.044819
330.434265	2031.085926
330.827938	2047.618390
331.221547	2067.074723
331.615091	2086.664647
332.008571	2111.522577
332.401986	2128.841461
332.795338	2150.092445
333.188625	2172.641526
333.581847	2187.422189
333.975006	2209.136959
334.368100	2223.519371
334.761129	2241.317165
335.154095	2257.900040
335.546996	2286.221243
335.939833	2343.713082
336.332606	2356.588188
336.725315	2369.395240
337.117960	2377.317413
337.510540	2384.211191
337.903056	2394.096894
338.295508	2401.031001
338.687896	2409.767320
339.080220	2415.128588
339.472480	2418.574216
339.864676	2422.851635
340.256807	2427.834816
340.648875	2428.951431
341.040879	2429.218612
341.432818	2431.403953
341.824694	2431.988727
342.216506	2430.171391
342.608253	2432.520568
342.999937	2430.297419
343.391557	2431.282965
343.783113	2428.868252
344.174605	2428.969075
344.566033	2423.630493
344.957397	2422.236614
345.348697	2421.861048
345.739934	2419.118661
346.131106	2419.615214
346.522215	2418.070101
346.913260	2414.435429
347.304241	2412.905439
347.695159	2408.512073
348.086012	2410.024419
348.476802	2407.334964
348.867528	2405.741959
349.258191	2405.071486
349.648789	2405.144582
350.039324	2404.111146
350.429796	2405.585683
350.820203	2404.469068
351.210548	2397.938253
351.600828	2400.247101
351.991045	2399.042266
352.381198	2399.102759
352.771288	2398.573438
353.161314	2398.298695
353.551276	2398.487739
353.941175	2393.917933
354.331010	2397.976062
354.720782	2400.834396
355.110490	2405.114335
355.500135	2396.221740
355.889717	2402.235837
356.279235	2401.807338
356.668689	2401.056207
357.058080	2401.247770
357.447408	2401.220044
357.836672	2398.593603
358.225873	2400.655435
358.615010	2397.303067
359.004084	2403.481002
359.393095	2403.526372
359.782043	2405.812535
360.170927	2402.472771
360.559748	2407.944943
360.948505	2407.544172
361.337199	2408.295303
361.725830	2405.026115
362.114398	2407.508883
362.502903	2405.938564
362.891344	2406.445200
363.279722	2408.711199
363.668037	2410.533576
364.056289	2407.755900
364.444478	2411.209090
364.832603	2413.190264
365.220665	2409.011147
365.608665	2408.340674
365.996601	2409.295972
366.384474	2412.986097
366.772284	2412.179513
367.160031	2412.580284
367.547715	2414.216139
367.935336	2413.021385
368.322893	2411.677918
368.710388	2412.156827
369.097820	2413.349060
369.485189	2412.144224
369.872495	2416.310738
370.259738	2414.939544
370.646918	2414.737898
371.034035	2415.446180
371.421090	2415.572209
371.808081	2415.446180
372.195010	2415.748649
372.581875	2416.366191
372.968678	2413.752353
373.355418	2417.162693
373.742096	2415.620100
374.128710	2419.617735
374.515262	2417.276119
374.901751	2418.405338
375.288177	2417.906263
375.674540	2416.741757
376.060841	2421.311563
376.447079	2417.283681
376.833254	2418.332241
377.219367	2414.609349
377.605417	2415.841911
377.991404	2416.177148
378.377329	2418.221335
378.763191	2412.935686
379.148991	2419.963054
379.534727	2419.937848
379.920402	2418.062539
380.306013	2422.589495
380.691563	2421.614032
381.077049	2420.366346
381.462474	2420.111768
381.847835	2423.259969
382.233134	2420.862900
382.618371	2424.444640
383.003545	2422.060174
383.388657	2421.737540
383.773706	2423.234763
384.158693	2424.442119
384.543618	2425.049578
384.928480	2423.431368
385.313280	2425.074784
385.698017	2422.861718
386.082692	2427.053437
386.467305	2426.405649
386.851856	2428.114600
387.236344	2426.551842
387.620770	2427.441606
388.005133	2426.839188
388.389435	2427.204672
388.773674	2426.892120
389.157851	2428.749785
389.541965	2427.865063
389.926018	2428.926226
390.310008	2426.849270
390.693936	2429.042172
391.077802	2427.711307
391.461606	2429.916812
391.845348	2426.874476
392.229027	2429.044693
392.612645	2428.790114
392.996200	2431.257759
393.379694	2429.720207
393.763125	2431.829930
394.146494	2428.333890
394.529801	2432.238264
394.913047	2429.810948
395.296230	2431.983685
395.679351	2432.313881
396.062410	2427.267686
396.445408	2430.153747
396.828343	2430.776329
397.211217	2429.014446
397.594028	2433.243974
397.976778	2427.693663
398.359466	2432.641556
398.742092	2427.411359
399.124656	2432.409663
399.507158	2435.613316
399.889598	2434.960487
400.271977	2433.889242
400.654294	2435.414191
401.036549	2432.369334
401.418742	2433.483429
401.800874	2433.727925
402.182944	2434.620209
402.564952	2436.026691
402.946898	2435.157092
403.328783	2436.866043
403.710606	2433.682554
404.092367	2434.554674
404.474067	2436.200611
404.855705	2439.303441
405.237282	2436.883687
405.618797	2437.299582
406.000250	2436.848399
406.381642	2437.440734
406.762972	2437.602051
407.144240	2437.720518
407.525447	2436.825714
407.906593	2439.532813
408.287677	2438.529624
408.668700	2437.788574
409.049661	2438.958122
409.430560	2438.426280
409.811399	2440.097422
410.192176	2437.289500
410.572891	2439.336208
410.953545	2437.208841
411.334138	2439.658842
411.714669	2441.766044
412.095139	2441.526590
412.475547	2438.479212
412.855894	2442.247475
413.236180	2440.089861
413.616405	2441.768565
413.996568	2442.287804
414.376670	2441.002310
414.756711	2438.882504
415.136691	2439.197577
415.516609	2443.003648
415.896466	2442.428956
416.276262	2442.408792
416.655997	2439.885694
417.035670	2437.700354
417.415283	2443.699327
417.794834	2438.892587
418.174324	2442.776796
418.553753	2439.752103
418.933121	2441.266970
419.312428	2440.755293
419.691674	2442.272680
420.070859	2443.986673
420.449983	2443.656477
420.829045	2443.532969
421.208047	2444.568926
421.586988	2444.470623
421.965867	2442.829728
422.344686	2444.657146
422.723444	2442.796960
423.102141	2445.103288
423.480777	2447.666715
423.859352	2447.792744
424.237866	2446.202260
424.616319	2445.393155
424.994712	2445.264605
425.373044	2444.334512
425.751314	2445.393155
426.129524	2446.900460
426.507673	2444.294183
426.885762	2445.035233
427.263789	2449.032868
427.641756	2448.150666
428.019662	2447.218052
428.397508	2448.455656
428.775292	2445.884667
429.153016	2446.718978
429.530679	2448.077569
429.908282	2449.453804
430.285824	2445.083124
430.663305	2447.089503
431.040726	2448.185954
431.418086	2446.734102
431.795385	2447.858279
432.172624	2450.197374
432.549802	2449.819288
432.926920	2449.763835
433.303977	2450.265430
433.680974	2447.371807
434.057910	2448.503547
434.434786	2451.354319
434.811601	2450.066304
435.188355	2447.752415
435.565050	2448.795933
435.941683	2451.175358
436.318257	2448.377518
436.694770	2443.832918
437.071222	2447.361725
437.447614	2445.614965
437.823946	2448.458176
438.200218	2450.656119
438.576429	2452.453291
438.952580	2452.218877
439.328670	2451.984463
439.704700	2453.154011
440.080670	2450.225101
440.456580	2451.669391
440.832429	2451.674432
441.208218	2453.519495
441.583947	2452.397838
441.959616	2449.489092
442.335224	2452.239042
442.710773	2450.983794
443.086261	2455.916563
443.461689	2453.857252
443.837057	2454.111830
444.212365	2454.416820
444.587612	2456.418158
444.962800	2455.291460
445.337927	2455.014197
445.712995	2451.039247
446.088002	2456.511419
446.462949	2454.651234
446.837837	2454.918415
447.212664	2458.232973
447.587431	2457.459156
447.962139	2462.517954
448.336786	2464.017697
448.711374	2463.634570
449.085901	2462.656586
449.460369	2460.766153
449.834776	2459.878910
450.209124	2462.545681
450.583412	2463.712708
450.957640	2464.219344
451.331808	2463.490897
451.705917	2461.484518
452.079965	2461.416462
452.453954	2462.071812
452.827883	2462.699436
453.201752	2462.543160
453.575562	2462.787656
453.949311	2463.127934
454.323001	2466.253449
454.696632	2462.543160
455.070202	2466.669344
455.443713	2468.423666
455.817164	2467.241515
456.190556	2465.913171
456.563888	2467.909468
456.937160	2463.919395
457.310373	2467.788481
457.683526	2467.332256
458.056619	2469.792339
458.429653	2468.647997
458.802628	2471.468523
459.175542	2470.140179
459.548398	2472.330560
459.921194	2472.534727
460.293930	2474.949440
460.666607	2478.405151
461.039224	2475.589666
461.411782	2479.070583
461.784280	2478.160655
462.156719	2477.399440
462.529099	2476.522280
462.901419	2473.827783
463.273680	2475.677886
463.645882	2477.240644
464.018024	2477.969091
464.390106	2478.851293
464.762130	2483.468990
465.134094	2484.527632
465.505999	2489.830926
465.877845	2495.892913
466.249631	2496.581031
466.621358	2497.485918
466.993026	2496.891062
467.364634	2495.517347
467.736184	2492.732110
468.107674	2489.107520
468.479105	2490.531646
468.850477	2486.977633
469.221790	2485.525780
469.593043	2483.652992
469.964238	2485.437560
470.335373	2482.380100
470.706449	2490.624908
471.077467	2491.209681
471.448425	2497.354848
471.819324	2500.974396
472.190164	2499.275528
472.560945	2495.378716
472.931667	2490.755978
473.302330	2490.168683
473.672934	2491.610453
474.043479	2491.108858
474.413965	2489.115082
474.784393	2485.971923
475.154761	2491.171873
475.525070	2486.176089
475.895321	2491.549959
476.265513	2487.174238
476.635645	2497.407780
477.005719	2497.037255
477.375734	2498.242091
477.745691	2500.666886
478.115588	2501.221413
478.485427	2504.596465
478.855207	2512.566530
479.224928	2515.218177
479.594591	2522.338806
479.964194	2518.661285
480.333739	2522.789990
480.703226	2520.077849
481.072653	2524.060360
481.442022	2527.561442
481.811333	2530.470187
482.180584	2529.333407
482.549777	2526.223015
482.918912	2529.446833
483.287988	2530.157636
483.657005	2531.460774
484.025964	2535.002185
484.394864	2533.119314
484.763706	2535.256763
485.132489	2533.872966
485.501213	2536.766589
485.869879	2538.258770
486.238487	2538.962011
486.607036	2542.553833
486.975527	2543.083154
487.343959	2543.254554
487.712333	2547.887374
488.080648	2546.488454
488.448905	2552.300904
488.817104	2553.377191
489.185244	2559.388767
489.553326	2563.525033
489.921350	2577.584811
490.289315	2584.256778
490.657222	2592.990577
491.025070	2596.854622
491.392861	2596.978130
491.760593	2595.523757
492.128267	2595.070053
492.495883	2591.518561
492.863440	2591.304312
493.230939	2588.960175
493.598380	2587.531008
493.965763	2588.614856
494.333088	2590.888416
494.700354	2592.100814
495.067563	2594.777667
495.434713	2592.864549
495.801805	2599.939808
496.168839	2601.162288
496.535815	2605.779985
496.902733	2608.429111
497.269593	2610.637137
497.636395	2611.410954
498.003139	2614.418002
498.369825	2618.808847
498.736453	2621.727675
499.103023	2624.694394
499.469535	2623.494599
499.835989	2627.477111
500.202385	2629.092801
500.568723	2633.105559
500.935003	2640.016981
501.301226	2639.749800
501.667390	2645.768938
502.033497	2653.620535
502.399546	2649.138949
502.765537	2648.584422
503.131470	2656.861997
503.497345	2659.995074
503.863163	2655.276554
504.228923	2662.014056
504.594625	2668.791887
504.960269	2666.049500
505.325856	2674.934533
505.691385	2676.711540
506.056856	2677.190450
506.422270	2683.769155
506.787625	2684.240503
507.152924	2687.900381
507.518164	2693.667461
507.883347	2689.382480
508.248472	2694.826926
508.613540	2698.300281
508.978550	2705.690613
509.343503	2710.769575
509.708398	2713.063300
510.073236	2718.913559
510.438016	2719.417675
510.802738	2719.483210
511.167403	2729.683985
511.532010	2730.906464
511.896561	2734.818400
512.261053	2746.813825
512.625488	2746.995307
512.989866	2746.002200
513.354186	2749.848600
513.718449	2748.870616
514.082655	2760.762698
514.446803	2760.800507
514.810894	2769.869542
515.174927	2771.447424
515.538904	2773.403391
515.902822	2783.412602
516.266684	2782.792540
516.630488	2789.683798
516.994235	2792.718572
517.357925	2803.221816
517.721558	2802.374902
518.085133	2810.866726
518.448651	2818.113385
518.812112	2816.873261
519.175516	2821.622028
519.538863	2834.736590
519.902152	2835.502845
520.265385	2844.662622
520.628560	2849.358456
520.991678	2855.478417
521.354739	2859.110568
521.717743	2869.192876
522.080690	2874.370141
522.443580	2886.219373
522.806413	2892.369581
523.169189	2898.565159
523.531908	2910.071593
523.894569	2911.283990
524.257174	2924.411155
524.619722	2933.651590
524.982213	2942.128290
525.344647	2949.717747
525.707025	2956.876186
526.069345	2974.391675
526.431608	2984.010196
526.793815	2996.209788
527.155964	3004.459637
527.518057	3012.888446
527.880093	3023.994108
528.242072	3037.796787
528.603995	3050.308931
528.965860	3059.488872
529.327669	3075.779361
529.689421	3085.294539
530.051117	3101.330449
530.412755	3117.870475
530.774337	3131.128709
531.135862	3144.553302
531.497331	3159.954027
531.858743	3173.124042
532.220098	3201.142775
532.581396	3210.602500
532.942638	3227.197978
533.303824	3250.107502
533.664953	3271.461830
534.026025	3287.361629
534.387040	3314.228458
534.747999	3335.250070
535.108902	3364.156046
535.469748	3376.486708
535.830537	3401.475708
536.191270	3428.524019
536.551947	3447.740897
536.912567	3482.388748
537.273131	3512.295393
537.633638	3530.123433
537.994089	3567.095256
538.354483	3586.370108
538.714821	3633.744351
539.075103	3674.940660
539.435328	3702.208261
539.795497	3732.150194
540.155609	3766.505658
540.515665	3813.940395
540.875665	3834.682223
541.235609	3883.099985
541.595496	3920.744801
541.955328	3983.174450
542.315102	4003.928881
542.674821	4034.201009
543.034483	4080.004933
543.394090	4117.135552
543.753640	4160.005524
544.113134	4250.537086
544.472571	4260.689969
544.831953	4355.972818
545.191278	4376.197928
545.550548	4415.229061
545.909761	4484.701202
546.268918	4549.006161
546.628019	4620.474599
546.987064	4655.974404
547.346053	4673.434441
547.704986	4774.121406
548.063863	4811.753620
548.422684	4878.712746
548.781449	4934.130150
549.140158	5015.138972
549.498811	5073.364299
549.857408	5102.761787
550.215949	5217.838727
550.574434	5279.353407
550.932864	5336.837684
551.291237	5445.255259
551.649555	5499.614021
552.007817	5586.329429
552.366022	5640.242049
552.724173	5732.676646
553.082267	5833.366132
553.440305	5939.363953
553.798288	5966.167768
554.156215	6071.548048
554.514086	6171.360374
554.871902	6240.862762
555.229661	6324.528272
555.587365	6398.572739
555.945014	6499.415981
556.302606	6582.221974
556.660143	6698.617175
557.017625	6798.177443
557.375050	6875.234000
557.732421	7004.940368
558.089735	7105.425688
558.446994	7189.232350
558.804197	7349.004159
559.161345	7442.825073
559.518437	7463.546736
559.875474	7602.962367
560.232455	7725.805203
560.589381	7857.454936
560.946251	7932.658869
561.303065	8130.483828
561.659825	8224.153508
562.016528	8292.564486
562.373177	8376.056076
562.729770	8556.892347
563.086307	8608.803629
563.442789	8795.117113
563.799216	8923.661495
564.155587	9026.735447
564.511904	9148.691041
564.868164	9293.324266
565.224370	9467.891862
565.580520	9561.770749
565.936615	9724.214370
566.292654	9818.080655
566.648638	9996.068673
567.004567	10128.560279
567.360441	10282.350759
567.716260	10397.253779
568.072023	10602.166600
568.427732	10753.640671
568.783385	10814.898252
569.138982	11041.745133
569.494525	11190.953205
569.850013	11291.919955
570.205445	11444.273706
570.560823	11587.341653
570.916145	11727.833569
571.271412	11892.102088
571.626625	12000.527225
571.981782	12175.288905
572.336884	12272.792382
572.691931	12514.855987
573.046923	12583.657655
573.401860	12723.920199
573.756743	12890.610992
574.111570	13094.462650
574.466342	13225.530130
574.821059	13433.439917
575.175722	13475.775527
575.530330	13653.824040
575.884882	13751.934976
576.239380	13923.613991
576.593823	14082.831273
576.948211	14243.795316
577.302544	14289.924394
577.656823	14472.086488
578.011047	14717.157141
578.365216	14815.913345
578.719330	14934.443475
579.073389	15075.623509
579.427394	15288.294666
579.781344	15462.980729
580.135239	15541.194231
580.489080	15754.442601
580.842866	15773.528409
581.196597	16120.193436
581.550273	16278.074812
581.903895	16431.227587
582.257463	16780.806400
582.610975	16755.124242
582.964434	17050.447637
583.317837	17123.093185
583.671186	17251.599758
584.024481	17531.078807
584.377721	17554.784833
584.730906	17853.856326
585.084037	18060.916679
585.437113	18144.002456
585.790135	18354.551288
586.143103	18387.054127
586.496016	18636.563516
586.848874	18828.825562
587.201679	19039.374393
587.554428	19011.947996
587.907124	19296.382499
588.259765	19386.798114
588.612352	19689.418579
588.964884	19619.593557
589.317362	19934.721125
589.669786	20110.952302
590.022155	20188.802841
590.374470	20573.563867
590.726731	20550.682070
591.078937	20521.435816
591.431090	20749.149776
591.783188	20765.286509
592.135232	20804.698250
592.487222	21094.400759
592.839157	21336.262717
593.191038	21360.036799
593.542866	21431.908529
593.894639	21301.461112
594.246358	21617.183536
594.598022	21796.933438
594.949633	21773.464347
595.301190	21922.223755
595.652692	22019.613807
596.004141	22362.031661
596.355535	22019.054238
596.706876	22162.502792
597.058162	22247.952870
597.409395	22672.294516
597.760573	22892.507239
598.111698	22828.650943
598.462768	22995.495492
598.813785	23205.048695
599.164748	23055.926323
599.515657	23460.993117
599.866511	23321.622857
600.217312	23840.899512
600.568060	23414.773298
600.918753	24000.661239
601.269392	24154.091277
601.619978	24107.077476
601.970510	24396.076744
602.320988	24675.540669
602.671412	25007.304045
603.021783	25017.340982
603.372100	24955.428051
603.722363	25195.457551
604.072572	25383.505192
604.422728	25564.495218
604.772830	25598.175167
605.122878	25811.456304
605.472872	25926.427379
605.822813	26261.843071
606.172701	26305.010471
606.522534	26603.756810
606.872314	26917.689624
607.222041	26922.289677
607.571714	27341.411208
607.921333	27097.734434
608.270899	27454.237272
608.620411	27845.151027
608.969870	27846.481891
609.319276	27984.551533
609.668627	28172.016921
610.017926	28650.024170
610.367171	28917.422094
610.716362	29118.624626
611.065500	29227.347191
611.414585	29495.032460
611.763616	29861.400837
612.112594	29935.878843
612.461518	30225.931712
612.810389	30587.858832
613.159207	30613.422523
613.507971	30803.804219
613.856682	31303.034725
614.205340	31326.244198
614.553945	31985.740547
614.902496	31699.022401
615.250994	32177.208611
615.599439	32363.844729
615.947830	32667.438137
616.296169	32824.533094
616.644454	33046.064079
616.992686	33301.272493
617.340864	33840.184442
617.688990	33724.389138
618.037063	34313.132893
618.385082	34404.463477
618.733048	34758.912045
619.080961	34875.135847
619.428821	34995.687479
619.776628	35194.394641
620.124382	35162.358108
620.472083	35388.151389
620.819731	35618.471626
621.167326	35464.834900
621.514868	35564.440539
621.862357	35322.888611
622.209793	35442.147188
622.557176	35290.632788
622.904506	35189.333322
623.251783	35006.263820
623.599007	34926.353970
623.946179	34851.951580
624.293297	34902.075773
624.640363	34501.072149
624.987376	34585.561888
625.334336	34490.367259
625.681243	34268.891727
626.028097	34336.430585
626.374899	34301.233249
626.721647	34371.469125
627.068343	34370.513826
627.414987	34251.063686
627.761577	34124.056856
628.108115	34485.999099
628.454600	34093.903194
628.801032	34325.944985
629.147412	34373.888879
629.493739	34450.574911
629.840014	34211.944332
630.186236	34592.364925
630.532405	34315.648428
630.878521	34577.485959
631.224585	34533.562386
631.570597	34332.690049
631.916556	34535.636821
632.262462	34570.040175
632.608316	34632.903363
632.954117	34605.285402
633.299866	34665.333106
633.645562	34649.844161
633.991206	34293.472393
634.336797	33975.441120
634.682336	34026.255951
635.027823	33881.695823
635.373257	33781.480205
635.718639	33633.703821
636.063968	33576.758947
636.409245	33118.636530
636.754470	33228.856318
637.099642	33055.722930
637.444762	32684.598225
637.789829	32864.186810
638.134845	32609.227934
638.479808	32612.088789
638.824719	32554.750705
639.169577	32258.502258
639.514383	32380.130177
639.859137	32139.775523
640.203839	32398.036355
640.548489	32121.697945
640.893086	32199.397250
641.237632	32046.103323
