Dividing Wavelength (nm)	Counts (n)	Blue Motor Position (mm): 15.600000	Red Motor Position (mm): 0.000000	
326.493990	1974.536782
326.888308	1974.536782
327.282561	1974.536782
327.676750	1950.780345
328.070874	1952.292691
328.464933	1959.062961
328.858929	1969.563684
329.252859	1977.944602
329.646726	1993.534371
330.040528	2007.999962
330.434265	2028.013342
330.827938	2049.697866
331.221547	2069.335681
331.615091	2088.204719
332.008571	2108.966712
332.401986	2129.706018
332.795338	2152.789462
333.188625	2171.295538
333.581847	2189.050482
333.975006	2205.572863
334.368100	2225.417365
334.761129	2241.642319
335.154095	2255.092118
335.546996	2289.601336
335.939833	2344.013030
336.332606	2357.120030
336.725315	2367.628315
337.117960	2377.622403
337.510540	2388.211347
337.903056	2395.463046
338.295508	2401.832544
338.687896	2409.149779
339.080220	2418.483475
339.472480	2421.608991
339.864676	2424.220308
340.256807	2427.749116
340.648875	2427.839857
341.040879	2432.565939
341.432818	2431.850095
341.824694	2432.129879
342.216506	2433.067533
342.608253	2430.670465
342.999937	2430.163829
343.391557	2428.633839
343.783113	2429.049734
344.174605	2426.907243
344.566033	2424.674012
344.957397	2424.391708
345.348697	2419.658064
345.739934	2423.010432
346.131106	2417.966757
346.522215	2416.857703
346.913260	2416.333423
347.304241	2412.643299
347.695159	2411.503998
348.086012	2413.638927
348.476802	2406.800601
348.867528	2408.809501
349.258191	2405.396640
349.648789	2405.852864
350.039324	2405.162226
350.429796	2402.765158
350.820203	2401.961094
351.210548	2402.099725
351.600828	2399.437996
351.991045	2400.015208
352.381198	2403.291958
352.771288	2400.380692
353.161314	2400.242060
353.551276	2400.153840
353.941175	2396.867008
354.331010	2401.530075
354.720782	2399.390105
355.110490	2402.692061
355.500135	2400.206772
355.889717	2399.332132
356.279235	2402.256001
356.668689	2402.228275
357.058080	2400.662997
357.447408	2398.659138
357.836672	2398.535630
358.225873	2404.317833
358.615010	2397.877759
359.004084	2403.717936
359.393095	2404.458985
359.782043	2404.315312
360.170927	2406.530900
360.559748	2406.495612
360.948505	2405.560478
361.337199	2406.752710
361.725830	2406.667011
362.114398	2409.321178
362.502903	2408.839748
362.891344	2410.823442
363.279722	2407.939902
363.668037	2412.386200
364.056289	2409.855541
364.444478	2409.648853
364.832603	2406.941754
365.220665	2412.237486
365.608665	2411.839235
365.996601	2410.052146
366.384474	2411.579615
366.772284	2412.368556
367.160031	2414.072466
367.547715	2412.913000
367.935336	2413.079358
368.322893	2413.497774
368.710388	2412.847465
369.097820	2415.267219
369.485189	2410.866292
369.872495	2416.441808
370.259738	2414.884092
370.646918	2415.620100
371.034035	2416.719072
371.421090	2416.419123
371.808081	2415.564647
372.195010	2415.138670
372.581875	2416.814853
372.968678	2419.753846
373.355418	2417.132446
373.742096	2419.645461
374.128710	2418.102868
374.515262	2420.847777
374.901751	2417.306366
375.288177	2419.854669
375.674540	2418.133115
376.060841	2421.631676
376.447079	2419.723599
376.833254	2420.898188
377.219367	2415.796540
377.605417	2418.765780
377.991404	2417.167734
378.377329	2418.649833
378.763191	2415.952816
379.148991	2421.735020
379.534727	2422.637386
379.920402	2421.223343
380.306013	2424.164856
380.691563	2421.803075
381.077049	2422.352561
381.462474	2421.856007
381.847835	2422.649989
382.233134	2426.067891
382.618371	2421.651841
383.003545	2424.603436
383.388657	2425.611667
383.773706	2423.280133
384.158693	2423.895154
384.543618	2423.186872
384.928480	2423.751481
385.313280	2425.795669
385.698017	2424.540422
386.082692	2426.030083
386.467305	2424.270720
386.851856	2427.199630
387.236344	2425.082346
387.620770	2426.781215
388.005133	2426.614857
388.389435	2427.257604
388.773674	2428.575865
389.157851	2428.250711
389.541965	2427.330700
389.926018	2428.480083
390.310008	2427.023190
390.693936	2430.446133
391.077802	2426.430854
391.461606	2427.585279
391.845348	2427.398756
392.229027	2427.305495
392.612645	2431.794642
392.996200	2430.597368
393.379694	2432.137441
393.763125	2431.620722
394.146494	2431.199786
394.529801	2430.491504
394.913047	2431.683737
395.296230	2434.627771
395.679351	2433.773295
396.062410	2432.155085
396.445408	2432.644077
396.828343	2431.623243
397.211217	2426.640062
397.594028	2431.840012
397.976778	2427.716349
398.359466	2431.061154
398.742092	2427.837336
399.124656	2433.924530
399.507158	2433.019642
399.889598	2435.222627
400.271977	2434.784046
400.654294	2437.062648
401.036549	2433.017122
401.418742	2434.567277
401.800874	2431.542584
402.182944	2435.681372
402.564952	2436.931578
402.946898	2439.184974
403.328783	2436.296393
403.710606	2433.566608
404.092367	2437.297062
404.474067	2434.834458
404.855705	2434.854623
405.237282	2438.842175
405.618797	2436.092226
406.000250	2436.442586
406.381642	2439.590787
406.762972	2438.577515
407.144240	2437.211362
407.525447	2439.467278
407.906593	2438.176743
408.287677	2439.580704
408.668700	2437.919644
409.049661	2440.422577
409.430560	2439.401743
409.811399	2440.498194
410.192176	2441.602207
410.572891	2440.888884
410.953545	2437.745724
411.334138	2443.739656
411.714669	2438.915272
412.095139	2440.425097
412.475547	2439.638678
412.855894	2439.222782
413.236180	2441.730756
413.616405	2442.169337
413.996568	2439.825200
414.376670	2445.418360
414.756711	2441.483740
415.136691	2441.456013
415.516609	2441.367793
415.896466	2441.539193
416.276262	2441.024995
416.655997	2439.016095
417.035670	2436.364448
417.415283	2444.447938
417.794834	2440.006682
418.174324	2443.898453
418.553753	2441.244285
418.933121	2443.593463
419.312428	2442.882660
419.691674	2441.899635
420.070859	2444.125304
420.449983	2444.846189
420.829045	2444.357197
421.208047	2443.855603
421.586988	2444.863833
421.965867	2444.757969
422.344686	2443.540531
422.723444	2444.316868
423.102141	2442.691096
423.480777	2447.336519
423.859352	2446.282918
424.237866	2447.112188
424.616319	2444.231169
424.994712	2448.395162
425.373044	2446.035902
425.751314	2447.021447
426.129524	2445.854420
426.507673	2446.726540
426.885762	2444.150510
427.263789	2448.778289
427.641756	2447.109668
428.019662	2445.751077
428.397508	2446.832404
428.775292	2446.499688
429.153016	2447.901129
429.530679	2448.536314
429.908282	2450.951027
430.285824	2446.177054
430.663305	2446.232507
431.040726	2446.020778
431.418086	2450.162086
431.795385	2449.723506
432.172624	2451.593774
432.549802	2447.777620
432.926920	2452.455811
433.303977	2451.230811
433.680974	2450.900615
434.057910	2448.259051
434.434786	2450.595625
434.811601	2452.017231
435.188355	2451.979422
435.565050	2451.835749
435.941683	2450.293156
436.318257	2450.194854
436.694770	2447.344081
437.071222	2450.227621
437.447614	2448.526232
437.823946	2451.422375
438.200218	2451.129988
438.576429	2454.144598
438.952580	2451.956737
439.328670	2454.462190
439.704700	2452.155862
440.080670	2451.283743
440.456580	2452.221397
440.832429	2454.885647
441.208218	2454.487396
441.583947	2454.618466
441.959616	2453.128805
442.335224	2453.068311
442.710773	2456.992850
443.086261	2452.962447
443.461689	2454.507561
443.837057	2454.729372
444.212365	2457.416307
444.587612	2457.391101
444.962800	2458.832871
445.337927	2457.254990
445.712995	2452.223918
446.088002	2459.205916
446.462949	2456.942438
446.837837	2457.701132
447.212664	2456.150977
447.587431	2460.556945
447.962139	2460.766153
448.336786	2466.704632
448.711374	2464.904941
449.085901	2461.214816
449.460369	2460.352779
449.834776	2462.943932
450.209124	2463.629529
450.583412	2462.238170
450.957640	2464.458798
451.331808	2465.809828
451.705917	2465.036011
452.079965	2462.825465
452.453954	2463.528706
452.827883	2463.959724
453.201752	2464.988120
453.575562	2466.379478
453.949311	2466.697071
454.323001	2465.204889
454.696632	2468.804273
455.070202	2468.005250
455.443713	2467.619602
455.817164	2468.214458
456.190556	2466.767647
456.563888	2467.546505
456.937160	2464.788994
457.310373	2470.704788
457.683526	2465.885445
458.056619	2471.677731
458.429653	2467.125569
458.802628	2470.790488
459.175542	2471.050107
459.548398	2473.797536
459.921194	2473.946250
460.293930	2475.670325
460.666607	2480.340954
461.039224	2478.667291
461.411782	2480.509832
461.784280	2480.250213
462.156719	2479.763742
462.529099	2482.188537
462.901419	2477.520428
463.273680	2477.976652
463.645882	2476.703761
464.018024	2479.078145
464.390106	2480.164513
464.762130	2484.293218
465.134094	2488.255565
465.505999	2492.215392
465.877845	2500.490446
466.249631	2500.046824
466.621358	2498.935250
466.993026	2499.444406
467.364634	2496.896103
467.736184	2491.522233
468.107674	2489.674650
468.479105	2491.577686
468.850477	2487.285143
469.221790	2490.171204
469.593043	2486.297077
469.964238	2486.760863
470.335373	2488.164824
470.706449	2491.257572
471.077467	2493.745382
471.448425	2502.516989
471.819324	2505.392968
472.190164	2501.707884
472.560945	2496.197903
472.931667	2492.913591
473.302330	2493.659682
473.672934	2494.667913
474.043479	2493.657162
474.413965	2493.279075
474.784393	2491.373519
475.154761	2497.364930
475.525070	2494.680516
475.895321	2493.155567
476.265513	2493.127840
476.635645	2500.644201
477.005719	2500.480363
477.375734	2502.738800
477.745691	2504.256188
478.115588	2506.451610
478.485427	2510.797085
478.855207	2516.433095
479.224928	2522.540453
479.594591	2528.733510
479.964194	2526.485155
480.333739	2528.599919
480.703226	2525.338293
481.072653	2531.654859
481.442022	2535.239119
481.811333	2538.858667
482.180584	2535.491177
482.549777	2535.798687
482.918912	2535.884387
483.287988	2538.173071
483.657005	2539.445962
484.025964	2538.662063
484.394864	2540.915458
484.763706	2544.925696
485.132489	2541.911086
485.501213	2548.900646
485.869879	2545.518032
486.238487	2549.102292
486.607036	2549.198074
486.975527	2550.886861
487.343959	2555.116389
487.712333	2559.721483
488.080648	2555.814588
488.448905	2560.724672
488.817104	2561.952193
489.185244	2570.572566
489.553326	2575.868298
489.921350	2587.518405
490.289315	2599.022318
490.657222	2605.565736
491.025070	2608.348453
491.392861	2608.978597
491.760593	2608.300562
492.128267	2603.715632
492.495883	2604.486929
492.863440	2602.878801
493.230939	2599.599530
493.598380	2600.181783
493.965763	2601.731938
494.333088	2601.439551
494.700354	2602.152875
495.067563	2604.754110
495.434713	2602.440220
495.801805	2610.201077
496.168839	2616.250461
496.535815	2613.014041
496.902733	2617.152828
497.269593	2619.199536
497.636395	2623.844960
498.003139	2628.092132
498.369825	2627.346041
498.736453	2635.752165
499.103023	2635.545478
499.469535	2634.315436
499.835989	2639.948926
500.202385	2637.834162
500.568723	2644.135604
500.935003	2646.653660
501.301226	2649.068373
501.667390	2652.952582
502.033497	2661.414159
502.399546	2661.053716
502.765537	2661.356185
503.131470	2665.709222
503.497345	2670.362207
503.863163	2668.491939
504.228923	2671.945129
504.594625	2676.865295
504.960269	2676.288083
505.325856	2686.400638
505.691385	2684.699248
506.056856	2691.547656
506.422270	2694.370702
506.787625	2695.953624
507.152924	2700.795652
507.518164	2704.309337
507.883347	2703.412011
508.248472	2708.480892
508.613540	2711.147662
508.978550	2716.329968
509.343503	2719.528580
509.708398	2724.587378
510.073236	2729.164746
510.438016	2733.290930
510.802738	2733.963924
511.167403	2741.197980
511.532010	2744.895666
511.896561	2756.560896
512.261053	2764.271341
512.625488	2761.075250
512.989866	2761.944849
513.354186	2764.873759
513.718449	2765.667741
514.082655	2779.757766
514.446803	2780.861778
514.810894	2789.499796
515.174927	2794.268727
515.538904	2797.858029
515.902822	2809.235913
516.266684	2809.256077
516.630488	2817.211018
516.994235	2819.056081
517.357925	2830.312977
517.721558	2837.867146
518.085133	2844.738239
518.448651	2850.686800
518.812112	2856.716020
519.175516	2863.536702
519.538863	2874.123125
519.902152	2878.818959
520.265385	2890.905126
520.628560	2901.731004
520.991678	2905.363155
521.354739	2916.819177
521.717743	2926.268820
522.080690	2934.120417
522.443580	2952.858386
522.806413	2961.917339
523.169189	2970.139461
523.531908	2982.817963
523.894569	2993.311125
524.257174	3003.776560
524.619722	3019.716689
524.982213	3033.685726
525.344647	3043.979762
525.707025	3060.184551
526.069345	3077.556367
526.431608	3089.544231
526.793815	3109.308075
527.155964	3118.800568
527.518057	3135.759009
527.880093	3151.217707
528.242072	3174.873322
528.603995	3189.233049
528.965860	3205.581511
529.327669	3223.679253
529.689421	3242.013929
530.051117	3263.595109
530.412755	3288.319448
530.774337	3310.578663
531.135862	3329.626663
531.497331	3357.075745
531.858743	3374.626523
532.220098	3409.052562
532.581396	3426.757094
532.942638	3445.623613
533.303824	3481.637616
533.664953	3509.694157
534.026025	3534.965462
534.387040	3576.751586
534.747999	3602.012808
535.108902	3641.908499
535.469748	3661.473217
535.830537	3694.109647
536.191270	3739.906010
536.551947	3762.815533
536.912567	3810.371258
537.273131	3849.699820
537.633638	3873.441134
537.994089	3927.260492
538.354483	3952.841827
538.714821	4012.133358
539.075103	4070.502358
539.435328	4105.823203
539.795497	4148.557064
540.155609	4193.405689
540.515665	4259.056636
540.875665	4284.615286
541.235609	4340.914892
541.595496	4394.358684
541.955328	4475.932115
542.315102	4503.476980
542.674821	4545.119431
543.034483	4601.434161
543.394090	4657.123787
543.753640	4708.336869
544.113134	4819.637984
544.472571	4825.170651
544.831953	4953.899035
545.191278	4980.496162
545.550548	5021.616854
545.909761	5114.679075
546.268918	5191.143297
546.628019	5279.131596
546.987064	5318.576104
547.346053	5338.387839
547.704986	5463.789061
548.063863	5509.668602
548.422684	5590.899235
548.781449	5657.326519
549.140158	5762.381645
549.498811	5826.472354
549.857408	5859.892683
550.215949	6006.963306
550.574434	6075.502833
550.932864	6143.757536
551.291237	6287.284227
551.649555	6343.036868
552.007817	6447.139216
552.366022	6507.459142
552.724173	6610.124761
553.082267	6738.142342
553.440305	6859.646753
553.798288	6889.591206
554.156215	7016.552666
554.514086	7140.207129
554.871902	7212.497275
555.229661	7314.626011
555.587365	7398.543578
555.945014	7514.497678
556.302606	7615.635827
556.660143	7744.172648
557.017625	7860.489711
557.375050	7950.605377
557.732421	8109.570602
558.089735	8219.782828
558.446994	8315.521901
558.804197	8500.733893
559.161345	8610.626006
559.518437	8633.464953
559.875474	8787.683932
560.232455	8937.005429
560.589381	9079.407943
560.946251	9163.005397
561.303065	9389.973267
561.659825	9494.962858
562.016528	9572.105114
562.373177	9661.794803
562.729770	9871.244663
563.086307	9924.595194
563.442789	10145.087702
563.799216	10289.252099
564.155587	10403.708976
564.511904	10540.868690
564.868164	10702.301560
565.224370	10899.140973
565.580520	10997.604790
565.936615	11188.467916
566.292654	11286.722525
566.648638	11484.907927
567.004567	11638.201854
567.360441	11801.903243
567.716260	11925.840010
568.072023	12163.563181
568.427732	12338.342506
568.783385	12395.912483
569.138982	12655.791525
569.494525	12816.803458
569.850013	12938.938013
570.205445	13100.706119
570.560823	13271.810443
570.916145	13420.874841
571.271412	13597.668107
571.626625	13707.109036
571.981782	13905.687648
572.336884	13999.692564
572.691931	14272.623154
573.046923	14340.320809
573.401860	14476.109329
573.756743	14649.812367
574.111570	14862.569224
574.466342	14998.002343
574.821059	15220.047526
575.175722	15263.086377
575.530330	15448.063955
575.884882	15548.735797
576.239380	15720.530759
576.593823	15912.165181
576.948211	16069.146712
577.302544	16103.063595
577.656823	16301.934594
578.011047	16571.535501
578.365216	16670.226170
578.719330	16793.845345
579.073389	16940.212726
579.427394	17155.843041
579.781344	17351.137341
580.135239	17411.593378
580.489080	17653.241088
580.842866	17657.926840
581.196597	18024.300258
581.550273	18208.128453
581.903895	18359.211834
582.257463	18743.773735
582.610975	18703.971305
582.964434	19008.056225
583.317837	19075.022913
583.671186	19201.114773
584.024481	19493.859618
584.377721	19497.068313
584.730906	19817.040430
585.084037	20028.448778
585.437113	20101.704305
585.790135	20305.926489
586.143103	20330.451702
586.496016	20580.369425
586.848874	20797.312960
587.201679	20999.160760
587.554428	20957.530911
587.907124	21243.681927
588.259765	21331.140905
588.612352	21655.234165
588.964884	21546.365407
589.317362	21877.884287
589.669786	22042.248587
590.022155	22125.961988
590.374470	22534.189585
590.726731	22476.430565
591.078937	22415.112490
591.431090	22667.155059
591.783188	22668.750584
592.135232	22688.640457
592.487222	22994.953567
592.839157	23239.547832
593.191038	23242.517071
593.542866	23295.202170
593.894639	23148.935612
594.246358	23483.643021
594.598022	23651.929340
594.949633	23606.453091
595.301190	23758.637964
595.652692	23846.971582
596.004141	24213.402973
596.355535	23816.611233
596.706876	23956.523417
597.058162	24032.208780
597.409395	24479.626307
597.760573	24703.322468
598.111698	24601.952426
598.462768	24777.495485
598.813785	24966.788292
599.164748	24803.379290
599.515657	25208.783841
599.866511	25056.994698
600.217312	25600.277328
600.568060	25102.589414
600.918753	25742.899132
601.269392	25878.629679
601.619978	25813.397148
601.970510	26102.421621
602.320988	26368.329884
602.671412	26728.250624
603.021783	26710.830917
603.372100	26645.290876
603.722363	26866.315225
604.072572	27066.650679
604.422728	27222.520636
604.772830	27245.848575
605.122878	27457.952602
605.472872	27563.700887
605.822813	27921.955526
606.172701	27936.897506
606.522534	28247.384692
606.872314	28564.803464
607.222041	28555.371466
607.571714	28979.652617
607.921333	28715.725528
608.270899	29067.829960
608.620411	29465.488778
608.969870	29442.727968
609.319276	29567.718337
609.668627	29758.841082
610.017926	30232.402033
610.367171	30482.344962
610.716362	30687.819872
611.065500	30783.937032
611.414585	31053.046427
611.763616	31412.689904
612.112594	31464.898614
612.461518	31773.263474
612.810389	32106.632457
613.159207	32138.258136
613.507971	32322.197237
613.856682	32828.744978
614.205340	32845.963039
614.553945	33502.837988
614.902496	33203.605178
615.250994	33688.977553
615.599439	33860.543142
615.947830	34141.118641
616.296169	34307.753982
616.644454	34509.442985
616.992686	34776.805621
617.340864	35302.502185
617.688990	35165.665105
618.037063	35761.501763
618.385082	35834.996745
618.733048	36181.518099
619.080961	36298.876160
619.428821	36411.500578
619.776628	36612.249407
620.124382	36559.080357
620.472083	36773.405013
620.819731	36973.160734
621.167326	36803.036915
621.514868	36891.509165
621.862357	36618.606302
622.209793	36735.767758
622.557176	36539.699641
622.904506	36439.544517
623.251783	36247.035455
623.599007	36141.035113
623.946179	36039.163476
624.293297	36088.251711
624.640363	35645.678733
624.987376	35736.968988
625.334336	35589.220330
625.681243	35373.985746
626.028097	35424.316626
626.374899	35375.586313
626.721647	35413.064771
627.068343	35391.387809
627.414987	35277.848422
627.761577	35138.485724
628.108115	35506.605901
628.454600	35076.655972
628.801032	35300.180733
629.147412	35339.864697
629.493739	35393.547944
629.840014	35141.510416
630.186236	35527.967791
630.532405	35235.729582
630.878521	35481.337117
631.224585	35432.793327
631.570597	35219.015636
631.916556	35401.822998
632.262462	35432.619407
632.608316	35495.220455
632.954117	35448.236901
633.299866	35500.173389
633.645562	35479.897868
633.991206	35094.637768
634.336797	34758.191160
634.682336	34819.279862
635.027823	34656.284235
635.373257	34533.196902
635.718639	34366.133064
636.063968	34292.812002
636.409245	33817.365659
636.754470	33922.967750
637.099642	33741.163577
637.444762	33343.139275
637.789829	33512.645553
638.134845	33251.123094
638.479808	33246.165119
638.824719	33207.544840
639.169577	32877.414798
639.514383	32984.743484
639.859137	32731.901892
640.203839	33002.448016
640.548489	32688.545448
640.893086	32800.199444
641.237632	32603.846502
