Dividing Wavelength (nm)	Counts (n)	Blue Motor Position (mm): 11.800000	Red Motor Position (mm): 0.000000	
326.493990	1975.494602
326.888308	1975.494602
327.282561	1975.494602
327.676750	1950.755139
328.070874	1954.563731
328.464933	1958.364761
328.858929	1966.526389
329.252859	1980.815540
329.646726	1993.947745
330.040528	2010.097082
330.434265	2028.552746
330.827938	2048.414892
331.221547	2069.189487
331.615091	2086.357137
332.008571	2110.083327
332.401986	2131.538478
332.795338	2149.754687
333.188625	2169.972235
333.581847	2189.216840
333.975006	2206.341639
334.368100	2225.961810
334.761129	2240.182905
335.154095	2257.763929
335.546996	2286.788372
335.939833	2336.310147
336.332606	2349.543176
336.725315	2362.168746
337.117960	2368.800384
337.510540	2378.242465
337.903056	2386.212529
338.295508	2393.819630
338.687896	2398.218037
339.080220	2405.928482
339.472480	2410.223545
339.864676	2414.788310
340.256807	2416.076324
340.648875	2420.958682
341.040879	2424.679053
341.432818	2423.509506
341.824694	2425.082346
342.216506	2422.564289
342.608253	2422.148394
342.999937	2422.816347
343.391557	2418.604463
343.783113	2417.427354
344.174605	2418.947262
344.566033	2417.623959
344.957397	2414.455593
345.348697	2413.916190
345.739934	2410.110119
346.131106	2411.103226
346.522215	2409.099368
346.913260	2405.890673
347.304241	2405.615930
347.695159	2400.219375
348.086012	2400.794067
348.476802	2401.474622
348.867528	2396.786349
349.258191	2394.117058
349.648789	2395.712583
350.039324	2393.496996
350.429796	2396.589744
350.820203	2389.852242
351.210548	2390.938611
351.600828	2393.209651
351.991045	2389.534649
352.381198	2387.492982
352.771288	2392.191338
353.161314	2387.447612
353.551276	2386.535163
353.941175	2388.009700
354.331010	2390.724362
354.720782	2392.914743
355.110490	2392.634959
355.500135	2392.007335
355.889717	2390.648744
356.279235	2390.900802
356.668689	2393.101266
357.058080	2391.914074
357.447408	2387.273692
357.836672	2387.185472
358.225873	2392.445916
358.615010	2388.158414
359.004084	2395.649569
359.393095	2395.710063
359.782043	2393.658313
360.170927	2394.863149
360.559748	2394.316184
360.948505	2397.242574
361.337199	2395.228633
361.725830	2396.125958
362.114398	2399.553943
362.502903	2397.882800
362.891344	2400.294992
363.279722	2400.277348
363.668037	2401.013357
364.056289	2400.418501
364.444478	2400.912534
364.832603	2400.360527
365.220665	2400.264745
365.608665	2401.388923
365.996601	2402.707184
366.384474	2403.614592
366.772284	2401.235168
367.160031	2401.956052
367.547715	2405.154665
367.935336	2401.643501
368.322893	2401.318347
368.710388	2404.106105
369.097820	2404.274983
369.485189	2404.897566
369.872495	2404.461506
370.259738	2404.675755
370.646918	2406.160375
371.034035	2405.938564
371.421090	2405.396640
371.808081	2405.343708
372.195010	2405.310940
372.581875	2404.864798
372.968678	2404.000240
373.355418	2404.466547
373.742096	2409.749676
374.128710	2406.402350
374.515262	2406.649367
374.901751	2407.944943
375.288177	2408.040725
375.674540	2409.419481
376.060841	2405.580642
376.447079	2408.663308
376.833254	2411.020047
377.219367	2404.383368
377.605417	2407.065262
377.991404	2406.798081
378.377329	2406.780437
378.763191	2402.792884
379.148991	2409.714388
379.534727	2410.911662
379.920402	2409.621127
380.306013	2412.766807
380.691563	2410.132804
381.077049	2410.067269
381.462474	2411.796385
381.847835	2412.355953
382.233134	2412.418967
382.618371	2411.221693
383.003545	2411.067938
383.388657	2412.585325
383.773706	2411.909811
384.158693	2412.955850
384.543618	2414.682445
384.928480	2417.749987
385.313280	2413.268402
385.698017	2413.132291
386.082692	2413.870820
386.467305	2412.487023
386.851856	2417.301325
387.236344	2412.290418
387.620770	2417.059349
388.005133	2416.222518
388.389435	2417.654206
388.773674	2412.522311
389.157851	2417.407189
389.541965	2414.690007
389.926018	2414.826118
390.310008	2414.813515
390.693936	2416.444329
391.077802	2418.705286
391.461606	2416.630851
391.845348	2417.742426
392.229027	2417.976839
392.612645	2419.247210
392.996200	2417.303845
393.379694	2417.402148
393.763125	2419.174113
394.146494	2421.016655
394.529801	2420.346182
394.913047	2419.642941
395.296230	2421.608991
395.679351	2420.714186
396.062410	2418.992632
396.445408	2422.385328
396.828343	2423.862387
397.211217	2418.503640
397.594028	2420.963723
397.976778	2419.814340
398.359466	2420.288208
398.742092	2419.630338
399.124656	2422.531522
399.507158	2424.248035
399.889598	2421.233425
400.271977	2419.262334
400.654294	2425.286513
401.036549	2422.148394
401.418742	2422.652510
401.800874	2422.193765
402.182944	2425.573858
402.564952	2423.648138
402.946898	2422.123188
403.328783	2423.449012
403.710606	2425.462953
404.092367	2427.073602
404.474067	2423.222160
404.855705	2423.917839
405.237282	2425.412541
405.618797	2425.021852
406.000250	2426.796338
406.381642	2423.489341
406.762972	2428.233067
407.144240	2425.684764
407.525447	2428.747265
407.906593	2423.980854
408.287677	2425.223498
408.668700	2426.264496
409.049661	2425.001687
409.430560	2427.519744
409.811399	2430.967893
410.192176	2429.037131
410.572891	2427.560073
410.953545	2428.709456
411.334138	2428.117120
411.714669	2426.713159
412.095139	2431.136772
412.475547	2430.194076
412.855894	2430.229364
413.236180	2427.615526
413.616405	2427.368509
413.996568	2425.949424
414.376670	2430.022677
414.756711	2426.904723
415.136691	2429.054775
415.516609	2431.819848
415.896466	2430.904878
416.276262	2431.658531
416.655997	2427.282809
417.035670	2426.824064
417.415283	2428.089394
417.794834	2427.388674
418.174324	2434.171546
418.553753	2432.656679
418.933121	2428.651483
419.312428	2431.146854
419.691674	2433.186001
420.070859	2432.326484
420.449983	2432.061823
420.829045	2432.840682
421.208047	2431.658531
421.586988	2431.582914
421.965867	2433.715322
422.344686	2432.170208
422.723444	2431.073757
423.102141	2432.810435
423.480777	2432.613830
423.859352	2432.873449
424.237866	2433.478388
424.616319	2431.915630
424.994712	2433.642225
425.373044	2436.563574
425.751314	2433.979982
426.129524	2434.035435
426.507673	2433.145671
426.885762	2432.780188
427.263789	2435.005857
427.641756	2434.398398
428.019662	2435.275559
428.397508	2432.936463
428.775292	2434.844540
429.153016	2433.801021
429.530679	2437.244129
429.908282	2434.463933
430.285824	2436.412339
430.663305	2435.141968
431.040726	2433.586772
431.418086	2432.697009
431.795385	2435.653645
432.172624	2435.472164
432.549802	2434.516865
432.926920	2433.795980
433.303977	2437.118101
433.680974	2436.379572
434.057910	2434.592482
434.434786	2434.867225
434.811601	2436.581218
435.188355	2439.096753
435.565050	2435.273038
435.941683	2435.419232
436.318257	2434.242122
436.694770	2431.935794
437.071222	2435.973759
437.447614	2433.896803
437.823946	2432.177770
438.200218	2432.923861
438.576429	2438.164140
438.952580	2437.468461
439.328670	2436.606423
439.704700	2434.695826
440.080670	2437.717998
440.456580	2442.116405
440.832429	2436.253543
441.208218	2437.551640
441.583947	2437.581887
441.959616	2438.398554
442.335224	2436.359407
442.710773	2436.981989
443.086261	2441.017433
443.461689	2437.758327
443.837057	2439.089192
444.212365	2438.368307
444.587612	2441.909717
444.962800	2435.799839
445.337927	2438.401074
445.712995	2440.067176
446.088002	2440.089861
446.462949	2441.249326
446.837837	2440.909048
447.212664	2440.677155
447.587431	2442.229831
447.962139	2447.026488
448.336786	2445.264605
448.711374	2445.151179
449.085901	2444.662187
449.460369	2443.679162
449.834776	2442.401230
450.209124	2445.118412
450.583412	2444.740325
450.957640	2443.785027
451.331808	2447.402054
451.705917	2446.605552
452.079965	2443.991714
452.453954	2444.901642
452.827883	2447.507919
453.201752	2446.736622
453.575562	2449.337858
453.949311	2444.871395
454.323001	2446.124122
454.696632	2447.364246
455.070202	2449.083279
455.443713	2446.867692
455.817164	2446.227466
456.190556	2448.364915
456.563888	2445.408278
456.937160	2442.355859
457.310373	2447.409616
457.683526	2449.857096
458.056619	2451.465224
458.429653	2448.934565
458.802628	2450.698969
459.175542	2451.394648
459.548398	2450.439350
459.921194	2451.876078
460.293930	2453.700976
460.666607	2453.635441
461.039224	2456.967644
461.411782	2459.601647
461.784280	2458.419496
462.156719	2455.238528
462.529099	2457.363374
462.901419	2457.257510
463.273680	2454.726851
463.645882	2455.377160
464.018024	2459.213478
464.390106	2459.460494
464.762130	2460.015021
465.134094	2461.237501
465.505999	2464.920064
465.877845	2470.858543
466.249631	2471.143368
466.621358	2466.951649
466.993026	2471.314768
467.364634	2471.586990
467.736184	2465.842595
468.107674	2466.649180
468.479105	2465.484673
468.850477	2462.855712
469.221790	2463.138016
469.593043	2461.240022
469.964238	2464.110959
470.335373	2462.180197
470.706449	2462.109621
471.077467	2464.547019
471.448425	2469.744448
471.819324	2471.158492
472.190164	2474.404995
472.560945	2469.515076
472.931667	2468.940384
473.302330	2462.545681
473.672934	2466.777729
474.043479	2466.883593
474.413965	2463.223716
474.784393	2461.882769
475.154761	2462.646504
475.525070	2461.918057
475.895321	2461.358489
476.265513	2462.641462
476.635645	2468.322843
477.005719	2465.484673
477.375734	2467.813686
477.745691	2467.150775
478.115588	2468.647997
478.485427	2470.558595
478.855207	2473.898359
479.224928	2475.209059
479.594591	2478.616879
479.964194	2477.822897
480.333739	2475.819039
480.703226	2478.652167
481.072653	2479.420943
481.442022	2479.549493
481.811333	2477.470017
482.180584	2480.983701
482.549777	2477.321302
482.918912	2475.987917
483.287988	2477.144862
483.657005	2479.078145
484.025964	2477.011272
484.394864	2476.366004
484.763706	2476.968422
485.132489	2474.145376
485.501213	2476.325675
485.869879	2478.909266
486.238487	2478.188381
486.607036	2473.802577
486.975527	2476.262660
487.343959	2477.286014
487.712333	2476.625623
488.080648	2476.423977
488.448905	2480.151910
488.817104	2479.899853
489.185244	2483.342961
489.553326	2486.337406
489.921350	2489.566265
490.289315	2493.647079
490.657222	2498.002636
491.025070	2497.322080
491.392861	2496.543222
491.760593	2495.726555
492.128267	2493.505927
492.495883	2494.657831
492.863440	2494.829230
493.230939	2492.439723
493.598380	2492.810248
493.965763	2490.158601
494.333088	2491.297902
494.700354	2490.539208
495.067563	2494.539363
495.434713	2492.795124
495.801805	2497.135558
496.168839	2499.943480
496.535815	2500.923985
496.902733	2502.718636
497.269593	2505.692916
497.636395	2508.049656
498.003139	2509.957732
498.369825	2507.747187
498.736453	2511.906138
499.103023	2510.895387
499.469535	2515.371932
499.835989	2515.412261
500.202385	2519.724968
500.568723	2520.203878
500.935003	2522.764784
501.301226	2521.577592
501.667390	2530.036648
502.033497	2533.449509
502.399546	2531.054961
502.765537	2531.478418
503.131470	2533.799870
503.497345	2539.123328
503.863163	2541.132228
504.228923	2542.611807
504.594625	2544.867723
504.960269	2545.553320
505.325856	2550.266799
505.691385	2551.567416
506.056856	2555.093703
506.422270	2560.908674
506.787625	2562.816751
507.152924	2564.132492
507.518164	2566.771536
507.883347	2566.811866
508.248472	2571.369069
508.613540	2576.017013
508.978550	2580.251582
509.343503	2583.372056
509.708398	2586.411872
510.073236	2589.048395
510.438016	2589.701225
510.802738	2590.250710
511.167403	2601.157247
511.532010	2600.219592
511.896561	2607.738473
512.261053	2611.579832
512.625488	2611.647888
512.989866	2614.231479
513.354186	2619.260030
513.718449	2616.651233
514.082655	2626.398304
514.446803	2628.351751
514.810894	2634.575056
515.174927	2637.193935
515.538904	2637.088071
515.902822	2644.269194
516.266684	2645.736170
516.630488	2651.878816
516.994235	2654.303611
517.357925	2661.477173
517.721558	2661.683860
518.085133	2664.718635
518.448651	2669.031342
518.812112	2668.038235
519.175516	2669.331291
519.538863	2677.843279
519.902152	2678.995183
520.265385	2685.586491
520.628560	2689.143025
520.991678	2690.947758
521.354739	2691.519929
521.717743	2696.475384
522.080690	2700.064685
522.443580	2706.255222
522.806413	2708.291848
523.169189	2710.847713
523.531908	2713.043136
523.894569	2715.236038
524.257174	2716.650081
524.619722	2722.959085
524.982213	2726.530743
525.344647	2727.261710
525.707025	2731.382853
526.069345	2733.444685
526.431608	2735.947618
526.793815	2741.235789
527.155964	2741.046745
527.518057	2741.334091
527.880093	2745.767786
528.242072	2751.237438
528.603995	2751.071080
528.965860	2751.945720
529.327669	2756.477717
529.689421	2756.449991
530.051117	2758.158942
530.412755	2758.166504
530.774337	2762.597678
531.135862	2763.555497
531.497331	2768.221085
531.858743	2764.107504
532.220098	2767.563215
532.581396	2768.642022
532.942638	2769.819131
533.303824	2773.219389
533.664953	2781.335647
534.026025	2775.319030
534.387040	2784.365380
534.747999	2783.909156
535.108902	2787.924435
535.469748	2785.744136
535.830537	2789.325876
536.191270	2793.406690
536.551947	2789.121709
536.912567	2796.189407
537.273131	2797.520271
537.633638	2795.077832
537.994089	2798.785601
538.354483	2800.784418
538.714821	2804.860191
539.075103	2809.069555
539.435328	2810.158444
539.795497	2809.311530
540.155609	2811.249854
540.515665	2817.805874
540.875665	2813.856130
541.235609	2817.369815
541.595496	2821.463232
541.955328	2831.500169
542.315102	2828.702328
542.674821	2829.173676
543.034483	2828.770384
543.394090	2830.978409
543.753640	2833.448575
544.113134	2844.307220
544.472571	2839.510562
544.831953	2849.227386
545.191278	2850.480113
545.550548	2847.886439
545.909761	2854.185361
546.268918	2857.031093
546.628019	2863.907226
546.987064	2863.526619
547.346053	2858.608974
547.704986	2870.256560
548.063863	2869.371837
548.422684	2873.210676
548.781449	2874.251674
549.140158	2884.170144
549.498811	2883.426574
549.857408	2883.227448
550.215949	2891.792369
550.574434	2894.885117
550.932864	2896.342010
551.291237	2904.836354
551.649555	2911.457910
552.007817	2920.894950
552.366022	2923.130702
552.724173	2930.730241
553.082267	2937.235850
553.440305	2948.850669
553.798288	2949.753035
554.156215	2956.059519
554.514086	2965.841878
554.871902	2974.487457
555.229661	2980.829228
555.587365	2986.054384
555.945014	2996.056033
556.302606	3002.261694
556.660143	3015.414064
557.017625	3023.742050
557.375050	3031.404604
557.732421	3044.768703
558.089735	3056.708676
558.446994	3065.117320
558.804197	3083.857810
559.161345	3094.398862
559.518437	3092.558841
559.875474	3111.422839
560.232455	3124.033285
560.589381	3142.741007
560.946251	3151.192502
561.303065	3176.385668
561.659825	3189.802699
562.016528	3198.491128
562.373177	3211.797253
562.729770	3232.047568
563.086307	3240.073085
563.442789	3266.781118
563.799216	3288.327010
564.155587	3303.410142
564.511904	3324.353616
564.868164	3343.903210
565.224370	3367.687374
565.580520	3389.147566
565.936615	3414.088675
566.292654	3430.371602
566.648638	3463.857466
567.004567	3485.269767
567.360441	3517.765045
567.716260	3535.840102
568.072023	3570.314033
568.427732	3604.205710
568.783385	3620.566775
569.138982	3663.245183
569.494525	3693.363557
569.850013	3716.497412
570.205445	3754.663987
570.560823	3786.672794
570.916145	3819.760407
571.271412	3857.460676
571.626625	3887.974780
571.981782	3929.760905
572.336884	3957.570430
572.691931	4009.585055
573.046923	4035.244528
573.401860	4069.168973
573.756743	4111.759161
574.111570	4157.668949
574.466342	4196.916853
574.821059	4245.165736
575.175722	4269.086011
575.530330	4316.210717
575.884882	4354.094988
576.239380	4398.084097
576.593823	4449.811377
576.948211	4492.406606
577.302544	4520.311913
577.656823	4570.917536
578.011047	4641.065192
578.365216	4682.458106
578.719330	4728.420826
579.073389	4776.934370
579.427394	4837.738247
579.781344	4895.749325
580.135239	4937.727013
580.489080	5002.692363
580.842866	5033.060274
581.196597	5125.021002
581.550273	5191.405437
581.903895	5250.790229
582.257463	5350.257235
582.610975	5378.278489
582.964434	5468.192509
583.317837	5515.254201
583.671186	5571.170679
584.024481	5658.438093
584.377721	5691.382034
584.730906	5779.912257
585.084037	5854.619637
585.437113	5903.556637
585.790135	5977.114634
586.143103	6011.901116
586.496016	6101.245486
586.848874	6171.652761
587.201679	6257.954794
587.554428	6291.120545
587.907124	6387.686368
588.259765	6450.451254
588.612352	6559.393109
588.964884	6578.947745
589.317362	6686.452871
589.669786	6766.697958
590.022155	6821.737276
590.374470	6947.423323
590.726731	6974.776624
591.078937	7001.008268
591.431090	7091.071002
591.783188	7134.692106
592.135232	7171.510173
592.487222	7279.060670
592.839157	7374.023406
593.191038	7417.309273
593.542866	7470.916903
593.894639	7479.522153
594.246358	7596.993640
594.598022	7675.897780
594.949633	7712.199129
595.301190	7785.003473
595.652692	7847.412958
596.004141	7973.829973
596.355535	7918.359636
596.706876	7988.842529
597.058162	8052.764360
597.409395	8200.069396
597.760573	8298.951628
598.111698	8324.316194
598.462768	8412.571674
598.813785	8504.106425
599.164748	8511.423660
599.515657	8657.460846
599.866511	8669.751179
600.217312	8861.002473
600.568060	8776.974001
600.918753	8991.364191
601.269392	9087.052853
601.619978	9111.797357
601.970510	9239.041121
602.320988	9369.032314
602.671412	9519.435139
603.021783	9570.439013
603.372100	9603.942522
603.722363	9714.237927
604.072572	9825.105503
604.422728	9927.322458
604.772830	9983.632147
605.122878	10097.713458
605.472872	10191.380617
605.822813	10344.931643
606.172701	10412.127703
606.522534	10564.786445
606.872314	10720.391740
607.222041	10782.337439
607.571714	10971.806686
607.921333	10951.740373
608.270899	11124.024326
608.620411	11310.108438
608.969870	11375.782070
609.319276	11480.481794
609.668627	11604.166503
610.017926	11826.705719
610.367171	11989.502221
610.716362	12131.710651
611.065500	12233.703275
611.414585	12400.278122
611.763616	12604.691869
612.112594	12703.208618
612.461518	12888.037483
612.810389	13100.141510
613.159207	13184.913553
613.507971	13340.632275
613.856682	13588.664606
614.205340	13683.564327
614.553945	14002.061907
614.902496	13976.314213
615.250994	14246.772117
615.599439	14405.928906
615.947830	14597.424696
616.296169	14752.432615
616.644454	14918.659622
616.992686	15122.889368
617.340864	15434.503251
617.688990	15473.365506
618.037063	15818.787888
618.385082	15956.812160
618.733048	16197.101279
619.080961	16347.254567
619.428821	16483.332953
619.776628	16651.679765
620.124382	16713.111266
620.472083	16881.816000
620.819731	17060.103968
621.167326	17063.368115
621.514868	17183.085436
621.862357	17137.367212
622.209793	17264.908404
622.557176	17261.485461
622.904506	17277.707894
623.251783	17270.892254
623.599007	17308.136298
623.946179	17337.347264
624.293297	17434.654137
624.640363	17328.946182
624.987376	17443.337524
625.334336	17464.434753
625.681243	17446.765509
626.028097	17564.272284
626.374899	17630.883571
626.721647	17740.755519
627.068343	17822.825503
627.414987	17856.389506
627.761577	17882.464874
628.108115	18154.420000
628.454600	18038.710396
628.801032	18245.178414
629.147412	18354.044652
629.493739	18490.304519
629.840014	18458.598182
630.186236	18734.187981
630.532405	18681.800310
630.878521	18901.135873
631.224585	18972.286718
631.570597	18953.566393
631.916556	19146.967740
632.262462	19244.055322
632.608316	19369.312872
632.954117	19439.205949
633.299866	19550.791889
633.645562	19611.754563
633.991206	19496.506224
634.336797	19389.089318
634.682336	19499.261215
635.027823	19479.149532
635.373257	19503.798253
635.718639	19498.827676
636.063968	19519.445995
636.409245	19334.289455
636.754470	19477.047370
637.099642	19449.747002
637.444762	19316.932763
637.789829	19476.326485
638.134845	19418.501930
638.479808	19490.759309
638.824719	19541.206135
639.169577	19448.224573
639.514383	19578.505633
639.859137	19517.270737
640.203839	19735.827441
640.548489	19644.517022
640.893086	19778.233627
641.237632	19748.531149
641.582125	19900.320291
641.926566	19961.192224
642.270955	20022.273365
642.615292	20135.704367
642.959576	20221.159487
