Dividing Wavelength (nm)	Counts (n)	Blue Motor Position (mm): 42.200000	Red Motor Position (mm): 0.000000	
326.493990	1971.675928
326.888308	1971.675928
327.282561	1971.675928
327.676750	1946.722216
328.070874	1948.403441
328.464933	1953.585747
328.858929	1962.564042
329.252859	1977.138018
329.646726	1991.895996
330.040528	2007.430311
330.434265	2025.684329
330.827938	2046.647968
331.221547	2065.496842
331.615091	2085.522826
332.008571	2104.699375
332.401986	2126.852725
332.795338	2147.065232
333.188625	2168.177584
333.581847	2187.003773
333.975006	2204.345342
334.368100	2223.524412
334.761129	2239.512432
335.154095	2252.533732
335.546996	2295.922943
335.939833	2381.796478
336.332606	2394.916081
336.725315	2406.084758
337.117960	2415.219328
337.510540	2424.016142
337.903056	2432.366813
338.295508	2434.300096
338.687896	2446.603032
339.080220	2455.026800
339.472480	2456.171142
339.864676	2461.214816
340.256807	2464.171453
340.648875	2465.565332
341.040879	2469.494911
341.432818	2470.361990
341.824694	2471.440797
342.216506	2470.508183
342.608253	2471.029943
342.999937	2467.690178
343.391557	2468.416104
343.783113	2467.700260
344.174605	2463.241360
344.566033	2460.897223
344.957397	2459.281533
345.348697	2458.689198
345.739934	2458.147274
346.131106	2457.156687
346.522215	2454.636110
346.913260	2451.674432
347.304241	2454.121912
347.695159	2451.336675
348.086012	2452.649896
348.476802	2446.519853
348.867528	2444.838628
349.258191	2442.345777
349.648789	2443.424584
350.039324	2442.091199
350.429796	2446.706375
350.820203	2443.159923
351.210548	2439.119439
351.600828	2439.817638
351.991045	2438.764037
352.381198	2438.327977
352.771288	2442.875098
353.161314	2439.149686
353.551276	2440.982145
353.941175	2437.866712
354.331010	2441.856785
354.720782	2440.566250
355.110490	2443.119594
355.500135	2441.214038
355.889717	2439.948708
356.279235	2441.892073
356.668689	2441.609769
357.058080	2444.359718
357.447408	2440.125149
357.836672	2438.713626
358.225873	2439.535334
358.615010	2439.046342
359.004084	2444.475665
359.393095	2445.577157
359.782043	2446.413988
360.170927	2444.921807
360.559748	2446.416509
360.948505	2448.644699
361.337199	2447.830552
361.725830	2448.884154
362.114398	2453.572427
362.502903	2449.932714
362.891344	2453.958075
363.279722	2449.141253
363.668037	2449.673094
364.056289	2453.542180
364.444478	2456.002263
364.832603	2453.103599
365.220665	2456.597119
365.608665	2453.297684
365.996601	2458.043930
366.384474	2457.771708
366.772284	2456.518981
367.160031	2459.795731
367.547715	2462.326390
367.935336	2458.658951
368.322893	2460.105762
368.710388	2459.596606
369.097820	2465.615743
369.485189	2461.113993
369.872495	2465.018367
370.259738	2465.182204
370.646918	2465.787143
371.034035	2464.559622
371.421090	2465.928295
371.808081	2468.627833
372.195010	2469.104222
372.581875	2466.064406
372.968678	2467.579273
373.355418	2472.123873
373.742096	2470.130097
374.128710	2471.836527
374.515262	2471.728142
374.901751	2472.726291
375.288177	2475.902218
375.674540	2471.806280
376.060841	2478.420274
376.447079	2479.872126
376.833254	2479.262147
377.219367	2473.086733
377.605417	2479.214256
377.991404	2476.774337
378.377329	2479.584781
378.763191	2478.261478
379.148991	2485.435040
379.534727	2486.397900
379.920402	2489.543580
380.306013	2489.924187
380.691563	2490.171204
381.077049	2487.002838
381.462474	2487.965699
381.847835	2491.812099
382.233134	2495.358551
382.618371	2496.023983
383.003545	2497.889210
383.388657	2499.157060
383.773706	2501.982627
384.158693	2502.799294
384.543618	2505.420694
384.928480	2510.149296
385.313280	2510.781961
385.698017	2516.186078
386.082692	2522.424506
386.467305	2529.320804
386.851856	2536.365817
387.236344	2549.119936
387.620770	2558.864487
388.005133	2569.095508
388.389435	2589.665937
388.773674	2601.787391
389.157851	2626.423510
389.541965	2643.581077
389.926018	2666.440189
390.310008	2694.196782
390.693936	2728.925291
391.077802	2761.959972
391.461606	2803.514203
391.845348	2844.861747
392.229027	2896.047103
392.612645	2958.819550
392.996200	3016.901204
393.379694	3084.253540
393.763125	3166.028617
394.146494	3235.268866
394.529801	3310.394661
394.913047	3415.883326
395.296230	3477.786174
395.679351	3551.223183
396.062410	3673.945032
396.445408	3720.716858
396.828343	3827.763239
397.211217	3938.550156
397.594028	3985.606807
397.976778	4125.317345
398.359466	4256.034464
398.742092	4333.879962
399.124656	4473.179645
399.507158	4632.593533
399.889598	4733.280498
400.271977	4908.455553
400.654294	5015.068396
401.036549	5200.648392
401.418742	5313.537471
401.800874	5550.028080
402.182944	5696.859247
402.564952	5981.702084
402.946898	6008.818450
403.328783	6145.030427
403.710606	6358.888776
404.092367	6611.369926
404.474067	6925.970693
404.855705	6932.531755
405.237282	7019.068202
405.618797	7387.765591
406.000250	7665.666759
406.381642	8014.779265
406.762972	8108.738811
407.144240	8099.097605
407.525447	8385.230976
407.906593	8461.470867
408.287677	8751.609435
408.668700	8980.127459
409.049661	9075.213703
409.430560	9305.352459
409.811399	9391.846056
410.192176	9621.941961
410.572891	9776.904510
410.953545	10273.453123
411.334138	9956.339340
411.714669	10530.201609
412.095139	10064.197347
412.475547	10579.675492
412.855894	10535.502382
413.236180	10887.299303
413.616405	10704.113855
413.996568	11019.185970
414.376670	11079.442882
414.756711	11039.282530
415.136691	11355.433452
415.516609	11569.022099
415.896466	11709.539222
416.276262	12011.862259
416.655997	12474.224287
417.035670	12562.641084
417.415283	13236.192170
417.794834	13375.086041
418.174324	13190.393288
418.553753	13142.852686
418.933121	13649.879337
419.312428	13510.020085
419.691674	13459.646356
420.070859	13926.139609
420.449983	13640.790137
420.829045	14192.685577
421.208047	13979.984173
421.586988	14440.533906
421.965867	14714.616400
422.344686	14726.072422
422.723444	15298.384536
423.102141	14045.917424
423.480777	15223.168000
423.859352	14742.236882
424.237866	15835.897565
424.616319	15570.087605
424.994712	16214.037035
425.373044	16020.643250
425.751314	16685.478181
426.129524	15845.473236
426.507673	16918.049293
426.885762	16635.195192
427.263789	16825.279460
427.641756	17000.033578
428.019662	17056.721353
428.397508	17112.574817
428.775292	17399.741626
429.153016	17364.496398
429.530679	17442.437678
429.908282	17481.299933
430.285824	17204.041513
430.663305	17891.778406
431.040726	17511.872011
431.418086	17340.228284
431.795385	17972.426785
432.172624	18397.506959
432.549802	17955.599413
432.926920	18153.731883
433.303977	18034.309469
433.680974	18292.167009
434.057910	18574.539680
434.434786	18609.207695
434.811601	18525.327936
435.188355	19552.450429
435.565050	19204.545279
435.941683	19161.314864
436.318257	20027.223778
436.694770	19842.536065
437.071222	20427.844274
437.447614	19507.654736
437.823946	19544.825684
438.200218	19686.348516
438.576429	19459.337797
438.952580	19745.108206
439.328670	19695.352017
439.704700	20114.471027
440.080670	19686.487148
440.456580	20267.908627
440.832429	20442.819021
441.208218	19449.724317
441.583947	19888.292098
441.959616	19993.478294
442.335224	20224.315249
442.710773	20359.501351
443.086261	20885.356712
443.461689	20253.715258
443.837057	20375.862416
444.212365	21015.547030
444.587612	21006.525886
444.962800	20603.636870
445.337927	21010.828510
445.712995	19764.763664
446.088002	21592.209660
446.462949	21777.086416
446.837837	21941.806118
447.212664	21896.597050
447.587431	24688.803945
447.962139	27571.345797
448.336786	29951.302254
448.711374	28425.687783
449.085901	24782.340034
449.460369	24717.281423
449.834776	24617.181752
450.209124	27067.696719
450.583412	26641.835165
450.957640	27163.740782
451.331808	25847.097261
451.705917	24476.208405
452.079965	24494.727084
452.453954	24848.061557
452.827883	24759.763227
453.201752	24561.640839
453.575562	24704.149217
453.949311	25811.927652
454.323001	25870.079882
454.696632	25644.382383
455.070202	27175.327874
455.443713	27310.398029
455.817164	27891.421257
456.190556	28425.531507
456.563888	27870.508030
456.937160	28316.561926
457.310373	26662.115727
457.683526	27075.717194
458.056619	27054.410758
458.429653	27014.167227
458.802628	27575.073730
459.175542	27688.779475
459.548398	28978.725045
459.921194	30542.342254
460.293930	31233.517214
460.666607	33240.708070
461.039224	34976.820961
461.411782	35359.971339
461.784280	34157.288142
462.156719	33653.628982
462.529099	33069.225661
462.901419	31790.148819
463.273680	30748.578378
463.645882	30842.414416
464.018024	30809.178089
464.390106	31645.770172
464.762130	34331.586036
465.134094	38381.354129
465.505999	43683.276781
465.877845	48253.856560
466.249631	49397.885931
466.621358	47633.915624
466.993026	45486.300907
467.364634	43369.802712
467.736184	41427.738522
468.107674	40181.388850
468.479105	39401.860108
468.850477	38723.925738
469.221790	37297.029663
469.593043	35587.292089
469.964238	34715.928647
470.335373	34620.759224
470.706449	36286.169932
471.077467	38808.269283
471.448425	43374.022157
471.819324	46254.545027
472.190164	44463.947345
472.560945	40911.249625
472.931667	37814.433529
473.302330	36709.334468
473.672934	35881.634980
474.043479	36396.369555
474.413965	35610.526767
474.784393	35245.592599
475.154761	36112.600484
475.525070	36150.847719
475.895321	35709.877827
476.265513	36303.939999
476.635645	37256.929805
477.005719	37076.799295
477.375734	37547.832108
477.745691	38223.840756
478.115588	39555.345598
478.485427	41498.992711
478.855207	44842.769892
479.224928	47463.887587
479.594591	49099.880642
479.964194	48083.974716
480.333739	48199.946461
480.703226	48225.318588
481.072653	48849.547025
481.442022	49359.311022
481.811333	49621.221650
482.180584	48333.587449
482.549777	47809.216708
482.918912	47298.631003
483.287988	47003.373142
483.657005	46171.645772
484.025964	45525.914294
484.394864	45548.158385
484.763706	45102.822854
485.132489	44235.053755
485.501213	44066.790122
485.869879	44218.206219
486.238487	43813.159589
486.607036	44021.951579
486.975527	43480.536697
487.343959	43691.342627
487.712333	43775.325730
488.080648	43681.693859
488.448905	44115.137308
488.817104	43934.006129
489.185244	44877.836158
489.553326	46530.641461
489.921350	49258.714797
490.289315	52181.505221
490.657222	52812.725738
491.025070	53109.180872
491.392861	52185.717105
491.760593	50919.316244
492.128267	49209.349298
492.495883	47668.006427
492.863440	46276.761392
493.230939	44951.900791
493.598380	43848.520763
493.965763	43535.908731
494.333088	42732.782347
494.700354	42259.259204
495.067563	41967.502426
495.434713	41833.826149
495.801805	41906.101172
496.168839	41532.544110
496.535815	41211.483104
496.902733	41254.121183
497.269593	40848.164626
497.636395	40789.926696
498.003139	41169.465087
498.369825	40623.820677
498.736453	40939.391866
499.103023	40466.640020
499.469535	40344.200476
499.835989	40432.990318
500.202385	40104.470925
500.568723	40130.846242
500.935003	40298.908229
501.301226	40134.286829
501.667390	40731.711451
502.033497	40976.088946
502.399546	40411.641032
502.765537	39730.339172
503.131470	40110.532912
503.497345	40440.204209
503.863163	39130.570413
504.228923	39732.365716
504.594625	40152.944140
504.960269	39442.418711
505.325856	40112.050300
505.691385	39487.816822
506.056856	39634.358123
506.422270	40064.905429
506.787625	39640.473043
507.152924	39826.705869
507.518164	39932.897774
507.883347	39130.199889
508.248472	39403.430427
508.613540	39871.950224
508.978550	40167.669350
509.343503	39919.246330
509.708398	40096.747877
510.073236	40628.924845
510.438016	40637.038582
510.802738	40086.905024
511.167403	40708.436444
511.532010	40933.473552
511.896561	41233.313821
512.261053	42068.696027
512.625488	41614.972017
512.989866	41493.003820
513.354186	41333.312669
513.718449	41335.956754
514.082655	41991.392454
514.446803	41675.521315
514.810894	42174.711493
515.174927	42114.799900
515.538904	42011.126050
515.902822	42667.512007
516.266684	42113.219498
516.630488	42533.566029
516.994235	42390.175449
517.357925	42969.590549
517.721558	43142.086231
518.085133	43434.505921
518.448651	43585.833798
518.812112	43353.739075
519.175516	43448.048981
519.538863	43795.422290
519.902152	43740.186367
520.265385	44218.581785
520.628560	44257.358340
520.991678	44048.412595
521.354739	44279.322647
521.717743	44597.502634
522.080690	44492.114792
522.443580	45052.439042
522.806413	45113.560512
523.169189	45042.618875
523.531908	45231.823461
523.894569	45088.430360
524.257174	45260.071566
524.619722	45571.108238
524.982213	45551.540999
525.344647	45474.242467
525.707025	45535.303443
526.069345	45928.894050
526.431608	45842.410535
526.793815	46159.521797
527.155964	45703.798969
527.518057	45865.861983
527.880093	45668.248752
528.242072	46186.323092
528.603995	45891.937351
528.965860	45899.579740
529.327669	46009.421442
529.689421	45903.368168
530.051117	45856.382093
530.412755	46013.610640
530.774337	46074.946359
531.135862	45893.752167
531.497331	46095.610049
531.858743	46017.220107
532.220098	46343.798656
532.581396	46061.546972
532.942638	45723.648512
533.303824	46020.927875
533.664953	45984.792884
534.026025	45720.591052
534.387040	46195.331634
534.747999	46146.865981
535.108902	46315.326219
535.469748	45832.920563
535.830537	45964.839997
536.191270	46147.417987
536.551947	45791.988914
536.912567	46108.699405
537.273131	46230.574340
537.633638	45706.218723
537.994089	46070.237922
538.354483	45670.292940
538.714821	46239.623211
539.075103	46593.363497
539.435328	46359.297683
539.795497	46231.010400
540.155609	46230.654999
540.515665	46688.903445
540.875665	46150.271280
541.235609	46477.361506
541.595496	46450.464430
541.955328	47115.498486
542.315102	46494.153590
542.674821	46272.942718
543.034483	46305.679971
543.394090	46292.605738
543.753640	46243.567914
544.113134	47250.530833
544.472571	46257.771365
544.831953	47504.794030
545.191278	46727.576657
545.550548	46449.080633
545.909761	46904.158194
546.268918	47105.320397
546.628019	47415.822706
546.987064	46954.854557
547.346053	46259.003927
547.704986	47122.772871
548.063863	46695.877881
548.422684	46892.102274
548.781449	46741.810355
549.140158	47124.829662
549.498811	46994.157913
549.857408	46416.587876
550.215949	47257.444776
550.574434	47183.962397
550.932864	46957.554095
551.291237	47667.096499
551.649555	47273.949513
552.007817	47521.649128
552.366022	47151.842685
552.724173	47338.254472
553.082267	47737.120647
553.440305	48042.985094
553.798288	47355.946401
554.156215	47659.209614
554.514086	47880.879231
554.871902	47606.189278
555.229661	47626.913462
555.587365	47472.704566
555.945014	47545.529074
556.302606	47475.817478
556.660143	47696.970377
557.017625	47787.244839
557.375050	47579.143488
557.732421	47932.901418
558.089735	47903.440915
558.446994	47815.979416
558.804197	48299.773910
559.161345	48234.564064
559.518437	47481.052716
559.875474	47785.314077
560.232455	47944.228891
560.589381	48116.245663
560.946251	47812.367429
561.303065	48495.065689
561.659825	48311.189602
562.016528	47982.806320
562.373177	47710.712562
562.729770	48188.107311
563.086307	47678.645783
563.442789	48142.709200
563.799216	48198.078713
564.155587	47999.404319
564.511904	48029.346253
564.868164	48114.927401
565.224370	48362.392602
565.580520	48093.389071
565.936615	48298.254002
566.292654	48007.293725
566.648638	48263.706974
567.004567	48200.942088
567.360441	48252.182897
567.716260	48102.518601
568.072023	48396.579187
568.427732	48373.735198
568.783385	47925.586704
569.138982	48319.474739
569.494525	48294.846182
569.850013	48045.167914
570.205445	48019.087505
570.560823	47974.193509
570.916145	47844.887913
571.271412	47876.443015
571.626625	47628.665263
571.981782	47688.715487
572.336884	47364.430663
572.691931	47696.088175
573.046923	47301.690983
573.401860	47129.011299
573.756743	47137.772825
574.111570	47242.487672
574.466342	47082.549505
574.821059	47227.291114
575.175722	46737.454798
575.530330	46755.434073
575.884882	46471.735578
576.239380	46452.155737
576.593823	46407.634787
576.948211	46322.028433
577.302544	45856.785385
577.656823	45885.469551
578.011047	46111.550177
578.365216	45836.126737
578.719330	45622.104550
579.073389	45474.902858
579.427394	45561.905612
579.781344	45526.224325
580.135239	45180.617941
580.489080	45253.966729
580.842866	44758.751502
581.196597	45223.094703
581.550273	45163.079766
581.903895	45012.281211
582.257463	45437.232836
582.610975	44839.331825
582.964434	45101.368482
583.317837	44753.377632
583.671186	44583.810860
584.024481	44813.342157
584.377721	44345.623903
584.730906	44620.583557
585.084037	44656.940358
585.437113	44348.963667
585.790135	44393.101490
586.143103	43984.309283
586.496016	44119.775169
586.848874	44145.192667
587.201679	44161.795707
587.554428	43643.983507
587.907124	43828.832537
588.259765	43582.428498
588.612352	43832.033669
588.964884	43242.085079
589.317362	43499.032690
589.669786	43449.952017
590.022155	43211.354205
590.374470	43641.440245
590.726731	43177.013865
591.078937	42689.924978
591.431090	42774.563430
591.783188	42426.693568
592.135232	42109.564662
592.487222	42366.706358
592.839157	42445.139150
593.191038	42109.536935
593.542866	41887.249777
593.894639	41284.549588
594.246358	41552.610423
594.598022	41549.452140
594.949633	41144.302167
595.301190	41108.595674
595.652692	40915.232136
596.004141	41265.874633
596.355535	40288.916662
596.706876	40239.541081
597.058162	40049.527389
597.409395	40527.985821
597.760573	40620.644750
598.111698	40186.707268
598.462768	40207.552439
598.813785	40236.022355
599.164748	39696.187875
599.515657	40067.862066
599.866511	39558.723171
600.217312	40162.532414
600.568060	39146.238320
600.918753	39883.519673
601.269392	39835.386736
601.619978	39495.534828
601.970510	39689.014313
602.320988	39890.731043
602.671412	40199.907529
603.021783	39938.304412
603.372100	39596.254562
603.722363	39672.973362
604.072572	39785.116349
604.422728	39775.429772
604.772830	39593.466804
605.122878	39696.618894
605.472872	39612.214855
605.822813	39909.297613
606.172701	39737.260676
606.522534	39993.618472
606.872314	40239.281461
607.222041	39985.540023
607.571714	40386.689841
607.921333	39827.714099
608.270899	40119.110436
608.620411	40451.171240
608.969870	40255.503894
609.319276	40254.616651
609.668627	40293.678032
610.017926	40782.206169
610.367171	40951.165481
610.716362	41027.158355
611.065500	40976.093987
611.414585	41173.838288
611.763616	41462.156999
612.112594	41384.533313
612.461518	41621.396967
612.810389	41909.682912
613.159207	41761.273863
613.507971	41848.405166
613.856682	42302.908035
614.205340	42206.465721
614.553945	42903.324582
614.902496	42349.516023
615.250994	42818.640759
615.599439	42882.809606
615.947830	43088.400463
616.296169	43138.262515
616.644454	43271.931230
616.992686	43427.382771
617.340864	43958.370026
617.688990	43680.294939
618.037063	44277.883398
618.385082	44241.768572
618.733048	44536.885280
619.080961	44568.447944
619.428821	44557.243979
619.776628	44675.496846
620.124382	44493.617056
620.472083	44628.137726
620.819731	44758.070946
621.167326	44419.935552
621.514868	44407.675465
621.862357	43953.535559
622.209793	43970.494001
622.557176	43656.369623
622.904506	43405.068103
623.251783	43055.302767
623.599007	42835.241278
623.946179	42611.419089
624.293297	42572.140938
624.640363	41992.035201
624.987376	41968.631644
625.334336	41719.021432
625.681243	41374.602239
626.028097	41334.658657
626.374899	41174.841477
626.721647	41156.809270
627.068343	41040.290560
627.414987	40804.626700
627.761577	40587.887332
628.108115	40928.220669
628.454600	40374.056709
628.801032	40552.246374
629.147412	40522.133042
629.493739	40530.582016
629.840014	40177.676041
630.186236	40499.866265
630.532405	40128.486982
630.878521	40333.404845
631.224585	40220.664480
631.570597	39923.780848
631.916556	40089.450807
632.262462	40028.513339
632.608316	40057.890663
632.954117	39958.025406
633.299866	39936.340882
633.645562	39853.817194
633.991206	39354.863951
634.336797	38920.465203
634.682336	38935.618912
635.027823	38675.553347
635.373257	38503.912141
