Dividing Wavelength (nm)	Counts (n)	Blue Motor Position (mm): 3.200000	Red Motor Position (mm): 0.000000	
326.493990	1980.878554
326.888308	1980.878554
327.282561	1980.878554
327.676750	1954.248659
328.070874	1955.634976
328.464933	1962.357355
328.858929	1972.013685
329.252859	1984.162866
329.646726	1998.595689
330.040528	2016.229645
330.434265	2033.765299
330.827938	2051.283309
331.221547	2071.508418
331.615091	2091.675554
332.008571	2115.414347
332.401986	2134.273304
332.795338	2155.476397
333.188625	2175.333502
333.581847	2194.152129
333.975006	2210.855993
334.368100	2230.912223
334.761129	2245.370252
335.154095	2260.844074
335.546996	2275.962494
335.939833	2290.105452
336.332606	2299.303037
336.725315	2313.849286
337.117960	2321.521922
337.510540	2325.897644
337.903056	2338.833245
338.295508	2340.348111
338.687896	2351.426047
339.080220	2357.845956
339.472480	2359.822089
339.864676	2366.330218
340.256807	2367.691330
340.648875	2369.954808
341.040879	2373.115611
341.432818	2373.707947
341.824694	2375.084182
342.216506	2376.803215
342.608253	2376.195756
342.999937	2371.368852
343.391557	2372.775333
343.783113	2369.206197
344.174605	2370.327853
344.566033	2368.379447
344.957397	2368.374406
345.348697	2362.569518
345.739934	2361.226050
346.131106	2361.964579
346.522215	2360.913498
346.913260	2354.861593
347.304241	2357.203209
347.695159	2355.138857
348.086012	2354.168435
348.476802	2353.908815
348.867528	2350.332117
349.258191	2347.297342
349.648789	2347.977898
350.039324	2347.249451
350.429796	2347.486385
350.820203	2345.414471
351.210548	2345.273319
351.600828	2346.929338
351.991045	2344.121415
352.381198	2343.453462
352.771288	2346.689883
353.161314	2342.407423
353.551276	2342.493122
353.941175	2340.234685
354.331010	2341.041270
354.720782	2342.561178
355.110490	2343.372804
355.500135	2344.053359
355.889717	2342.722495
356.279235	2344.749039
356.668689	2346.604183
357.058080	2344.577639
357.447408	2344.764162
357.836672	2341.505056
358.225873	2342.929182
358.615010	2342.117556
359.004084	2346.326920
359.393095	2345.777434
359.782043	2347.630058
360.170927	2346.715089
360.559748	2347.254492
360.948505	2346.072342
361.337199	2349.885974
361.725830	2349.671725
362.114398	2351.393279
362.502903	2350.576613
362.891344	2350.044771
363.279722	2349.739781
363.668037	2351.206757
364.056289	2351.998218
364.444478	2351.547035
364.832603	2349.722137
365.220665	2353.830677
365.608665	2352.419154
365.996601	2354.198682
366.384474	2352.915708
366.772284	2355.106089
367.160031	2353.422344
367.547715	2355.012828
367.935336	2355.786645
368.322893	2356.681450
368.710388	2354.959896
369.097820	2356.724300
369.485189	2358.629856
369.872495	2356.210102
370.259738	2356.237828
370.646918	2358.324866
371.034035	2357.949300
371.421090	2354.733044
371.808081	2356.583147
372.195010	2355.181707
372.581875	2356.242869
372.968678	2359.151615
373.355418	2359.842253
373.742096	2357.190606
374.128710	2358.735720
374.515262	2357.737572
374.901751	2362.221678
375.288177	2360.469877
375.674540	2359.159177
376.060841	2358.861749
376.447079	2361.009280
376.833254	2359.081039
377.219367	2357.488034
377.605417	2358.403004
377.991404	2358.839064
378.377329	2359.648169
378.763191	2360.507686
379.148991	2360.028776
379.534727	2359.552387
379.920402	2361.122706
380.306013	2361.042048
380.691563	2363.776874
381.077049	2361.586493
381.462474	2364.560773
381.847835	2362.655217
382.233134	2361.755371
382.618371	2364.510362
383.003545	2362.761081
383.388657	2362.985413
383.773706	2364.921216
384.158693	2364.664117
384.543618	2366.360465
384.928480	2365.571525
385.313280	2362.740917
385.698017	2362.564476
386.082692	2364.633870
386.467305	2366.075640
386.851856	2366.375589
387.236344	2366.148737
387.620770	2366.529344
388.005133	2364.533047
388.389435	2366.216792
388.773674	2368.434900
389.157851	2371.338605
389.541965	2367.093953
389.926018	2367.441793
390.310008	2366.683099
390.693936	2368.981865
391.077802	2367.714015
391.461606	2368.066896
391.845348	2367.643439
392.229027	2368.568491
392.612645	2368.039169
392.996200	2369.274252
393.379694	2368.697040
393.763125	2369.778368
394.146494	2370.164016
394.529801	2370.789119
394.913047	2370.206866
395.296230	2371.152082
395.679351	2369.677544
396.062410	2370.819366
396.445408	2371.472195
396.828343	2365.009436
397.211217	2366.927595
397.594028	2368.424818
397.976778	2368.293748
398.359466	2371.036135
398.742092	2367.787112
399.124656	2370.957998
399.507158	2369.216279
399.889598	2373.085364
400.271977	2373.216434
400.654294	2373.271887
401.036549	2373.770961
401.418742	2373.776003
401.800874	2372.177957
402.182944	2372.891280
402.564952	2373.397916
402.946898	2372.881198
403.328783	2372.382123
403.710606	2372.321630
404.092367	2372.419932
404.474067	2372.848430
404.855705	2375.681559
405.237282	2372.119983
405.618797	2372.553523
406.000250	2376.160468
406.381642	2377.309851
406.762972	2375.305993
407.144240	2376.094933
407.525447	2374.476723
407.906593	2374.827083
408.287677	2379.222969
408.668700	2374.045704
409.049661	2374.809439
409.430560	2374.015457
409.811399	2375.295910
410.192176	2376.435211
410.572891	2376.941847
410.953545	2377.009903
411.334138	2377.687938
411.714669	2378.129039
412.095139	2377.466127
412.475547	2379.094420
412.855894	2378.640716
413.236180	2377.667773
413.616405	2377.592156
413.996568	2379.885881
414.376670	2379.354039
414.756711	2378.706251
415.136691	2378.552496
415.516609	2377.463607
415.896466	2380.468134
416.276262	2377.937475
416.655997	2377.420757
417.035670	2374.774151
417.415283	2378.706251
417.794834	2372.992103
418.174324	2378.502084
418.553753	2378.822198
418.933121	2380.768083
419.312428	2378.431508
419.691674	2380.460572
420.070859	2378.494522
420.449983	2381.993083
420.829045	2380.115253
421.208047	2379.880840
421.586988	2380.740357
421.965867	2379.182640
422.344686	2378.728936
422.723444	2382.683721
423.102141	2380.301776
423.480777	2382.351005
423.859352	2380.710110
424.237866	2382.703886
424.616319	2381.249513
424.994712	2382.557693
425.373044	2382.477034
425.751314	2380.475696
426.129524	2382.134236
426.507673	2382.477034
426.885762	2382.338402
427.263789	2381.544421
427.641756	2383.891078
428.019662	2381.824205
428.397508	2383.865872
428.775292	2385.053064
429.153016	2382.839997
429.530679	2385.121119
429.908282	2383.092055
430.285824	2384.617004
430.663305	2380.939482
431.040726	2383.495347
431.418086	2382.182127
431.795385	2386.212529
432.172624	2384.856459
432.549802	2383.581047
432.926920	2384.236397
433.303977	2385.869731
433.680974	2383.341592
434.057910	2384.705224
434.434786	2383.956613
434.811601	2388.377705
435.188355	2388.324772
435.565050	2386.567930
435.941683	2385.345451
436.318257	2383.336551
436.694770	2381.040305
437.071222	2384.019627
437.447614	2383.127343
437.823946	2381.925028
438.200218	2388.155894
438.576429	2385.224463
438.952580	2385.259751
439.328670	2385.852087
439.704700	2384.843856
440.080670	2387.571120
440.456580	2385.216901
440.832429	2386.862838
441.208218	2388.024824
441.583947	2388.090359
441.959616	2387.321583
442.335224	2389.960627
442.710773	2387.195554
443.086261	2387.056922
443.461689	2386.164638
443.837057	2386.270502
444.212365	2386.691439
444.587612	2386.005842
444.962800	2387.266130
445.337927	2388.932232
445.712995	2386.222611
446.088002	2386.489793
446.462949	2385.930224
446.837837	2388.428116
447.212664	2388.077756
447.587431	2390.187479
447.962139	2386.489792
448.336786	2388.234032
448.711374	2389.007849
449.085901	2390.477345
449.460369	2386.719165
449.834776	2391.926677
450.209124	2389.310318
450.583412	2387.833260
450.957640	2389.101110
451.331808	2387.886192
451.705917	2387.803013
452.079965	2391.329300
452.453954	2389.953065
452.827883	2391.021790
453.201752	2388.223949
453.575562	2390.174876
453.949311	2386.804865
454.323001	2388.997767
454.696632	2388.445760
455.070202	2389.232180
455.443713	2389.431306
455.817164	2386.414175
456.190556	2386.575492
456.563888	2388.695297
456.937160	2383.669267
457.310373	2388.281923
457.683526	2389.368291
458.056619	2393.126472
458.429653	2390.875596
458.802628	2390.903323
459.175542	2389.685884
459.548398	2389.529608
459.921194	2389.703528
460.293930	2391.851060
460.666607	2390.041285
461.039224	2390.794938
461.411782	2390.782335
461.784280	2391.094887
462.156719	2393.502038
462.529099	2392.418189
462.901419	2391.039434
463.273680	2391.757798
463.645882	2392.203940
464.018024	2390.671430
464.390106	2393.817110
464.762130	2393.232336
465.134094	2392.902140
465.505999	2392.574465
465.877845	2394.212840
466.249631	2391.679660
466.621358	2392.640000
466.993026	2393.749054
467.364634	2395.316853
467.736184	2394.104455
468.107674	2389.164125
468.479105	2393.048334
468.850477	2390.890720
469.221790	2394.616133
469.593043	2391.800648
469.964238	2393.398694
470.335373	2395.037069
470.706449	2394.439692
471.077467	2390.631100
471.448425	2397.789539
471.819324	2394.424569
472.190164	2394.089332
472.560945	2391.263765
472.931667	2393.323077
473.302330	2393.648231
473.672934	2394.096894
474.043479	2391.309136
474.413965	2394.016235
474.784393	2388.468445
475.154761	2391.281409
475.525070	2387.427447
475.895321	2390.482386
476.265513	2387.371994
476.635645	2390.464742
477.005719	2392.246790
477.375734	2391.349465
477.745691	2396.183931
478.115588	2392.473642
478.485427	2393.053375
478.855207	2392.851729
479.224928	2392.859290
479.594591	2393.610422
479.964194	2395.500855
480.333739	2394.290978
480.703226	2393.139074
481.072653	2394.369116
481.442022	2394.394322
481.811333	2396.141082
482.180584	2393.300391
482.549777	2393.781822
482.918912	2392.287119
483.287988	2395.216030
483.657005	2394.376678
484.025964	2395.826009
484.394864	2394.197717
484.763706	2396.365413
485.132489	2396.872049
485.501213	2395.329456
485.869879	2394.399363
486.238487	2394.588406
486.607036	2395.682337
486.975527	2396.972872
487.343959	2393.381050
487.712333	2394.858108
488.080648	2396.945146
488.448905	2393.030690
488.817104	2398.069323
489.185244	2392.892058
489.553326	2396.945146
489.921350	2392.549259
490.289315	2396.095711
490.657222	2395.548746
491.025070	2395.629404
491.392861	2394.351472
491.760593	2396.524209
492.128267	2396.559497
492.495883	2394.744682
492.863440	2398.573438
493.230939	2395.442882
493.598380	2394.379198
493.965763	2390.293343
494.333088	2392.077912
494.700354	2392.093035
495.067563	2396.521689
495.434713	2392.836605
495.801805	2397.408932
496.168839	2397.000598
496.535815	2396.007491
496.902733	2394.154867
497.269593	2394.795093
497.636395	2398.381874
498.003139	2394.149826
498.369825	2394.565721
498.736453	2395.949518
499.103023	2394.366595
499.469535	2397.492111
499.835989	2396.546894
500.202385	2399.475805
500.568723	2393.902809
500.935003	2393.804507
501.301226	2395.745351
501.667390	2395.100083
502.033497	2395.458005
502.399546	2399.385064
502.765537	2396.269631
503.131470	2398.941443
503.497345	2398.074364
503.863163	2399.561504
504.228923	2398.011350
504.594625	2398.192831
504.960269	2396.405742
505.325856	2396.839281
505.691385	2397.376164
506.056856	2398.318860
506.422270	2394.066647
506.787625	2395.573952
507.152924	2396.292316
507.518164	2398.659138
507.883347	2397.887841
508.248472	2399.017060
508.613540	2396.483880
508.978550	2395.082439
509.343503	2396.544374
509.708398	2396.385578
510.073236	2398.303737
510.438016	2400.345404
510.802738	2397.915568
511.167403	2397.527399
511.532010	2397.063613
511.896561	2398.394477
512.261053	2396.017573
512.625488	2392.599671
512.989866	2396.125958
513.354186	2396.688047
513.718449	2391.941800
514.082655	2398.689385
514.446803	2396.428427
514.810894	2397.318191
515.174927	2398.807852
515.538904	2397.799621
515.902822	2396.413304
516.266684	2397.741648
516.630488	2397.630743
516.994235	2399.677451
517.357925	2397.504714
517.721558	2397.000598
518.085133	2397.819786
518.448651	2397.890362
518.812112	2398.215516
519.175516	2400.542009
519.538863	2398.374313
519.902152	2398.510424
520.265385	2397.519837
520.628560	2396.849364
520.991678	2396.730897
521.354739	2398.903634
521.717743	2398.689385
522.080690	2397.827348
522.443580	2398.407080
522.806413	2398.003788
523.169189	2396.098232
523.531908	2395.268962
523.894569	2398.472615
524.257174	2397.368603
524.619722	2398.780126
524.982213	2403.191135
525.344647	2396.438510
525.707025	2399.387585
526.069345	2400.544529
526.431608	2397.378685
526.793815	2398.313819
527.155964	2399.977400
527.518057	2398.959087
527.880093	2399.072513
528.242072	2400.489077
528.603995	2398.492780
528.965860	2396.816596
529.327669	2397.298026
529.689421	2399.609395
530.051117	2398.452451
530.412755	2398.084446
530.774337	2400.118552
531.135862	2400.375651
531.497331	2398.674261
531.858743	2391.548590
532.220098	2398.954045
532.581396	2394.757285
532.942638	2395.238715
533.303824	2397.882800
533.664953	2398.023952
534.026025	2396.619991
534.387040	2400.327760
534.747999	2397.199724
535.108902	2400.978069
535.469748	2399.112842
535.830537	2399.581669
536.191270	2398.477656
536.551947	2401.078892
536.912567	2397.534961
537.273131	2398.419683
537.633638	2399.369941
537.994089	2399.027142
538.354483	2397.981103
538.714821	2398.908675
539.075103	2396.108314
539.435328	2398.495300
539.795497	2400.526885
540.155609	2397.224930
540.515665	2397.265259
540.875665	2401.656104
541.235609	2399.445558
541.595496	2398.843140
541.955328	2397.547563
542.315102	2398.197872
542.674821	2401.235167
543.034483	2397.232491
543.394090	2399.443037
543.753640	2399.758109
544.113134	2399.901782
544.472571	2398.555794
544.831953	2399.271638
545.191278	2399.485887
545.550548	2399.725342
545.909761	2399.866494
546.268918	2398.792728
546.628019	2401.134344
546.987064	2398.102090
547.346053	2400.375651
547.704986	2399.629560
548.063863	2398.931360
548.422684	2400.491597
548.781449	2401.157030
549.140158	2398.885990
549.498811	2401.610733
549.857408	2400.007647
550.215949	2393.370968
550.574434	2394.535474
550.932864	2397.403891
551.291237	2395.657131
551.649555	2400.728532
552.007817	2399.773233
552.366022	2400.703326
552.724173	2399.107801
553.082267	2400.932698
553.440305	2397.986144
553.798288	2398.187790
554.156215	2398.996895
554.514086	2399.001936
554.871902	2400.768861
555.229661	2398.646535
555.587365	2401.240209
555.945014	2400.594941
556.302606	2401.656104
556.660143	2400.491597
557.017625	2401.066289
557.375050	2400.370610
557.732421	2399.664848
558.089735	2400.955383
558.446994	2399.914385
558.804197	2402.389592
559.161345	2402.077040
559.518437	2397.287944
559.875474	2399.574107
560.232455	2399.790877
560.589381	2400.347924
560.946251	2401.908162
561.303065	2401.585528
561.659825	2399.420352
562.016528	2401.847668
562.373177	2400.816752
562.729770	2396.821637
563.086307	2400.231978
563.442789	2398.273490
563.799216	2401.487225
564.155587	2399.947153
564.511904	2401.139386
564.868164	2401.038562
565.224370	2401.590569
565.580520	2398.107132
565.936615	2397.870197
566.292654	2397.892883
566.648638	2399.223747
567.004567	2395.654610
567.360441	2399.937070
567.716260	2402.591238
568.072023	2398.502862
568.427732	2394.976575
568.783385	2396.453633
569.138982	2398.767523
569.494525	2396.982954
569.850013	2393.741492
570.205445	2400.786505
570.560823	2400.655435
570.916145	2399.354817
571.271412	2400.161402
571.626625	2399.798439
571.981782	2399.364899
572.336884	2398.301216
572.691931	2398.923798
573.046923	2402.084602
573.401860	2400.489077
573.756743	2402.500497
574.111570	2400.226937
574.466342	2400.267266
574.821059	2401.225085
575.175722	2398.719632
575.530330	2401.071330
575.884882	2400.032852
576.239380	2400.047976
576.593823	2401.880435
576.948211	2401.754406
577.302544	2399.528737
577.656823	2396.438510
578.011047	2400.030332
578.365216	2399.339694
578.719330	2399.606875
579.073389	2396.655279
579.427394	2402.855898
579.781344	2400.360527
580.135239	2400.698285
580.489080	2398.417162
580.842866	2403.488563
581.196597	2402.941598
581.550273	2400.841958
581.903895	2400.549571
582.257463	2399.765671
582.610975	2400.915054
582.964434	2402.024108
583.317837	2399.077554
583.671186	2399.238871
584.024481	2398.563356
584.377721	2401.018398
584.730906	2399.632081
585.084037	2398.162584
585.437113	2397.429096
585.790135	2399.760630
586.143103	2398.276010
586.496016	2402.137534
586.848874	2398.457492
587.201679	2396.970351
587.554428	2399.601834
587.907124	2398.903634
588.259765	2396.355331
588.612352	2401.114180
588.964884	2398.333983
589.317362	2401.343552
589.669786	2400.607544
590.022155	2400.385733
590.374470	2402.646691
590.726731	2401.401526
591.078937	2401.714077
591.431090	2399.027142
591.783188	2402.863460
592.135232	2401.071330
592.487222	2399.004457
592.839157	2397.908006
593.191038	2397.522358
593.542866	2401.088974
593.894639	2399.269117
594.246358	2398.994375
594.598022	2399.445558
594.949633	2398.439848
595.301190	2398.984292
595.652692	2401.572925
596.004141	2400.194169
596.355535	2399.871535
596.706876	2398.676782
597.058162	2400.302554
597.409395	2401.436814
597.760573	2398.283572
598.111698	2402.298851
598.462768	2400.383212
598.813785	2400.589900
599.164748	2400.844478
599.515657	2400.547050
599.866511	2401.083933
600.217312	2398.981772
600.568060	2399.231309
600.918753	2403.123080
601.269392	2398.628891
601.619978	2401.741803
601.970510	2401.363717
602.320988	2400.466392
602.671412	2398.482698
603.021783	2400.753737
603.372100	2400.088305
603.722363	2401.000754
604.072572	2401.041083
604.422728	2403.564181
604.772830	2399.889179
605.122878	2396.521689
605.472872	2398.127296
605.822813	2394.180073
606.172701	2402.245919
606.522534	2401.199879
606.872314	2399.117883
607.222041	2402.344221
607.571714	2399.024622
607.921333	2401.275497
608.270899	2400.375651
608.620411	2400.368089
608.969870	2402.256001
609.319276	2398.812893
609.668627	2401.525034
610.017926	2401.467061
610.367171	2400.221896
610.716362	2402.185425
611.065500	2401.504869
611.414585	2401.184756
611.763616	2401.993861
612.112594	2398.719632
612.461518	2400.887328
612.810389	2400.998233
613.159207	2403.170971
613.507971	2398.694426
613.856682	2400.418501
614.205340	2400.292472
614.553945	2400.085784
614.902496	2400.090826
615.250994	2400.010167
615.599439	2398.933881
615.947830	2401.915723
616.296169	2399.127965
616.644454	2401.094015
616.992686	2401.630898
617.340864	2400.897410
617.688990	2400.610064
618.037063	2400.720970
618.385082	2399.387585
618.733048	2403.145765
619.080961	2400.819272
619.428821	2401.706515
619.776628	2398.235681
620.124382	2399.432955
620.472083	2396.627553
620.819731	2400.673079
621.167326	2398.843140
621.514868	2400.703326
621.862357	2401.146947
622.209793	2401.560322
622.557176	2400.042935
622.904506	2396.599827
623.251783	2395.175701
623.599007	2397.915568
623.946179	2398.792728
624.293297	2397.645866
624.640363	2398.457492
624.987376	2401.141906
625.334336	2402.911351
625.681243	2402.555950
626.028097	2399.843809
626.374899	2401.449417
626.721647	2398.497821
627.068343	2399.483367
627.414987	2399.836247
627.761577	2399.977400
628.108115	2401.774571
628.454600	2400.826834
628.801032	2398.868346
629.147412	2401.426731
629.493739	2399.468243
629.840014	2401.182235
630.186236	2399.513613
630.532405	2399.382543
630.878521	2398.321381
631.224585	2398.933881
631.570597	2399.579148
631.916556	2400.899931
632.262462	2401.305744
632.608316	2402.261042
632.954117	2401.159550
633.299866	2400.244581
633.645562	2399.722821
633.991206	2399.982441
634.336797	2401.015877
634.682336	2400.892369
635.027823	2400.531927
635.373257	2399.561504
635.718639	2399.813562
636.063968	2398.674261
636.409245	2397.310629
636.754470	2401.615775
637.099642	2400.862122
637.444762	2398.449930
637.789829	2400.347924
638.134845	2403.370096
638.479808	2399.959756
638.824719	2401.086453
639.169577	2402.316495
639.514383	2399.359858
639.859137	2397.998747
640.203839	2402.770199
640.548489	2399.334652
640.893086	2398.976731
641.237632	2397.761812
641.582125	2399.198541
641.926566	2396.418345
642.270955	2401.167112
642.615292	2400.083264
642.959576	2399.425393
643.303809	2398.212996
643.647990	2398.709549
643.992118	2400.468912
644.336195	2400.373130
