Dividing Wavelength (nm)	Counts (n)	Blue Motor Position (mm): 33.400000	Red Motor Position (mm): 0.000000	
326.493990	1972.663994
326.888308	1972.663994
327.282561	1972.663994
327.676750	1949.295725
328.070874	1946.502926
328.464933	1953.101796
328.858929	1964.381378
329.252859	1977.861423
329.646726	1990.121510
330.040528	2004.710609
330.434265	2027.110976
330.827938	2043.892977
331.221547	2062.905689
331.615091	2084.824626
332.008571	2104.679210
332.401986	2128.002108
332.795338	2146.215797
333.188625	2168.059117
333.581847	2185.113340
333.975006	2203.493387
334.368100	2220.444267
334.761129	2238.967987
335.154095	2252.821078
335.546996	2294.430762
335.939833	2370.365662
336.332606	2383.560882
336.725315	2396.410783
337.117960	2407.713050
337.510540	2413.530542
337.903056	2425.538570
338.295508	2429.783222
338.687896	2438.083482
339.080220	2442.194542
339.472480	2449.685697
339.864676	2452.491099
340.256807	2457.786831
340.648875	2458.646348
341.040879	2461.338324
341.432818	2461.459312
341.824694	2463.508541
342.216506	2460.229270
342.608253	2461.706328
342.999937	2460.967799
343.391557	2459.074846
343.783113	2458.152315
344.174605	2456.965123
344.566033	2453.126285
344.957397	2455.820781
345.348697	2451.616459
345.739934	2450.885492
346.131106	2448.770728
346.522215	2447.323917
346.913260	2448.407765
347.304241	2446.887857
347.695159	2440.795622
348.086012	2440.059614
348.476802	2439.247988
348.867528	2435.416711
349.258191	2438.075920
349.648789	2434.983172
350.039324	2435.046186
350.429796	2433.095260
350.820203	2435.623398
351.210548	2434.136258
351.600828	2430.002512
351.991045	2431.797163
352.381198	2431.681216
352.771288	2428.505289
353.161314	2432.981834
353.551276	2429.687440
353.941175	2429.543767
354.331010	2430.247008
354.720782	2431.340938
355.110490	2434.471495
355.500135	2428.608633
355.889717	2432.984354
356.279235	2433.632143
356.668689	2433.334715
357.058080	2432.646597
357.447408	2432.265990
357.836672	2429.808428
358.225873	2431.101483
358.615010	2429.223654
359.004084	2436.031732
359.393095	2439.197577
359.782043	2438.479212
360.170927	2436.054417
360.559748	2437.150868
360.948505	2438.017947
361.337199	2436.666917
361.725830	2442.917948
362.114398	2438.988369
362.502903	2442.010540
362.891344	2441.176229
363.279722	2441.390478
363.668037	2442.431477
364.056289	2443.139759
364.444478	2445.110850
364.832603	2445.773762
365.220665	2443.853082
365.608665	2445.851900
365.996601	2444.939451
366.384474	2447.790223
366.772284	2448.173351
367.160031	2447.391972
367.547715	2447.543207
367.935336	2446.033381
368.322893	2448.009513
368.710388	2445.209153
369.097820	2450.807354
369.485189	2450.028496
369.872495	2450.169648
370.259738	2449.642847
370.646918	2453.960596
371.034035	2451.755091
371.421090	2450.764504
371.808081	2454.258024
372.195010	2454.893209
372.581875	2449.983125
372.968678	2450.570420
373.355418	2453.776593
373.742096	2453.970678
374.128710	2454.825153
374.515262	2458.427058
374.901751	2457.285237
375.288177	2457.796914
375.674540	2458.134671
376.060841	2458.474949
376.447079	2459.011832
376.833254	2456.022428
377.219367	2455.989660
377.605417	2458.883282
377.991404	2454.217694
378.377329	2458.797583
378.763191	2456.483693
379.148991	2459.513427
379.534727	2459.556276
379.920402	2461.693726
380.306013	2464.317646
380.691563	2465.081381
381.077049	2464.534416
381.462474	2463.508541
381.847835	2465.635908
382.233134	2464.967955
382.618371	2468.169088
383.003545	2467.798563
383.388657	2467.102884
383.773706	2467.420476
384.158693	2468.330405
384.543618	2469.978862
384.928480	2470.109932
385.313280	2466.006433
385.698017	2470.689665
386.082692	2469.946094
386.467305	2470.548512
386.851856	2476.895325
387.236344	2471.934830
387.620770	2473.701754
388.005133	2473.096816
388.389435	2474.231075
388.773674	2474.319295
389.157851	2479.511684
389.541965	2476.000520
389.926018	2480.562764
390.310008	2476.008082
390.693936	2482.924545
391.077802	2478.677373
391.461606	2481.376911
391.845348	2479.761221
392.229027	2482.070069
392.612645	2481.702065
392.996200	2483.658033
393.379694	2484.489823
393.763125	2486.176089
394.146494	2488.474855
394.529801	2487.207005
394.913047	2490.556852
395.296230	2486.544093
395.679351	2488.573158
396.062410	2490.932418
396.445408	2489.636841
396.828343	2488.613487
397.211217	2485.200626
397.594028	2489.485607
397.976778	2491.791935
398.359466	2494.587254
398.742092	2490.844198
399.124656	2496.291164
399.507158	2495.416524
399.889598	2498.239570
400.271977	2495.489621
400.654294	2498.995743
401.036549	2498.705877
401.418742	2504.364572
401.800874	2501.959942
402.182944	2501.201248
402.564952	2506.121414
402.946898	2502.927843
403.328783	2507.953874
403.710606	2505.982783
404.092367	2510.555109
404.474067	2511.389420
404.855705	2511.333967
405.237282	2510.383710
405.618797	2512.989987
406.000250	2515.671880
406.381642	2515.548372
406.762972	2519.719927
407.144240	2517.821933
407.525447	2524.914836
407.906593	2520.483662
408.287677	2526.449867
408.668700	2529.409025
409.049661	2528.693181
409.430560	2533.000847
409.811399	2534.049407
410.192176	2536.592669
410.572891	2540.756662
410.953545	2543.990562
411.334138	2544.013247
411.714669	2552.817622
412.095139	2554.602191
412.475547	2560.986812
412.855894	2563.404046
413.236180	2571.580797
413.616405	2579.321489
413.996568	2588.020000
414.376670	2596.166504
414.756711	2607.524224
415.136691	2623.068622
415.516609	2640.251395
415.896466	2652.917294
416.276262	2678.831345
416.655997	2703.396888
417.035670	2725.850187
417.415283	2766.129006
417.794834	2793.951134
418.174324	2825.387770
418.553753	2854.185361
418.933121	2904.806108
419.312428	2944.694237
419.691674	2985.789723
420.070859	3051.100392
420.449983	3089.133377
420.829045	3172.438445
421.208047	3221.216649
421.586988	3312.431287
421.965867	3401.498393
422.344686	3478.244919
422.723444	3601.596913
423.102141	3577.235537
423.480777	3762.543311
423.859352	3812.302020
424.237866	4020.942775
424.616319	4098.011935
424.994712	4277.293010
425.373044	4372.563256
425.751314	4576.026745
426.129524	4577.070264
426.507673	4863.942165
426.885762	4955.124035
427.263789	5120.269715
427.641756	5291.323626
428.019662	5440.125885
428.397508	5599.875009
428.775292	5807.247914
429.153016	5965.661132
429.530679	6139.865765
429.908282	6311.696015
430.285824	6401.897380
430.663305	6744.186685
431.040726	6815.624877
431.418086	6940.063239
431.795385	7292.702032
432.172624	7603.849610
432.549802	7659.629977
432.926920	7898.212665
433.303977	8051.065491
433.680974	8325.430289
434.057910	8616.897201
434.434786	8828.678595
434.811601	8991.369233
435.188355	9591.201005
435.565050	9660.040482
435.941683	9831.074229
436.318257	10404.233256
436.694770	10540.528412
437.071222	11017.328305
437.447614	10813.643004
437.823946	11010.366471
438.200218	11289.427104
438.576429	11384.170550
438.952580	11735.491082
439.328670	11913.350551
439.704700	12334.601969
440.080670	12306.789924
440.456580	12845.918642
440.832429	13159.475891
441.208218	12767.092640
441.583947	13217.522257
441.959616	13477.061022
442.335224	13809.573009
442.710773	14079.065532
443.086261	14609.599083
443.461689	14393.073963
443.837057	14658.909129
444.212365	15265.259114
444.587612	15447.683348
444.962800	15350.499984
445.337927	15804.990250
445.712995	15092.208905
446.088002	16560.112247
446.462949	16893.992907
446.837837	17198.803754
447.212664	17340.369436
447.587431	19657.606378
447.962139	22106.132609
448.336786	24156.926926
448.711374	23156.061283
449.085901	20433.268555
449.460369	20537.398629
449.834776	20636.996706
450.209124	22829.497857
450.583412	22625.999079
450.957640	23221.828176
451.331808	22250.042428
451.705917	21238.918037
452.079965	21400.736555
452.453954	21835.024397
452.827883	21866.266948
453.201752	21819.429587
453.575562	22063.118964
453.949311	23153.971724
454.323001	23331.445546
454.696632	23236.833170
455.070202	24717.324273
455.443713	24948.667864
455.817164	25569.359931
456.190556	26157.415569
456.563888	25745.858289
456.937160	26228.815951
457.310373	24812.415558
457.683526	25278.276147
458.056619	25349.679050
458.429653	25367.980959
458.802628	25969.287269
459.175542	26144.119525
459.548398	27423.665195
459.921194	28967.778179
460.293930	29663.822894
460.666607	31629.217544
461.039224	33366.502503
461.411782	33792.603511
461.784280	32697.027190
462.156719	32261.143823
462.529099	31751.457963
462.901419	30560.208103
463.273680	29597.113305
463.645882	29728.702544
464.018024	29749.356151
464.390106	30586.837998
464.762130	33209.384861
465.134094	37186.431789
465.505999	42381.434088
465.877845	46917.993640
466.249631	48058.927743
466.621358	46341.769591
466.993026	44218.738060
467.364634	42179.253572
467.736184	40311.886679
468.107674	39097.013973
468.479105	38371.745690
468.850477	37703.444965
469.221790	36340.513570
469.593043	34687.443607
469.964238	33834.997094
470.335373	33752.556585
470.706449	35402.135549
471.077467	37865.356745
471.448425	42367.119732
471.819324	45234.528040
472.190164	43462.774191
472.560945	39986.880970
472.931667	36964.600855
473.302330	35868.885902
473.672934	35078.319553
474.043479	35570.595787
474.413965	34816.061086
474.784393	34454.754028
475.154761	35320.128579
475.525070	35375.183020
475.895321	34930.041574
476.265513	35513.005646
476.635645	36458.224513
477.005719	36303.766079
477.375734	36747.014572
477.745691	37419.819568
478.115588	38714.082886
478.485427	40655.080872
478.855207	43947.158500
479.224928	46545.641414
479.594591	48171.756328
479.964194	47140.434554
480.333739	47250.213241
480.703226	47274.078063
481.072653	47906.453004
481.442022	48417.867980
481.811333	48680.300367
482.180584	47402.539266
482.549777	46903.848163
482.918912	46378.887607
483.287988	46086.407422
483.657005	45263.509633
484.025964	44625.561696
484.394864	44625.324762
484.763706	44207.571905
485.132489	43340.710213
485.501213	43178.354812
485.869879	43322.960310
486.238487	42931.842389
486.607036	43148.554031
486.975527	42605.964560
487.343959	42807.169613
487.712333	42899.178232
488.080648	42819.089421
488.448905	43242.886622
488.817104	43046.619380
489.185244	43989.612577
489.553326	45631.821374
489.921350	48346.936424
490.289315	51279.867129
490.657222	51922.704985
491.025070	52214.602917
491.392861	51295.507309
491.760593	49996.502786
492.128267	48284.824368
492.495883	46767.036288
492.863440	45392.568213
493.230939	44044.598963
493.598380	42999.063655
493.965763	42680.334182
494.333088	41887.113666
494.700354	41423.274580
495.067563	41145.209575
495.434713	41009.882320
495.801805	41083.815883
496.168839	40733.107851
496.535815	40413.302092
496.902733	40430.812540
497.269593	40038.741841
497.636395	39979.336884
498.003139	40359.570954
498.369825	39821.601700
498.736453	40112.655238
499.103023	39673.318681
499.469535	39549.265967
499.835989	39645.244495
500.202385	39321.703241
500.568723	39327.213222
500.935003	39528.539263
501.301226	39319.951440
501.667390	39932.675964
502.033497	40177.524806
502.399546	39619.579981
502.765537	38943.992268
503.131470	39319.822891
503.497345	39671.844143
503.863163	38350.555199
504.228923	38953.411664
504.594625	39354.725319
504.960269	38654.380501
505.325856	39323.487809
505.691385	38697.074032
506.056856	38834.306843
506.422270	39270.243142
506.787625	38835.894807
507.152924	39027.327583
507.518164	39119.996593
507.883347	38348.601752
508.248472	38604.016853
508.613540	39047.744256
508.978550	39354.843786
509.343503	39110.020150
509.708398	39295.350609
510.073236	39814.838992
510.438016	39801.923556
510.802738	39269.688616
511.167403	39866.054595
511.532010	40107.896389
511.896561	40398.720554
512.261053	41211.851108
512.625488	40769.101689
512.989866	40634.790227
513.354186	40491.001396
513.718449	40466.529115
514.082655	41133.549386
514.446803	40802.776597
514.810894	41319.875473
515.174927	41240.469738
515.538904	41151.377427
515.902822	41793.433904
516.266684	41250.350400
516.630488	41673.668691
516.994235	41533.443956
517.357925	42058.258318
517.721558	42240.992583
518.085133	42536.610886
518.448651	42668.220290
518.812112	42444.496403
519.175516	42547.688822
519.538863	42882.524781
519.902152	42834.911083
520.265385	43286.719455
520.628560	43313.858507
520.991678	43120.615956
521.354739	43348.942417
521.717743	43669.365717
522.080690	43561.142226
522.443580	44098.682982
522.806413	44158.057692
523.169189	44091.063278
523.531908	44272.244867
523.894569	44120.831291
524.257174	44280.991269
524.619722	44592.768991
524.982213	44579.954377
525.344647	44510.583059
525.707025	44547.529676
526.069345	44931.836998
526.431608	44857.202716
526.793815	45166.931208
527.155964	44707.747628
527.518057	44879.305655
527.880093	44669.666751
528.242072	45204.155088
528.603995	44904.604685
528.965860	44896.503551
529.327669	44978.258463
529.689421	44882.894956
530.051117	44844.793915
530.412755	45001.407442
530.774337	45051.700513
531.135862	44885.289504
531.497331	45085.483806
531.858743	44968.687833
532.220098	45331.066136
532.581396	45028.289395
532.942638	44699.044075
533.303824	44989.694321
533.664953	44969.154140
534.026025	44696.175659
534.387040	45155.369322
534.747999	45107.932064
535.108902	45274.426252
535.469748	44797.540660
535.830537	44917.391572
536.191270	45115.932375
536.551947	44767.974292
536.912567	45064.643676
537.273131	45166.124623
537.633638	44683.091344
537.994089	45023.701945
538.354483	44636.886648
538.714821	45189.888623
539.075103	45537.322425
539.435328	45305.479760
539.795497	45196.288367
540.155609	45197.289036
540.515665	45627.546476
540.875665	45101.063492
541.235609	45433.484738
541.595496	45400.371919
541.955328	46046.368058
542.315102	45433.658658
542.674821	45250.773158
543.034483	45275.293330
543.394090	45244.247384
543.753640	45196.469849
544.113134	46209.691360
544.472571	45232.418317
544.831953	46449.715818
545.191278	45675.059351
545.550548	45417.796667
545.909761	45867.833074
546.268918	46063.480255
546.628019	46366.148611
546.987064	45941.645649
547.346053	45235.352268
547.704986	46106.098169
548.063863	45677.206883
548.422684	45881.015691
548.781449	45749.154230
549.140158	46125.869575
549.498811	45983.363717
549.857408	45425.043326
550.215949	46246.827020
550.574434	46191.752414
550.932864	45962.921838
551.291237	46674.410128
551.649555	46287.123483
552.007817	46527.798250
552.366022	46174.728438
552.724173	46352.446755
553.082267	46761.070083
553.440305	47056.625371
553.798288	46385.151241
554.156215	46684.804987
554.514086	46902.552586
554.871902	46670.210847
555.229661	46677.346600
555.587365	46515.505397
555.945014	46610.014428
556.302606	46539.687812
556.660143	46764.248530
557.017625	46843.102259
557.375050	46639.991650
557.732421	46997.038933
558.089735	46982.802714
558.446994	46901.965292
558.804197	47362.020992
559.161345	47299.238462
559.518437	46585.038032
559.875474	46883.219761
560.232455	47045.386119
560.589381	47217.947335
560.946251	46909.784121
561.303065	47577.016121
561.659825	47399.123884
562.016528	47090.141483
562.373177	46808.540108
562.729770	47284.457799
563.086307	46796.700958
563.442789	47243.352230
563.799216	47291.986762
564.155587	47095.346474
564.511904	47120.418653
564.868164	47206.342599
565.224370	47453.016339
565.580520	47190.341977
565.936615	47406.088238
566.292654	47127.619941
566.648638	47366.558030
567.004567	47337.561313
567.360441	47363.288842
567.716260	47225.088130
568.072023	47501.285387
568.427732	47486.260228
568.783385	47041.857311
569.138982	47448.010473
569.494525	47405.122857
569.850013	47178.212961
570.205445	47140.225346
570.560823	47092.291535
570.916145	46973.728637
571.271412	46989.026019
571.626625	46758.579753
571.981782	46815.252404
572.336884	46506.459046
572.691931	46833.458532
573.046923	46427.590194
573.401860	46276.796680
573.756743	46257.466375
574.111570	46380.344500
574.466342	46217.880715
574.821059	46359.355656
575.175722	45877.600310
575.530330	45893.298463
575.884882	45620.957688
576.239380	45566.286374
576.593823	45545.277366
576.948211	45469.241642
577.302544	45004.689233
577.656823	45037.479418
578.011047	45252.953457
578.365216	44977.323329
578.719330	44768.178459
579.073389	44629.950021
579.427394	44705.771495
579.781344	44700.906782
580.135239	44347.839490
580.489080	44438.529848
580.842866	43927.326601
581.196597	44376.276639
581.550273	44314.232638
581.903895	44173.115618
582.257463	44596.703611
582.610975	44003.705122
582.964434	44260.836736
583.317837	43913.397892
583.671186	43760.905509
584.024481	43976.634126
584.377721	43528.185683
584.730906	43785.513902
585.084037	43820.262575
585.437113	43527.759706
585.790135	43586.353037
586.143103	43187.229763
586.496016	43309.800378
586.848874	43325.599354
587.201679	43338.577805
587.554428	42817.975326
587.907124	43018.991336
588.259765	42787.085656
588.612352	43011.865665
588.964884	42426.592745
589.317362	42702.306051
589.669786	42650.200685
590.022155	42423.757096
590.374470	42836.884694
590.726731	42360.997251
591.078937	41881.157543
591.431090	41968.238434
591.783188	41631.358287
592.135232	41324.039466
592.487222	41563.761455
592.839157	41662.953719
593.191038	41319.779691
593.542866	41111.128854
593.894639	40512.481753
594.246358	40777.374223
594.598022	40770.034303
594.949633	40362.550276
595.301190	40350.564932
595.652692	40170.681440
596.004141	40477.632256
596.355535	39509.415646
596.706876	39457.481679
597.058162	39309.604472
597.409395	39762.879820
597.760573	39838.517292
598.111698	39407.430583
598.462768	39420.817367
598.813785	39471.322167
599.164748	38925.924773
599.515657	39304.674223
599.866511	38797.531626
600.217312	39393.819467
600.568060	38383.433605
600.918753	39123.779979
601.269392	39083.639792
601.619978	38732.651976
601.970510	38948.098288
602.320988	39118.960636
602.671412	39414.954505
603.021783	39159.103344
603.372100	38817.555089
603.722363	38930.212274
604.072572	39006.348821
604.422728	39013.608083
604.772830	38830.150412
605.122878	38922.431253
605.472872	38855.071356
605.822813	39133.456474
606.172701	38983.792178
606.522534	39203.689829
606.872314	39457.161565
607.222041	39221.830422
607.571714	39600.491652
607.921333	39050.481602
608.270899	39348.378507
608.620411	39690.698058
608.969870	39477.162343
609.319276	39472.181683
609.668627	39534.636538
610.017926	40001.845636
610.367171	40160.188278
610.716362	40247.511145
611.065500	40195.529287
611.414585	40389.245706
611.763616	40677.385457
612.112594	40604.807965
612.461518	40814.845119
612.810389	41110.682712
613.159207	40981.482980
613.507971	41054.572149
613.856682	41513.710359
614.205340	41400.236507
614.553945	42090.425921
614.902496	41562.110477
615.250994	42011.773839
615.599439	42074.256420
615.947830	42285.369861
616.296169	42340.656195
616.644454	42467.811739
616.992686	42647.251610
617.340864	43150.469669
617.688990	42874.670663
618.037063	43476.539062
618.385082	43452.714569
618.733048	43753.270682
619.080961	43748.894960
619.428821	43755.798820
619.776628	43871.465575
620.124382	43687.244169
620.472083	43825.543184
620.819731	43933.701140
621.167326	43621.815033
621.514868	43597.620016
621.862357	43154.137109
622.209793	43187.128940
622.557176	42868.026422
622.904506	42613.382618
623.251783	42247.341917
623.599007	42045.773901
623.946179	41818.672441
624.293297	41775.741974
624.640363	41183.270286
624.987376	41176.419358
625.334336	40938.885230
625.681243	40601.253951
626.028097	40564.171224
626.374899	40393.704606
626.721647	40380.567359
627.068343	40278.199169
627.414987	40046.084281
627.761577	39826.473976
628.108115	40147.880301
628.454600	39612.784505
628.801032	39791.395107
629.147412	39768.031879
629.493739	39779.331625
629.840014	39429.760374
630.186236	39757.274057
630.532405	39388.581708
630.878521	39600.602557
631.224585	39477.442127
631.570597	39192.886637
631.916556	39349.905976
632.262462	39299.391094
632.608316	39323.213067
632.954117	39221.855627
633.299866	39214.858506
633.645562	39118.774113
633.991206	38623.737847
634.336797	38201.914258
634.682336	38196.099287
635.027823	37963.318967
635.373257	37773.970708
635.718639	37539.471354
636.063968	37402.309120
