Dividing Wavelength (nm)	Counts (n)	Blue Motor Position (mm): 7.400000	Red Motor Position (mm): 0.000000	
326.493990	1975.660960
326.888308	1975.660960
327.282561	1975.660960
327.676750	1955.395521
328.070874	1953.527774
328.464933	1959.183948
328.858929	1969.069651
329.252859	1982.027937
329.646726	1994.918167
330.040528	2011.627072
330.434265	2030.317150
330.827938	2048.188040
331.221547	2068.592110
331.615091	2090.773187
332.008571	2109.632144
332.401986	2129.632922
332.795338	2148.756539
333.188625	2173.740497
333.581847	2190.885462
333.975006	2208.252237
334.368100	2227.295195
334.761129	2241.596949
335.154095	2257.204361
335.546996	2278.036929
335.939833	2303.741773
336.332606	2316.077476
336.725315	2325.096100
337.117960	2330.457368
337.510540	2340.413646
337.903056	2350.500995
338.295508	2357.261183
338.687896	2361.578931
339.080220	2371.530168
339.472480	2378.184492
339.864676	2379.485109
340.256807	2384.357384
340.648875	2385.289998
341.040879	2388.859135
341.432818	2388.523898
341.824694	2387.198075
342.216506	2387.518188
342.608253	2386.673795
342.999937	2387.472818
343.391557	2384.846376
343.783113	2384.342261
344.174605	2385.184134
344.566033	2379.739688
344.957397	2379.074255
345.348697	2378.486961
345.739934	2376.367156
346.131106	2373.821373
346.522215	2372.334232
346.913260	2371.449510
347.304241	2367.661083
347.695159	2367.409025
348.086012	2365.074971
348.476802	2367.351052
348.867528	2363.547501
349.258191	2362.806452
349.648789	2362.332583
350.039324	2362.287213
350.429796	2360.190093
350.820203	2357.722448
351.210548	2358.327387
351.600828	2359.106245
351.991045	2357.611543
352.381198	2357.412417
352.771288	2356.638600
353.161314	2357.631707
353.551276	2356.870493
353.941175	2358.193796
354.331010	2356.724300
354.720782	2358.534074
355.110490	2358.420648
355.500135	2355.723631
355.889717	2356.779752
356.279235	2355.297653
356.668689	2358.425689
357.058080	2356.746985
357.447408	2356.663806
357.836672	2352.872858
358.225873	2356.202540
358.615010	2356.381501
359.004084	2359.380988
359.393095	2359.116327
359.782043	2363.492049
360.170927	2361.609178
360.559748	2360.515247
360.948505	2363.804600
361.337199	2363.159333
361.725830	2362.597244
362.114398	2362.957686
362.502903	2364.142358
362.891344	2365.702595
363.279722	2364.759899
363.668037	2365.969776
364.056289	2365.458099
364.444478	2368.661752
364.832603	2367.721577
365.220665	2366.489015
365.608665	2365.397605
365.996601	2367.633357
366.384474	2368.472709
366.772284	2368.928933
367.160031	2368.157637
367.547715	2368.913810
367.935336	2366.322657
368.322893	2371.028574
368.710388	2367.144365
369.097820	2371.215096
369.485189	2369.246526
369.872495	2371.305837
370.259738	2369.801053
370.646918	2371.580580
371.034035	2370.310209
371.421090	2370.017822
371.808081	2370.469006
372.195010	2370.443800
372.581875	2374.880015
372.968678	2374.040663
373.355418	2371.361290
373.742096	2369.163347
374.128710	2375.056456
374.515262	2373.831455
374.901751	2374.053266
375.288177	2372.934130
375.674540	2372.165354
376.060841	2375.908411
376.447079	2374.922865
376.833254	2374.995962
377.219367	2367.063706
377.605417	2371.683924
377.991404	2371.567977
378.377329	2373.639891
378.763191	2371.673841
379.148991	2376.546117
379.534727	2373.468492
379.920402	2377.997969
380.306013	2376.432691
380.691563	2374.345653
381.077049	2373.866743
381.462474	2374.350694
381.847835	2375.724408
382.233134	2379.222969
382.618371	2377.410674
383.003545	2378.960829
383.388657	2376.364635
383.773706	2376.853627
384.158693	2375.933616
384.543618	2376.112577
384.928480	2379.467465
385.313280	2378.832280
385.698017	2377.718185
386.082692	2378.993597
386.467305	2378.723895
386.851856	2380.410161
387.236344	2378.365973
387.620770	2379.890922
388.005133	2380.936962
388.389435	2378.514687
388.773674	2379.618700
389.157851	2381.662888
389.541965	2378.721374
389.926018	2379.641385
390.310008	2380.475696
390.693936	2380.697507
391.077802	2380.921838
391.461606	2381.052908
391.845348	2381.990563
392.229027	2380.929400
392.612645	2382.633310
392.996200	2380.674822
393.379694	2383.565923
393.763125	2381.531818
394.146494	2382.769421
394.529801	2383.608773
394.913047	2383.434853
395.296230	2384.122971
395.679351	2383.787734
396.062410	2385.859648
396.445408	2383.550800
396.828343	2384.231356
397.211217	2379.298587
397.594028	2385.801675
397.976778	2380.997455
398.359466	2385.506768
398.742092	2385.017776
399.124656	2384.430481
399.507158	2382.323279
399.889598	2387.558517
400.271977	2387.150184
400.654294	2389.262427
401.036549	2383.838146
401.418742	2384.541387
401.800874	2387.863507
402.182944	2386.615821
402.564952	2385.718496
402.946898	2387.407283
403.328783	2386.716644
403.710606	2387.402241
404.092367	2388.052550
404.474067	2387.873589
404.855705	2390.074053
405.237282	2386.457025
405.618797	2390.154711
406.000250	2388.712941
406.381642	2389.821995
406.762972	2392.317366
407.144240	2388.833929
407.525447	2392.087994
407.906593	2387.422406
408.287677	2390.852911
408.668700	2389.590102
409.049661	2387.457694
409.430560	2389.748898
409.811399	2390.033724
410.192176	2391.026831
410.572891	2391.558673
410.953545	2389.731254
411.334138	2391.571276
411.714669	2388.629762
412.095139	2391.498179
412.475547	2392.390463
412.855894	2387.603888
413.236180	2391.745195
413.616405	2393.204609
413.996568	2391.651934
414.376670	2393.983468
414.756711	2391.253683
415.136691	2392.607233
415.516609	2393.302912
415.896466	2392.418189
416.276262	2395.248797
416.655997	2392.806358
417.035670	2389.327962
417.415283	2391.926677
417.794834	2388.750750
418.174324	2392.319887
418.553753	2392.647562
418.933121	2393.045813
419.312428	2392.526574
419.691674	2392.773591
420.070859	2390.994063
420.449983	2394.157387
420.829045	2396.990516
421.208047	2394.822820
421.586988	2390.353837
421.965867	2393.058416
422.344686	2392.975237
422.723444	2393.333159
423.102141	2394.306102
423.480777	2395.624363
423.859352	2395.642007
424.237866	2395.016904
424.616319	2394.739641
424.994712	2397.963459
425.373044	2394.911040
425.751314	2395.798283
426.129524	2393.376009
426.507673	2395.251318
426.885762	2394.391801
427.263789	2395.279044
427.641756	2396.685526
428.019662	2394.341390
428.397508	2396.191493
428.775292	2398.669220
429.153016	2397.887841
429.530679	2395.831051
429.908282	2396.461195
430.285824	2398.853222
430.663305	2397.434138
431.040726	2398.938922
431.418086	2398.381874
431.795385	2400.191649
432.172624	2397.542522
432.549802	2396.010012
432.926920	2398.442368
433.303977	2397.978582
433.680974	2397.703839
434.057910	2397.018242
434.434786	2395.818448
434.811601	2399.531257
435.188355	2397.698798
435.565050	2397.035886
435.941683	2400.015208
436.318257	2397.991185
436.694770	2390.873076
437.071222	2396.209137
437.447614	2394.434651
437.823946	2396.385578
438.200218	2398.606206
438.576429	2398.119734
438.952580	2397.406411
439.328670	2397.267779
439.704700	2397.388767
440.080670	2399.382543
440.456580	2398.994375
440.832429	2401.875394
441.208218	2400.037893
441.583947	2401.230126
441.959616	2399.765671
442.335224	2398.386916
442.710773	2398.694426
443.086261	2402.283727
443.461689	2397.935732
443.837057	2400.937739
444.212365	2401.328429
444.587612	2400.915054
444.962800	2400.237019
445.337927	2401.227606
445.712995	2398.321381
446.088002	2399.380023
446.462949	2400.882287
446.837837	2400.284910
447.212664	2400.045455
447.587431	2400.141237
447.962139	2400.632750
448.336786	2402.019067
448.711374	2401.038562
449.085901	2404.327915
449.460369	2402.235837
449.834776	2403.191135
450.209124	2402.828172
450.583412	2402.263563
450.957640	2401.625857
451.331808	2399.596793
451.705917	2399.112842
452.079965	2402.810528
452.453954	2401.875394
452.827883	2403.208779
453.201752	2404.479150
453.575562	2402.371948
453.949311	2402.752555
454.323001	2405.497463
454.696632	2403.735580
455.070202	2401.598131
455.443713	2402.175343
455.817164	2400.350445
456.190556	2400.219375
456.563888	2399.571587
456.937160	2398.112173
457.310373	2401.625857
457.683526	2403.929664
458.056619	2404.191804
458.429653	2403.438152
458.802628	2403.780950
459.175542	2405.767165
459.548398	2404.343039
459.921194	2403.460837
460.293930	2406.969480
460.666607	2406.878739
461.039224	2401.668707
461.411782	2406.667011
461.784280	2406.417474
462.156719	2406.059552
462.529099	2407.019892
462.901419	2405.313461
463.273680	2406.132648
463.645882	2405.038718
464.018024	2408.232289
464.390106	2407.062741
464.762130	2409.008627
465.134094	2407.962587
465.505999	2409.676580
465.877845	2408.474264
466.249631	2410.281518
466.621358	2409.003586
466.993026	2411.292269
467.364634	2412.960891
467.736184	2412.310582
468.107674	2409.084244
468.479105	2408.464182
468.850477	2410.473082
469.221790	2410.520973
469.593043	2406.092319
469.964238	2407.168606
470.335373	2408.194480
470.706449	2410.543658
471.077467	2408.738925
471.448425	2407.561816
471.819324	2409.928637
472.190164	2410.377300
472.560945	2411.120870
472.931667	2411.438463
473.302330	2410.662125
473.672934	2410.909142
474.043479	2411.335119
474.413965	2411.733370
474.784393	2407.632392
475.154761	2410.241189
475.525070	2405.394119
475.895321	2411.118350
476.265513	2405.134500
476.635645	2408.396127
477.005719	2412.890315
477.375734	2409.868143
477.745691	2412.224883
478.115588	2409.492577
478.485427	2413.863258
478.855207	2412.837383
479.224928	2413.217990
479.594591	2416.590522
479.964194	2413.890984
480.333739	2416.905594
480.703226	2413.351581
481.072653	2415.037847
481.442022	2410.228586
481.811333	2415.342837
482.180584	2412.315624
482.549777	2414.216139
482.918912	2414.763104
483.287988	2414.269071
483.657005	2413.535583
484.025964	2415.662950
484.394864	2414.143042
484.763706	2413.540624
485.132489	2414.574061
485.501213	2414.168248
485.869879	2414.866447
486.238487	2416.008269
486.607036	2412.769328
486.975527	2414.165727
487.343959	2415.115985
487.712333	2411.808988
488.080648	2412.313103
488.448905	2412.436611
488.817104	2411.937537
489.185244	2414.332085
489.553326	2412.855027
489.921350	2417.394586
490.289315	2415.610018
490.657222	2417.883578
491.025070	2418.851480
491.392861	2418.828794
491.760593	2415.851993
492.128267	2418.102868
492.495883	2414.778227
492.863440	2415.635223
493.230939	2415.186561
493.598380	2415.872158
493.965763	2409.792526
494.333088	2415.239493
494.700354	2410.016857
495.067563	2414.863927
495.434713	2409.414440
495.801805	2415.824267
496.168839	2415.355439
496.535815	2414.301838
496.902733	2415.471386
497.269593	2415.249575
497.636395	2415.635223
498.003139	2416.368711
498.369825	2414.387538
498.736453	2416.247724
499.103023	2412.444173
499.469535	2415.657909
499.835989	2416.794689
500.202385	2416.595563
500.568723	2413.394431
500.935003	2414.717733
501.301226	2415.148752
501.667390	2416.774524
502.033497	2414.344688
502.399546	2414.916859
502.765537	2415.204205
503.131470	2415.978022
503.497345	2415.063052
503.863163	2415.312590
504.228923	2416.066242
504.594625	2413.933834
504.960269	2415.988104
505.325856	2415.221849
505.691385	2416.787127
506.056856	2417.697055
506.422270	2416.754360
506.787625	2417.719741
507.152924	2414.639596
507.518164	2415.509195
507.883347	2416.625810
508.248472	2415.083217
508.613540	2416.835018
508.978550	2418.115471
509.343503	2419.118661
509.708398	2418.712848
510.073236	2416.386355
510.438016	2417.273598
510.802738	2416.000707
511.167403	2419.622776
511.532010	2416.774524
511.896561	2418.536407
512.261053	2421.031779
512.625488	2417.666808
512.989866	2415.181520
513.354186	2418.007086
513.718449	2417.092117
514.082655	2421.301480
514.446803	2421.805596
514.810894	2420.484813
515.174927	2425.397418
515.538904	2424.300967
515.902822	2426.352717
516.266684	2426.493869
516.630488	2425.838519
516.994235	2426.718200
517.357925	2428.311205
517.721558	2425.110072
518.085133	2429.342121
518.448651	2431.156936
518.812112	2432.492842
519.175516	2429.342121
519.538863	2430.864549
519.902152	2434.065682
520.265385	2433.962338
520.628560	2433.727925
520.991678	2435.020981
521.354739	2436.278748
521.717743	2438.259922
522.080690	2440.251178
522.443580	2443.858123
522.806413	2442.242433
523.169189	2441.171188
523.531908	2445.912393
523.894569	2446.502208
524.257174	2446.545058
524.619722	2446.396344
524.982213	2449.383228
525.344647	2449.615121
525.707025	2450.583023
526.069345	2452.362550
526.431608	2453.451439
526.793815	2452.977571
527.155964	2453.529577
527.518057	2454.063939
527.880093	2455.772890
528.242072	2457.373457
528.603995	2458.404373
528.965860	2460.962758
529.327669	2461.270269
529.689421	2462.719600
530.051117	2465.076340
530.412755	2463.629529
530.774337	2469.585652
531.135862	2466.220682
531.497331	2465.565332
531.858743	2464.957873
532.220098	2471.546661
532.581396	2467.105404
532.942638	2471.534058
533.303824	2474.440283
533.664953	2476.837352
534.026025	2477.132259
534.387040	2478.246354
534.747999	2476.582773
535.108902	2478.571509
535.469748	2480.189719
535.830537	2482.690131
536.191270	2482.760708
536.551947	2485.601398
536.912567	2483.935296
537.273131	2485.424957
537.633638	2486.271871
537.994089	2485.137612
538.354483	2489.659527
538.714821	2490.304794
539.075103	2492.749754
539.435328	2492.704383
539.795497	2493.279075
540.155609	2494.189003
540.515665	2495.731596
540.875665	2494.128509
541.235609	2496.399549
541.595496	2496.165136
541.955328	2498.579848
542.315102	2501.813748
542.674821	2501.231495
543.034483	2500.883656
543.394090	2502.184273
543.753640	2502.365755
544.113134	2505.760972
544.472571	2504.170488
544.831953	2505.539161
545.191278	2505.163595
545.550548	2505.796260
545.909761	2509.055366
546.268918	2509.894718
546.628019	2512.138032
546.987064	2510.156858
547.346053	2510.363545
547.704986	2511.134842
548.063863	2510.567712
548.422684	2511.480161
548.781449	2512.332116
549.140158	2513.516787
549.498811	2515.187930
549.857408	2511.684328
550.215949	2515.087107
550.574434	2513.872188
550.932864	2514.472086
551.291237	2514.620800
551.649555	2516.896881
552.007817	2517.605163
552.366022	2518.590708
552.724173	2517.080883
553.082267	2520.680267
553.440305	2522.122037
553.798288	2520.045081
554.156215	2521.668333
554.514086	2519.059536
554.871902	2521.295287
555.229661	2520.879392
555.587365	2520.793693
555.945014	2524.461132
556.302606	2520.826460
556.660143	2520.861748
557.017625	2521.746471
557.375050	2522.454753
557.732421	2519.127591
558.089735	2521.360823
558.446994	2520.007273
558.804197	2521.736388
559.161345	2524.037675
559.518437	2518.878054
559.875474	2521.491893
560.232455	2520.287057
560.589381	2522.122037
560.946251	2521.776718
561.303065	2519.601460
561.659825	2518.590708
562.016528	2520.955010
562.373177	2518.915863
562.729770	2520.622293
563.086307	2520.115658
563.442789	2516.130625
563.799216	2521.827129
564.155587	2516.435615
564.511904	2517.186747
564.868164	2519.505678
565.224370	2517.673218
565.580520	2516.901922
565.936615	2517.998373
566.292654	2515.054339
566.648638	2513.748680
567.004567	2516.463342
567.360441	2512.657270
567.716260	2513.330264
568.072023	2512.017044
568.427732	2509.710716
568.783385	2510.915552
569.138982	2509.662825
569.494525	2509.040243
569.850013	2507.913545
570.205445	2510.323216
570.560823	2508.367248
570.916145	2510.038391
571.271412	2508.147958
571.626625	2506.784326
571.981782	2507.792557
572.336884	2504.997237
572.691931	2504.477998
573.046923	2501.004643
573.401860	2500.732421
573.756743	2502.363234
574.111570	2501.821310
574.466342	2501.947339
574.821059	2499.789725
575.175722	2500.258552
575.530330	2499.308295
575.884882	2498.521875
576.239380	2496.840650
576.593823	2497.846360
576.948211	2495.708911
577.302544	2495.562718
577.656823	2494.834271
578.011047	2495.920640
578.365216	2491.335710
578.719330	2493.483242
579.073389	2490.110710
579.427394	2492.064157
579.781344	2489.863693
580.135239	2490.773622
580.489080	2489.929228
580.842866	2487.690956
581.196597	2490.440905
581.550273	2486.274392
581.903895	2487.537201
582.257463	2488.016110
582.610975	2484.777169
582.964434	2487.562407
583.317837	2486.385297
583.671186	2485.619042
584.024481	2484.588126
584.377721	2484.477220
584.730906	2487.169197
585.084037	2485.477889
585.437113	2482.836325
585.790135	2484.431850
586.143103	2481.591160
586.496016	2482.511170
586.848874	2479.609986
587.201679	2481.923876
587.554428	2478.881540
587.907124	2479.862044
588.259765	2475.148565
588.612352	2482.037302
588.964884	2481.815491
589.317362	2486.680205
589.669786	2485.997128
590.022155	2483.489154
590.374470	2482.339771
590.726731	2482.838845
591.078937	2479.428505
591.431090	2485.898826
591.783188	2478.548823
592.135232	2482.619555
592.487222	2482.473362
592.839157	2482.236428
593.191038	2482.216263
593.542866	2483.070738
593.894639	2481.825573
594.246358	2486.662561
594.598022	2483.426140
594.949633	2482.511170
595.301190	2483.700883
595.652692	2481.780203
596.004141	2486.775987
596.355535	2483.040492
596.706876	2483.829432
597.058162	2483.476551
597.409395	2483.360605
597.760573	2488.086687
598.111698	2486.468476
598.462768	2488.865545
598.813785	2487.958137
599.164748	2486.241624
599.515657	2488.182468
599.866511	2487.562407
600.217312	2490.297233
600.568060	2491.844867
600.918753	2491.973416
601.269392	2493.130361
601.619978	2492.374188
601.970510	2497.932060
602.320988	2496.029024
602.671412	2497.165805
603.021783	2497.410301
603.372100	2497.667399
603.722363	2500.775271
604.072572	2499.832575
604.422728	2503.358862
604.772830	2498.751247
605.122878	2499.935919
605.472872	2503.116887
605.822813	2503.636126
606.172701	2509.370438
606.522534	2509.841786
606.872314	2514.235152
607.222041	2515.518125
607.571714	2514.918228
607.921333	2516.183557
608.270899	2520.760925
608.620411	2519.246058
608.969870	2524.105731
609.319276	2526.414579
609.668627	2530.507996
610.017926	2530.775177
610.367171	2537.351362
610.716362	2536.030580
611.065500	2541.190201
611.414585	2541.633823
611.763616	2544.545089
612.112594	2549.034237
612.461518	2555.202088
612.810389	2557.435319
613.159207	2559.963458
613.507971	2565.942267
613.856682	2565.748182
614.205340	2574.572722
614.553945	2578.729153
614.902496	2582.177302
615.250994	2584.110585
615.599439	2591.059816
615.947830	2595.795980
616.296169	2602.427617
616.644454	2611.249637
616.992686	2611.562188
617.340864	2621.520988
617.688990	2625.246400
618.037063	2637.640077
618.385082	2645.307672
618.733048	2651.566265
619.080961	2659.019611
619.428821	2666.896413
619.776628	2669.986641
620.124382	2671.924964
620.472083	2678.163392
620.819731	2682.241686
621.167326	2680.494926
621.514868	2685.120185
621.862357	2686.113292
622.209793	2692.497913
622.557176	2687.519774
622.904506	2689.314425
623.251783	2686.249403
623.599007	2693.198634
623.946179	2694.428675
624.293297	2698.877493
624.640363	2700.341949
624.987376	2707.066848
625.334336	2709.809236
625.681243	2711.939123
626.028097	2717.169320
626.374899	2721.260217
626.721647	2730.898903
627.068343	2734.067268
627.414987	2739.897362
627.761577	2745.336767
628.108115	2755.590474
628.454600	2756.150042
628.801032	2765.818975
629.147412	2773.405912
629.493739	2781.814557
629.840014	2787.662295
630.186236	2800.905406
630.532405	2806.561581
630.878521	2820.250834
631.224585	2826.673264
631.570597	2833.277176
631.916556	2846.779906
632.262462	2855.985053
632.608316	2866.717670
632.954117	2872.179760
633.299866	2881.818446
633.645562	2887.411606
633.991206	2886.829353
634.336797	2887.925804
634.682336	2894.625497
635.027823	2894.101217
635.373257	2898.476939
635.718639	2902.361148
636.063968	2904.985068
636.409245	2903.482805
636.754470	2908.619740
637.099642	2914.825401
637.444762	2912.561923
637.789829	2922.966864
638.134845	2927.297215
638.479808	2934.992537
638.824719	2939.615275
639.169577	2946.214145
639.514383	2953.377625
639.859137	2955.389045
640.203839	2972.019812
640.548489	2972.317240
640.893086	2980.534321
641.237632	2985.008345
641.582125	2997.631394
641.926566	3004.101715
642.270955	3016.571009
642.615292	3025.637524
642.959576	3039.624205
643.303809	3048.146276
643.647990	3056.128943
643.992118	3070.783577
644.336195	3081.170875
