Dividing Wavelength (nm)	Counts (n)	Blue Motor Position (mm): 17.400000	Red Motor Position (mm): 0.000000	
326.493990	1974.408233
326.888308	1974.408233
327.282561	1974.408233
327.676750	1952.310335
328.070874	1950.800510
328.464933	1957.727055
328.858929	1967.703498
329.252859	1979.804788
329.646726	1994.225009
330.040528	2010.828049
330.434265	2029.455112
330.827938	2047.792310
331.221547	2067.760320
331.615091	2087.677919
332.008571	2109.256578
332.401986	2129.912706
332.795338	2149.348874
333.188625	2170.725887
333.581847	2187.896057
333.975006	2203.707636
334.368100	2224.981306
334.761129	2241.294479
335.154095	2255.742426
335.546996	2288.348609
335.939833	2348.189626
336.332606	2361.556246
336.725315	2371.802391
337.117960	2380.563916
337.510540	2388.188661
337.903056	2400.352966
338.295508	2405.668862
338.687896	2412.905439
339.080220	2418.841397
339.472480	2423.842222
339.864676	2427.721390
340.256807	2430.539395
340.648875	2432.560897
341.040879	2431.963521
341.432818	2435.792277
341.824694	2435.318409
342.216506	2435.320929
342.608253	2433.430497
342.999937	2434.809252
343.391557	2431.915630
343.783113	2431.217430
344.174605	2430.052923
344.566033	2426.985381
344.957397	2427.613005
345.348697	2422.760894
345.739934	2424.684095
346.131106	2421.472880
346.522215	2421.273754
346.913260	2420.661254
347.304241	2416.351067
347.695159	2414.533731
348.086012	2412.671025
348.476802	2412.056004
348.867528	2410.344533
349.258191	2410.662125
349.648789	2406.936713
350.039324	2407.871847
350.429796	2408.935530
350.820203	2404.700961
351.210548	2406.009140
351.600828	2403.289438
351.991045	2406.034346
352.381198	2401.474622
352.771288	2403.317164
353.161314	2401.792215
353.551276	2402.634088
353.941175	2399.697616
354.331010	2401.951011
354.720782	2404.756413
355.110490	2407.100550
355.500135	2402.109808
355.889717	2403.173491
356.279235	2403.581825
356.668689	2403.753224
357.058080	2402.971845
357.447408	2401.530075
357.836672	2401.860271
358.225873	2403.438152
358.615010	2400.852040
359.004084	2407.430746
359.393095	2408.433935
359.782043	2408.963256
360.170927	2407.302196
360.559748	2410.480644
360.948505	2407.420663
361.337199	2410.515932
361.725830	2408.943092
362.114398	2408.738925
362.502903	2409.248082
362.891344	2414.115316
363.279722	2408.970818
363.668037	2415.335275
364.056289	2411.856879
364.444478	2412.247568
364.832603	2411.763617
365.220665	2411.158679
365.608665	2412.797054
365.996601	2412.499626
366.384474	2413.364184
366.772284	2414.503484
367.160031	2415.264699
367.547715	2414.168248
367.935336	2417.152611
368.322893	2414.763104
368.710388	2417.820564
369.097820	2417.192940
369.485189	2419.259813
369.872495	2423.577561
370.259738	2417.318969
370.646918	2415.178999
371.034035	2418.859041
371.421090	2420.076480
371.808081	2418.841397
372.195010	2419.786614
372.581875	2416.976170
372.968678	2420.842735
373.355418	2419.690832
373.742096	2418.919535
374.128710	2422.637386
374.515262	2420.958682
374.901751	2420.174782
375.288177	2422.695359
375.674540	2421.369536
376.060841	2425.246183
376.447079	2420.230235
376.833254	2423.456574
377.219367	2418.324679
377.605417	2420.721748
377.991404	2419.300142
378.377329	2421.598908
378.763191	2420.963723
379.148991	2424.086718
379.534727	2422.970102
379.920402	2425.793148
380.306013	2423.421286
380.691563	2428.873293
381.077049	2426.640062
381.462474	2422.970102
381.847835	2425.147881
382.233134	2427.963365
382.618371	2427.134095
383.003545	2428.033941
383.388657	2428.298602
383.773706	2427.287851
384.158693	2429.314394
384.543618	2428.056627
384.928480	2427.330700
385.313280	2430.304981
385.698017	2428.278437
386.082692	2429.435382
386.467305	2427.736513
386.851856	2428.512851
387.236344	2430.017635
387.620770	2430.811617
388.005133	2429.826072
388.389435	2429.306833
388.773674	2431.550146
389.157851	2430.541915
389.541965	2432.190373
389.926018	2432.560898
390.310008	2433.077616
390.693936	2429.838674
391.077802	2432.946546
391.461606	2433.145671
391.845348	2432.913778
392.229027	2433.826227
392.612645	2431.635846
392.996200	2431.358582
393.379694	2433.947215
393.763125	2436.528286
394.146494	2431.656010
394.529801	2434.925199
394.913047	2437.329829
395.296230	2439.179933
395.679351	2431.572831
396.062410	2433.894283
396.445408	2435.525096
396.828343	2437.150868
397.211217	2432.288675
397.594028	2436.550971
397.976778	2430.819179
398.359466	2439.240426
398.742092	2432.018973
399.124656	2437.304623
399.507158	2437.284459
399.889598	2439.008533
400.271977	2437.332350
400.654294	2435.348656
401.036549	2435.963676
401.418742	2443.086827
401.800874	2438.325457
402.182944	2440.626744
402.564952	2437.594490
402.946898	2437.599531
403.328783	2441.319902
403.710606	2440.546085
404.092367	2439.832762
404.474067	2440.969542
404.855705	2442.247475
405.237282	2440.732608
405.618797	2443.439708
406.000250	2442.935592
406.381642	2444.228648
406.762972	2443.568257
407.144240	2443.018771
407.525447	2446.605552
407.906593	2442.313010
408.287677	2441.392999
408.668700	2444.790737
409.049661	2443.104471
409.430560	2443.170006
409.811399	2446.570264
410.192176	2443.485078
410.572891	2443.664039
410.953545	2442.698658
411.334138	2442.776796
411.714669	2443.323761
412.095139	2446.328289
412.475547	2442.524738
412.855894	2445.355346
413.236180	2443.500201
413.616405	2449.201746
413.996568	2444.243772
414.376670	2445.738474
414.756711	2443.696806
415.136691	2448.687549
415.516609	2446.504729
415.896466	2448.001952
416.276262	2448.785851
416.655997	2444.548761
417.035670	2442.444080
417.415283	2444.823504
417.794834	2444.120263
418.174324	2449.728547
418.553753	2448.899277
418.933121	2447.928855
419.312428	2446.154369
419.691674	2448.909359
420.070859	2448.480861
420.449983	2449.965481
420.829045	2448.468258
421.208047	2447.747373
421.586988	2449.713423
421.965867	2450.880451
422.344686	2449.826849
422.723444	2451.830708
423.102141	2450.131839
423.480777	2448.475820
423.859352	2451.976902
424.237866	2451.719803
424.616319	2453.073352
424.994712	2454.552931
425.373044	2450.477158
425.751314	2454.275668
426.129524	2452.849021
426.507673	2450.464555
426.885762	2450.482199
427.263789	2453.280040
427.641756	2451.624021
428.019662	2451.482868
428.397508	2455.830864
428.775292	2454.507561
429.153016	2451.056891
429.530679	2453.184258
429.908282	2452.985132
430.285824	2452.090328
430.663305	2453.466562
431.040726	2453.373301
431.418086	2454.898250
431.795385	2455.142746
432.172624	2454.285750
432.549802	2454.653754
432.926920	2456.166100
433.303977	2456.070318
433.680974	2454.893209
434.057910	2455.215843
434.434786	2459.095011
434.811601	2458.129630
435.188355	2456.869341
435.565050	2459.082408
435.941683	2460.057871
436.318257	2456.244238
436.694770	2455.571244
437.071222	2454.850359
437.447614	2454.948662
437.823946	2456.327417
438.200218	2456.841615
438.576429	2459.634414
438.952580	2456.554269
439.328670	2460.859415
439.704700	2458.505196
440.080670	2461.608026
440.456580	2463.062399
440.832429	2460.322532
441.208218	2460.375464
441.583947	2463.269086
441.959616	2463.533747
442.335224	2462.449899
442.710773	2463.828654
443.086261	2462.654065
443.461689	2463.697584
443.837057	2463.856381
444.212365	2461.053499
444.587612	2462.633901
444.962800	2463.695064
445.337927	2464.453757
445.712995	2463.385033
446.088002	2466.641618
446.462949	2466.258490
446.837837	2468.413584
447.212664	2465.038531
447.587431	2468.804273
447.962139	2470.417442
448.336786	2471.377782
448.711374	2473.931127
449.085901	2473.474902
449.460369	2469.855354
449.834776	2472.544809
450.209124	2474.354583
450.583412	2468.438789
450.957640	2472.322998
451.331808	2472.809470
451.705917	2470.692185
452.079965	2471.226548
452.453954	2471.791157
452.827883	2473.648822
453.201752	2474.193267
453.575562	2470.656897
453.949311	2472.257463
454.323001	2474.896508
454.696632	2475.821559
455.070202	2476.444142
455.443713	2478.034626
455.817164	2476.371045
456.190556	2474.629326
456.563888	2477.780047
456.937160	2475.075468
457.310373	2479.357929
457.683526	2479.299955
458.056619	2479.607466
458.429653	2481.127374
458.802628	2479.884729
459.175542	2479.037815
459.548398	2479.302476
459.921194	2484.220122
460.293930	2486.062663
460.666607	2486.100472
461.039224	2490.483755
461.411782	2491.633138
461.784280	2491.237408
462.156719	2491.252531
462.529099	2490.448467
462.901419	2489.727582
463.273680	2489.087356
463.645882	2489.001656
464.018024	2490.587099
464.390106	2496.122286
464.762130	2495.146822
465.134094	2501.702843
465.505999	2510.116529
465.877845	2516.758249
466.249631	2520.854187
466.621358	2516.886798
466.993026	2516.523835
467.364634	2518.666326
467.736184	2515.303876
468.107674	2510.897908
468.479105	2511.888494
468.850477	2510.653412
469.221790	2507.679131
469.593043	2507.359018
469.964238	2503.895745
470.335373	2506.917917
470.706449	2510.424039
471.077467	2515.755059
471.448425	2522.721934
471.819324	2530.689478
472.190164	2527.369878
472.560945	2525.388704
472.931667	2519.084742
473.302330	2516.397807
473.672934	2518.041223
474.043479	2524.690505
474.413965	2519.845956
474.784393	2515.631551
475.154761	2519.727489
475.525070	2518.333610
475.895321	2521.141532
476.265513	2522.331245
476.635645	2527.188396
477.005719	2532.592513
477.375734	2531.700229
477.745691	2540.199614
478.115588	2540.159285
478.485427	2544.986190
478.855207	2556.898437
479.224928	2564.573593
479.594591	2571.563153
479.964194	2568.125086
480.333739	2571.240519
480.703226	2572.294120
481.072653	2578.333423
481.442022	2581.421129
481.811333	2585.736357
482.180584	2584.523960
482.549777	2587.059660
482.918912	2584.307190
483.287988	2589.749116
483.657005	2586.106882
484.025964	2589.509661
484.394864	2590.742223
484.763706	2594.437389
485.132489	2590.253231
485.501213	2594.165166
485.869879	2598.734972
486.238487	2601.880652
486.607036	2600.829572
486.975527	2603.400560
487.343959	2606.800818
487.712333	2610.304420
488.080648	2614.266767
488.448905	2618.589557
488.817104	2617.024278
489.185244	2624.722120
489.553326	2637.836682
489.921350	2652.556851
490.289315	2667.461023
490.657222	2674.420336
491.025070	2681.200687
491.392861	2678.821263
491.760593	2676.404030
492.128267	2673.555778
492.495883	2668.277690
492.863440	2667.977741
493.230939	2661.903151
493.598380	2663.009684
493.965763	2663.607061
494.333088	2663.133192
494.700354	2663.947338
495.067563	2671.244409
495.434713	2670.793225
495.801805	2677.697086
496.168839	2682.309741
496.535815	2686.186389
496.902733	2689.087573
497.269593	2693.543953
497.636395	2698.448995
498.003139	2705.786395
498.369825	2705.708257
498.736453	2715.447766
499.103023	2716.652602
499.469535	2721.590412
499.835989	2726.399673
500.202385	2731.309757
500.568723	2737.913668
500.935003	2746.075296
501.301226	2748.999166
501.667390	2762.365785
502.033497	2772.624533
502.399546	2775.069493
502.765537	2777.816922
503.131470	2787.954682
503.497345	2801.497742
503.863163	2799.319963
504.228923	2814.788744
504.594625	2828.604026
504.960269	2829.642504
505.325856	2847.634382
505.691385	2851.969774
506.056856	2865.722042
506.422270	2880.217880
506.787625	2893.168604
507.152924	2903.621436
507.518164	2919.314548
507.883347	2923.871751
508.248472	2941.949329
508.613540	2964.652165
508.978550	2982.144969
509.343503	2996.466887
509.708398	3016.165196
510.073236	3040.962632
510.438016	3059.690518
510.802738	3071.252405
511.167403	3102.033690
511.532010	3125.033954
511.896561	3153.153511
512.261053	3188.459232
512.625488	3206.763661
512.989866	3225.491548
513.354186	3246.954260
513.718449	3273.125410
514.082655	3317.875733
514.446803	3339.640915
514.810894	3378.624158
515.174927	3411.560536
515.538904	3440.403498
515.902822	3488.697752
516.266684	3511.531658
516.630488	3555.099830
516.994235	3587.559820
517.357925	3641.293479
517.721558	3687.142773
518.085133	3733.970051
518.448651	3779.179119
518.812112	3818.918534
519.175516	3865.065257
519.538863	3921.100202
519.902152	3970.127944
520.265385	4035.635218
520.628560	4086.029112
520.991678	4126.585195
521.354739	4194.590360
521.717743	4260.112757
522.080690	4315.600738
522.443580	4398.487389
522.806413	4461.801761
523.169189	4519.853168
523.531908	4594.240434
523.894569	4651.598683
524.257174	4723.500660
524.619722	4808.272703
524.982213	4877.593610
525.344647	4944.265390
525.707025	5018.231720
526.069345	5120.874653
526.431608	5189.565415
526.793815	5287.822545
527.155964	5335.960523
527.518057	5419.474798
527.880093	5489.362835
528.242072	5609.314570
528.603995	5671.613149
528.965860	5755.354276
529.327669	5849.333987
529.689421	5925.399957
530.051117	6014.376323
530.412755	6111.050530
530.774337	6205.985539
531.135862	6290.598786
531.497331	6400.868985
531.858743	6478.369164
532.220098	6610.459997
532.581396	6675.606828
532.942638	6740.909935
533.303824	6868.372990
533.664953	6970.640357
534.026025	7040.258692
534.387040	7194.812907
534.747999	7294.312681
535.108902	7426.970645
535.469748	7472.272974
535.830537	7593.187569
536.191270	7726.281593
536.551947	7792.469422
536.912567	7947.192516
537.273131	8080.218483
537.633638	8122.906974
537.994089	8286.883106
538.354483	8352.103034
538.714821	8545.375831
539.075103	8712.361532
539.435328	8800.601889
539.795497	8904.774812
540.155609	9028.504892
540.515665	9218.011948
540.875665	9265.224874
541.235609	9446.776989
541.595496	9572.631915
541.955328	9808.825096
542.315102	9836.838788
542.674821	9929.222973
543.034483	10068.187420
543.394090	10197.125012
543.753640	10323.799126
544.113134	10654.173664
544.472571	10609.841757
544.831953	10979.794394
545.191278	10980.724487
545.550548	11063.240613
545.909761	11303.156687
546.268918	11491.476550
546.628019	11704.712317
546.987064	11752.189904
547.346053	11750.806107
547.704986	12090.083323
548.063863	12148.961479
548.422684	12347.789628
548.781449	12466.619706
549.140158	12727.045714
549.498811	12859.106301
549.857408	12880.382491
550.215949	13256.094646
550.574434	13401.186615
550.932864	13514.612577
551.291237	13855.888610
551.649555	13924.922170
552.007817	14153.969516
552.366022	14229.390219
552.724173	14440.843937
553.082267	14730.110386
553.440305	15003.192211
553.798288	14980.179343
554.156215	15230.059257
554.514086	15482.084182
554.871902	15580.611013
555.229661	15774.035045
555.587365	15896.220012
555.945014	16111.464678
556.302606	16270.566014
556.660143	16526.482709
557.017625	16746.229126
557.375050	16868.020883
557.732421	17172.191503
558.089735	17354.893000
558.446994	17511.899737
558.804197	17881.116365
559.161345	18067.497905
559.518437	17973.608935
559.875474	18288.360937
560.232455	18552.078819
560.589381	18807.153642
560.946251	18889.402587
561.303065	19346.431074
561.659825	19472.104519
562.016528	19543.814932
562.373177	19626.620926
562.729770	20016.460914
563.086307	20025.197234
563.442789	20416.269785
563.799216	20645.697737
564.155587	20752.708831
564.511904	20968.031635
564.868164	21205.893438
565.224370	21520.521932
565.580520	21599.133685
565.936615	21914.621695
566.292654	21973.555304
566.648638	22306.941932
567.004567	22496.544769
567.360441	22721.433163
567.716260	22855.890818
568.072023	23210.329304
568.427732	23412.479573
568.783385	23407.675353
569.138982	23799.027688
569.494525	23984.854701
569.850013	24078.738630
570.205445	24273.259113
570.560823	24454.256701
570.916145	24591.446661
571.271412	24820.607433
571.626625	24889.940942
571.981782	25131.016481
572.336884	25157.946325
572.691931	25541.815067
573.046923	25522.565421
573.401860	25646.209801
573.756743	25828.959190
574.111570	26089.337307
574.466342	26208.898352
574.821059	26493.075756
575.175722	26404.487560
575.530330	26607.696471
575.884882	26664.969020
576.239380	26832.312643
576.593823	27018.159820
576.948211	27160.564855
577.302544	27058.481489
577.656823	27268.014528
578.011047	27615.899514
578.365216	27640.555798
578.719330	27697.190641
579.073389	27791.003993
579.427394	28039.283341
579.781344	28224.134890
580.135239	28180.644856
580.489080	28420.999510
580.842866	28282.650084
581.196597	28764.090358
581.550273	28906.697039
581.903895	29010.968265
582.257463	29467.495157
582.610975	29237.663912
582.964434	29605.947927
583.317837	29556.090916
583.671186	29613.854977
584.024481	29948.217067
584.377721	29800.576795
584.730906	30181.050320
585.084037	30362.206704
585.437113	30326.769913
585.790135	30533.389165
586.143103	30411.695711
586.496016	30674.607007
586.848874	30852.779028
587.201679	31025.446109
587.554428	30818.355509
587.907124	31120.781890
588.259765	31102.084251
588.612352	31446.664760
588.964884	31157.146254
589.317362	31524.041431
589.669786	31635.103091
590.022155	31617.030554
590.374470	32080.294949
590.726731	31888.915105
591.078937	31676.884174
591.431090	31889.068860
591.783188	31775.935285
592.135232	31682.663857
592.487222	32018.475279
592.839157	32211.097768
593.191038	32104.600872
593.542866	32053.160938
593.894639	31718.355226
594.246358	32069.953022
594.598022	32184.145239
594.949633	32003.220748
595.301190	32101.200614
595.652692	32098.362444
596.004141	32491.338031
596.355535	31829.875632
596.706876	31919.247728
597.058162	31887.443088
597.409395	32395.291447
597.760573	32556.754563
598.111698	32354.495909
598.462768	32468.675523
598.813785	32609.742132
599.164748	32296.429379
599.515657	32724.743454
599.866511	32405.033477
600.217312	33018.473844
600.568060	32257.476383
600.918753	32985.497136
601.269392	33055.422981
601.619978	32873.288613
601.970510	33144.099398
602.320988	33406.990530
602.671412	33745.045266
603.021783	33625.189313
603.372100	33433.580096
603.722363	33630.023779
604.072572	33778.407622
604.422728	33893.545055
604.772830	33813.625123
605.122878	33987.575177
605.472872	34031.334913
605.822813	34343.788149
606.172701	34280.667862
606.522534	34575.035958
606.872314	34881.989296
607.222041	34742.964355
607.571714	35191.143096
607.921333	34774.776556
608.270899	35104.969613
608.620411	35483.482128
608.969870	35384.103342
609.319276	35454.959280
609.668627	35580.385708
610.017926	36078.184527
610.367171	36295.596890
610.716362	36451.749151
611.065500	36458.166539
611.414585	36697.661676
611.763616	37048.505819
612.112594	37037.715230
612.461518	37280.771942
612.810389	37625.841443
613.159207	37575.102230
613.507971	37695.071609
613.856682	38205.196049
614.205340	38151.661516
614.553945	38850.587249
614.902496	38400.301306
615.250994	38890.669464
615.599439	39014.596149
615.947830	39268.405642
616.296169	39384.626923
616.644454	39558.657636
616.992686	39755.141649
617.340864	40277.253953
617.688990	40073.462788
618.037063	40681.476353
618.385082	40690.878105
618.733048	41017.151664
619.080961	41066.895250
619.428821	41134.988635
619.776628	41292.749024
620.124382	41147.883907
620.472083	41325.496360
620.819731	41504.762311
621.167326	41248.744792
621.514868	41268.039809
621.862357	40912.010839
622.209793	40991.444300
622.557176	40722.735677
622.904506	40524.192353
623.251783	40236.125699
623.599007	40075.219630
623.946179	39896.175489
624.293297	39886.128470
624.640363	39351.199032
624.987376	39381.211542
625.334336	39191.999394
625.681243	38889.101665
626.028097	38889.141994
626.374899	38786.178947
626.721647	38804.032194
627.068343	38724.606294
627.414987	38524.711941
627.761577	38329.326901
628.108115	38686.210346
628.454600	38182.079838
628.801032	38390.627331
629.147412	38377.359014
629.493739	38425.355840
629.840014	38111.607028
630.186236	38451.932803
630.532405	38104.587221
630.878521	38335.209927
631.224585	38242.344312
631.570597	37975.924372
631.916556	38156.538832
632.262462	38127.577403
632.608316	38155.747371
632.954117	38082.431350
633.299866	38085.705579
633.645562	38042.364259
633.991206	37590.712163
634.336797	37193.507048
634.682336	37220.444454
635.027823	37005.257761
635.373257	36837.601587
635.718639	36641.936762
636.063968	36518.446137
636.409245	35982.178273
636.754470	36045.979116
637.099642	35840.980595
637.444762	35389.275566
637.789829	35542.559410
638.134845	35232.588943
638.479808	35192.463879
638.824719	35116.070233
639.169577	34747.178759
639.514383	34819.665511
639.859137	34550.067123
640.203839	34791.881191
