Dividing Wavelength (nm)	Counts (n)	Blue Motor Position (mm): 0.000000	Red Motor Position (mm): 0.000000	
326.493990	1978.529376
326.888308	1978.529376
327.282561	1978.529376
327.676750	1956.131530
328.070874	1956.554987
328.464933	1963.784001
328.858929	1970.274487
329.252859	1984.384677
329.646726	2000.082830
330.040528	2014.442556
330.434265	2032.641122
330.827938	2052.215922
331.221547	2070.787533
331.615091	2093.555904
332.008571	2113.034923
332.401986	2134.764816
332.795338	2154.448002
333.188625	2173.271670
333.581847	2194.232788
333.975006	2211.526466
334.368100	2229.326780
334.761129	2246.597773
335.154095	2262.179980
335.546996	2278.387289
335.939833	2289.195523
336.332606	2301.443007
336.725315	2312.036991
337.117960	2320.407827
337.510540	2328.400577
337.903056	2335.498521
338.295508	2341.810046
338.687896	2348.766838
339.080220	2356.298322
339.472480	2362.060361
339.864676	2365.279138
340.256807	2367.424149
340.648875	2371.598224
341.040879	2373.748276
341.432818	2372.780375
341.824694	2376.052083
342.216506	2373.498739
342.608253	2375.167361
342.999937	2372.616537
343.391557	2371.900693
343.783113	2369.342308
344.174605	2368.213089
344.566033	2367.356093
344.957397	2366.123531
345.348697	2363.771833
345.739934	2362.125896
346.131106	2361.152953
346.522215	2360.973992
346.913260	2354.957375
347.304241	2354.208764
347.695159	2352.434278
348.086012	2351.219360
348.476802	2352.577951
348.867528	2350.014524
349.258191	2346.576457
349.648789	2348.320696
350.039324	2346.024451
350.429796	2346.049656
350.820203	2345.132166
351.210548	2344.839779
351.600828	2343.650067
351.991045	2340.607731
352.381198	2341.346260
352.771288	2341.830211
353.161314	2342.394820
353.551276	2341.447083
353.941175	2342.830880
354.331010	2345.989163
354.720782	2340.799295
355.110490	2341.626044
355.500135	2341.933554
355.889717	2343.740808
356.279235	2342.155365
356.668689	2345.691734
357.058080	2344.532269
357.447408	2342.427587
357.836672	2342.099912
358.225873	2343.292145
358.615010	2342.183091
359.004084	2348.005624
359.393095	2344.859944
359.782043	2345.416992
360.170927	2347.156190
360.559748	2349.971674
360.948505	2349.923783
361.337199	2348.209791
361.725830	2350.450584
362.114398	2351.269771
362.502903	2350.017044
362.891344	2350.417816
363.279722	2351.630214
363.668037	2352.348578
364.056289	2350.662312
364.444478	2352.305728
364.832603	2353.513085
365.220665	2355.002746
365.608665	2353.830677
365.996601	2352.928311
366.384474	2354.039885
366.772284	2355.050637
367.160031	2354.634741
367.547715	2352.981243
367.935336	2355.519464
368.322893	2354.619618
368.710388	2354.654906
369.097820	2358.614732
369.485189	2355.811851
369.872495	2357.808148
370.259738	2357.793024
370.646918	2356.396625
371.034035	2356.777232
371.421090	2356.726820
371.808081	2357.558611
372.195010	2355.254803
372.581875	2359.882583
372.968678	2358.740761
373.355418	2360.197655
373.742096	2359.093642
374.128710	2359.842253
374.515262	2359.794362
374.901751	2359.784280
375.288177	2357.515761
375.674540	2358.773529
376.060841	2360.495083
376.447079	2359.592716
376.833254	2359.401152
377.219367	2356.729341
377.605417	2355.695904
377.991404	2355.834536
378.377329	2355.587519
378.763191	2353.891171
379.148991	2361.594054
379.534727	2359.615401
379.920402	2361.520958
380.306013	2362.519106
380.691563	2363.076153
381.077049	2361.710001
381.462474	2362.609847
381.847835	2363.219826
382.233134	2360.043899
382.618371	2362.211596
383.003545	2361.866277
383.388657	2363.943232
383.773706	2365.226206
384.158693	2365.987420
384.543618	2362.254445
384.928480	2363.943232
385.313280	2361.137830
385.698017	2365.233767
386.082692	2366.756196
386.467305	2362.493900
386.851856	2367.580424
387.236344	2364.401977
387.620770	2365.826103
388.005133	2367.779550
388.389435	2366.622605
388.773674	2366.073119
389.157851	2370.221989
389.541965	2368.089581
389.926018	2367.285517
390.310008	2366.501618
390.693936	2366.713346
391.077802	2366.554550
391.461606	2366.909951
391.845348	2367.459437
392.229027	2368.021525
392.612645	2369.294417
392.996200	2368.203007
393.379694	2371.341125
393.763125	2370.814325
394.146494	2368.147554
394.529801	2370.663090
394.913047	2371.726773
395.296230	2369.833820
395.679351	2371.701568
396.062410	2371.827597
396.445408	2370.726104
396.828343	2371.593183
397.211217	2366.267204
397.594028	2367.630836
397.976778	2367.028418
398.359466	2368.266021
398.742092	2364.941380
399.124656	2370.693337
399.507158	2372.664428
399.889598	2371.424304
400.271977	2370.809283
400.654294	2373.450848
401.036549	2369.977493
401.418742	2372.671990
401.800874	2371.789788
402.182944	2374.764069
402.564952	2371.192411
402.946898	2371.628471
403.328783	2372.427494
403.710606	2371.583101
404.092367	2371.197452
404.474067	2373.748276
404.855705	2373.148379
405.237282	2373.614686
405.618797	2374.958153
406.000250	2375.134593
406.381642	2374.612834
406.762972	2377.103164
407.144240	2375.061497
407.525447	2376.717516
407.906593	2374.557381
408.287677	2375.255581
408.668700	2374.534696
409.049661	2376.067207
409.430560	2375.971425
409.811399	2376.226003
410.192176	2375.001003
410.572891	2374.164171
410.953545	2373.075282
411.334138	2374.721219
411.714669	2374.925386
412.095139	2379.664070
412.475547	2377.435880
412.855894	2374.514532
413.236180	2377.698020
413.616405	2376.533514
413.996568	2377.619882
414.376670	2375.502598
414.756711	2376.692310
415.136691	2377.209028
415.516609	2380.339585
415.896466	2375.056456
416.276262	2379.515356
416.655997	2375.716847
417.035670	2372.881198
417.415283	2379.124667
417.794834	2373.103008
418.174324	2380.032074
418.553753	2378.706251
418.933121	2377.703061
419.312428	2380.316900
419.691674	2379.059132
420.070859	2379.293545
420.449983	2378.759183
420.829045	2379.633823
421.208047	2380.626931
421.586988	2382.615666
421.965867	2378.350850
422.344686	2376.536034
422.723444	2379.038967
423.102141	2379.356560
423.480777	2380.107692
423.859352	2380.016951
424.237866	2380.243803
424.616319	2380.606766
424.994712	2380.735315
425.373044	2383.233207
425.751314	2379.653988
426.129524	2379.921169
426.507673	2381.171375
426.885762	2380.039636
427.263789	2381.362939
427.641756	2381.483927
428.019662	2379.873278
428.397508	2381.620038
428.775292	2381.415871
429.153016	2382.686242
429.530679	2384.997611
429.908282	2382.615666
430.285824	2383.515512
430.663305	2385.456356
431.040726	2383.248331
431.418086	2382.315717
431.795385	2385.577344
432.172624	2384.848897
432.549802	2384.082642
432.926920	2380.936962
433.303977	2386.449463
433.680974	2382.731612
434.057910	2385.272354
434.434786	2382.174565
434.811601	2388.039947
435.188355	2384.503578
435.565050	2385.947868
435.941683	2387.394680
436.318257	2381.088196
436.694770	2380.624410
437.071222	2383.500388
437.447614	2380.745398
437.823946	2385.952910
438.200218	2384.420399
438.576429	2384.533825
438.952580	2384.037271
439.328670	2386.953579
439.704700	2382.761859
440.080670	2386.784700
440.456580	2385.451315
440.832429	2384.135574
441.208218	2387.301418
441.583947	2385.158928
441.959616	2386.366284
442.335224	2387.324103
442.710773	2386.008362
443.086261	2385.695811
443.461689	2384.886706
443.837057	2386.464587
444.212365	2390.545401
444.587612	2387.608929
444.962800	2387.707231
445.337927	2385.839484
445.712995	2387.490462
446.088002	2388.297046
446.462949	2384.201109
446.837837	2387.316542
447.212664	2386.830070
447.587431	2387.961809
447.962139	2387.558517
448.336786	2387.641696
448.711374	2387.409803
449.085901	2390.003477
449.460369	2387.866027
449.834776	2390.908364
450.209124	2385.849566
450.583412	2389.171686
450.957640	2388.526419
451.331808	2388.896943
451.705917	2387.286295
452.079965	2388.218908
452.453954	2386.905688
452.827883	2389.496841
453.201752	2392.483724
453.575562	2388.239073
453.949311	2388.657489
454.323001	2387.944165
454.696632	2388.261758
455.070202	2387.684546
455.443713	2387.803013
455.817164	2385.191695
456.190556	2385.095913
456.563888	2385.176572
456.937160	2384.649771
457.310373	2392.163611
457.683526	2388.667571
458.056619	2389.844680
458.429653	2388.423075
458.802628	2389.980792
459.175542	2390.099259
459.548398	2391.818292
459.921194	2389.577499
460.293930	2392.208982
460.666607	2392.219064
461.039224	2389.091028
461.411782	2389.658158
461.784280	2390.830226
462.156719	2390.754609
462.529099	2391.828374
462.901419	2391.808210
463.273680	2389.093548
463.645882	2391.437685
464.018024	2391.351985
464.390106	2394.132182
464.762130	2392.214023
465.134094	2391.107489
465.505999	2391.397356
465.877845	2391.092366
466.249631	2391.253683
466.621358	2388.528939
466.993026	2392.705535
467.364634	2396.128479
467.736184	2389.348127
468.107674	2391.079763
468.479105	2394.903478
468.850477	2390.371481
469.221790	2391.702346
469.593043	2391.432644
469.964238	2392.977758
470.335373	2392.652603
470.706449	2393.421379
471.077467	2390.757129
471.448425	2392.473642
471.819324	2393.406256
472.190164	2393.955741
472.560945	2389.806872
472.931667	2391.619167
473.302330	2392.377860
473.672934	2392.816441
474.043479	2391.581358
474.413965	2389.985833
474.784393	2390.016080
475.154761	2389.184289
475.525070	2386.184803
475.895321	2388.536501
476.265513	2389.459032
476.635645	2392.587068
477.005719	2393.595299
477.375734	2395.437841
477.745691	2389.267468
478.115588	2393.307953
478.485427	2391.727551
478.855207	2393.955741
479.224928	2392.745864
479.594591	2393.113869
479.964194	2392.067829
480.333739	2394.671585
480.703226	2395.783160
481.072653	2394.021276
481.442022	2393.771739
481.811333	2392.163611
482.180584	2394.631256
482.549777	2391.692263
482.918912	2392.836605
483.287988	2393.123951
483.657005	2393.948180
484.025964	2394.868190
484.394864	2393.875083
484.763706	2393.383570
485.132489	2393.315515
485.501213	2395.475649
485.869879	2394.585886
486.238487	2396.998078
486.607036	2394.089332
486.975527	2396.831720
487.343959	2393.537326
487.712333	2394.210320
488.080648	2394.066647
488.448905	2395.268962
488.817104	2394.812737
489.185244	2394.429610
489.553326	2394.560680
489.921350	2397.986144
490.289315	2395.833571
490.657222	2399.495969
491.025070	2396.380536
491.392861	2395.798283
491.760593	2394.888355
492.128267	2394.210320
492.495883	2394.754764
492.863440	2396.917419
493.230939	2394.512789
493.598380	2396.163767
493.965763	2391.420041
494.333088	2391.858621
494.700354	2390.691594
495.067563	2394.404404
495.434713	2394.570762
495.801805	2397.542522
496.168839	2397.051010
496.535815	2395.120248
496.902733	2395.241236
497.269593	2394.185114
497.636395	2394.112017
498.003139	2394.974054
498.369825	2396.899775
498.736453	2395.006822
499.103023	2393.829712
499.469535	2393.862480
499.835989	2394.220402
500.202385	2396.773746
500.568723	2396.972872
500.935003	2393.915412
501.301226	2397.441699
501.667390	2398.235681
502.033497	2395.815927
502.399546	2396.204096
502.765537	2395.982285
503.131470	2395.102604
503.497345	2395.919271
503.863163	2397.401370
504.228923	2396.241905
504.594625	2398.954045
504.960269	2394.953890
505.325856	2396.753582
505.691385	2396.287275
506.056856	2397.083777
506.422270	2395.967162
506.787625	2396.798952
507.152924	2397.502193
507.518164	2397.872718
507.883347	2393.091183
508.248472	2397.572769
508.613540	2395.944477
508.978550	2398.956566
509.343503	2396.667882
509.708398	2396.864487
510.073236	2394.805176
510.438016	2396.748541
510.802738	2396.408263
511.167403	2397.787018
511.532010	2399.637122
511.896561	2397.212327
512.261053	2397.124107
512.625488	2392.733262
512.989866	2394.525392
513.354186	2396.143602
513.718449	2392.183776
514.082655	2397.358520
514.446803	2393.111348
514.810894	2396.753582
515.174927	2400.844478
515.538904	2396.725855
515.902822	2396.834240
516.266684	2397.976062
516.630488	2397.141751
516.994235	2396.380536
517.357925	2397.061092
517.721558	2398.346586
518.085133	2397.550084
518.448651	2399.059910
518.812112	2396.753582
519.175516	2396.894734
519.538863	2399.538819
519.902152	2397.187121
520.265385	2396.859446
520.628560	2398.795249
520.991678	2396.201575
521.354739	2397.827348
521.717743	2398.006308
522.080690	2395.354662
522.443580	2399.621998
522.806413	2398.119734
523.169189	2396.723335
523.531908	2396.796432
523.894569	2400.385733
524.257174	2398.218037
524.619722	2395.992368
524.982213	2399.674930
525.344647	2397.429096
525.707025	2396.942625
526.069345	2396.080588
526.431608	2395.780639
526.793815	2398.666700
527.155964	2397.965979
527.518057	2396.957748
527.880093	2399.044786
528.242072	2399.145609
528.603995	2396.279713
528.965860	2398.991854
529.327669	2397.718963
529.689421	2398.084446
530.051117	2397.930691
530.412755	2398.202913
530.774337	2399.369941
531.135862	2396.491442
531.497331	2395.069836
531.858743	2392.428272
532.220098	2397.802142
532.581396	2391.672099
532.942638	2396.650238
533.303824	2399.788356
533.664953	2399.677451
534.026025	2398.888510
534.387040	2396.428427
534.747999	2399.317008
535.108902	2397.436658
535.469748	2397.419014
535.830537	2400.093346
536.191270	2399.095198
536.551947	2399.122924
536.912567	2396.683006
537.273131	2397.653428
537.633638	2396.347769
537.994089	2398.114693
538.354483	2396.534292
538.714821	2400.844478
539.075103	2399.264076
539.435328	2399.843809
539.795497	2398.147461
540.155609	2400.516803
540.515665	2399.004457
540.875665	2398.679302
541.235609	2399.851371
541.595496	2396.962790
541.955328	2399.417832
542.315102	2400.882287
542.674821	2399.001936
543.034483	2398.475136
543.394090	2398.023953
543.753640	2399.856412
544.113134	2400.289951
544.472571	2400.012688
544.831953	2399.359858
545.191278	2399.276679
545.550548	2399.808521
545.909761	2398.888510
546.268918	2398.822975
546.628019	2401.303223
546.987064	2397.466905
547.346053	2401.905641
547.704986	2399.458161
548.063863	2399.148130
548.422684	2399.511093
548.781449	2398.301216
549.140158	2397.703839
549.498811	2400.426062
549.857408	2399.390105
550.215949	2398.608726
550.574434	2395.805845
550.932864	2396.892213
551.291237	2396.035217
551.649555	2397.484549
552.007817	2400.042935
552.366022	2397.338356
552.724173	2398.689385
553.082267	2400.859602
553.440305	2396.017573
553.798288	2401.290620
554.156215	2397.320712
554.514086	2398.951525
554.871902	2400.042935
555.229661	2400.942781
555.587365	2398.107132
555.945014	2398.659138
556.302606	2398.843140
556.660143	2398.039076
557.017625	2398.260887
557.375050	2398.548233
557.732421	2399.276679
558.089735	2400.786505
558.446994	2399.112842
558.804197	2402.485374
559.161345	2401.078892
559.518437	2398.918757
559.875474	2401.761968
560.232455	2397.545043
560.589381	2397.466905
560.946251	2400.915054
561.303065	2403.601989
561.659825	2399.014539
562.016528	2398.339025
562.373177	2400.547050
562.729770	2398.074364
563.086307	2400.262225
563.442789	2399.425393
563.799216	2400.151319
564.155587	2399.621998
564.511904	2400.806669
564.868164	2400.360527
565.224370	2397.877759
565.580520	2398.381874
565.936615	2401.157030
566.292654	2397.734086
566.648638	2397.877759
567.004567	2399.372461
567.360441	2401.043604
567.716260	2399.077554
568.072023	2399.140568
568.427732	2395.868859
568.783385	2398.928840
569.138982	2395.589075
569.494525	2395.964641
569.850013	2396.836761
570.205445	2402.109808
570.560823	2397.706360
570.916145	2395.634446
571.271412	2400.201731
571.626625	2401.151988
571.981782	2397.562687
572.336884	2400.698285
572.691931	2400.539488
573.046923	2399.574107
573.401860	2400.698285
573.756743	2399.906823
574.111570	2400.529406
574.466342	2399.669889
574.821059	2399.826165
575.175722	2398.991854
575.530330	2397.381205
575.884882	2398.565877
576.239380	2400.715929
576.593823	2398.457492
576.948211	2398.492780
577.302544	2399.392626
577.656823	2400.431103
578.011047	2401.925806
578.365216	2399.848850
578.719330	2400.085784
579.073389	2398.497821
579.427394	2402.858419
579.781344	2399.304406
580.135239	2400.398336
580.489080	2398.059241
580.842866	2401.036042
581.196597	2400.461350
581.550273	2401.492266
581.903895	2401.189797
582.257463	2400.063099
582.610975	2400.884807
582.964434	2400.965466
583.317837	2398.591082
583.671186	2401.202400
584.024481	2401.525034
584.377721	2399.758109
584.730906	2399.748027
585.084037	2400.710888
585.437113	2401.240209
585.790135	2399.916906
586.143103	2400.690723
586.496016	2401.507390
586.848874	2393.857439
587.201679	2399.765671
587.554428	2395.324415
587.907124	2397.174518
588.259765	2393.096225
588.612352	2398.044117
588.964884	2402.228275
589.317362	2400.995713
589.669786	2400.337842
590.022155	2401.338511
590.374470	2399.385064
590.726731	2399.627039
591.078937	2401.388923
591.431090	2399.765671
591.783188	2400.930178
592.135232	2398.003788
592.487222	2398.276010
592.839157	2399.455640
593.191038	2398.228119
593.542866	2398.775084
593.894639	2399.155692
594.246358	2401.348593
594.598022	2398.056720
594.949633	2400.282389
595.301190	2401.325908
595.652692	2400.320198
596.004141	2396.796432
596.355535	2399.243912
596.706876	2401.819941
597.058162	2401.000754
597.409395	2400.738614
597.760573	2398.477656
598.111698	2399.253994
598.462768	2401.207441
598.813785	2397.522358
599.164748	2398.023953
599.515657	2399.717780
599.866511	2402.122411
600.217312	2400.005126
600.568060	2397.902965
600.918753	2402.666855
601.269392	2399.624519
601.619978	2400.060579
601.970510	2401.056207
602.320988	2399.546381
602.671412	2399.465723
603.021783	2398.780126
603.372100	2397.290465
603.722363	2400.065620
604.072572	2398.253325
604.422728	2398.649056
604.772830	2396.826678
605.122878	2394.979096
605.472872	2398.152502
605.822813	2397.802142
606.172701	2402.014026
606.522534	2399.077554
606.872314	2397.648387
607.222041	2399.506052
607.571714	2399.420352
607.921333	2400.985630
608.270899	2396.468757
608.620411	2397.603016
608.969870	2400.468912
609.319276	2400.839437
609.668627	2399.611916
610.017926	2400.867163
610.367171	2394.648900
610.716362	2400.297513
611.065500	2396.562018
611.414585	2400.360527
611.763616	2400.252143
612.112594	2401.144427
612.461518	2399.400188
612.810389	2400.110990
613.159207	2400.489077
613.507971	2398.991854
613.856682	2397.998747
614.205340	2396.259549
614.553945	2401.583007
614.902496	2400.650394
615.250994	2401.494787
615.599439	2397.819786
615.947830	2398.160064
616.296169	2399.501011
616.644454	2397.020763
616.992686	2400.829355
617.340864	2400.010167
617.688990	2398.807852
618.037063	2400.738614
618.385082	2398.712070
618.733048	2399.957235
619.080961	2398.112173
619.428821	2398.490259
619.776628	2398.419683
620.124382	2400.267266
620.472083	2400.773902
620.819731	2400.143758
621.167326	2398.969169
621.514868	2401.469581
621.862357	2399.306926
622.209793	2401.383882
622.557176	2399.221227
622.904506	2397.766854
623.251783	2397.590413
623.599007	2397.794580
623.946179	2396.088149
624.293297	2396.935063
624.640363	2397.056051
624.987376	2398.979251
625.334336	2398.623850
625.681243	2398.868346
626.028097	2397.666031
626.374899	2400.592420
626.721647	2398.984292
627.068343	2399.664848
627.414987	2398.465053
627.761577	2399.934550
628.108115	2398.797770
628.454600	2399.937070
628.801032	2398.704508
629.147412	2399.518655
629.493739	2399.019580
629.840014	2399.730383
630.186236	2400.647873
630.532405	2398.966648
630.878521	2399.874056
631.224585	2398.253325
631.570597	2400.778943
631.916556	2400.284910
632.262462	2396.748541
632.608316	2397.812224
632.954117	2400.350445
633.299866	2401.467061
633.645562	2399.006978
633.991206	2401.320867
634.336797	2399.831206
634.682336	2399.662327
635.027823	2399.841288
635.373257	2398.346586
635.718639	2398.822975
636.063968	2398.192831
636.409245	2400.259704
636.754470	2399.125445
637.099642	2399.175856
637.444762	2397.136709
637.789829	2399.120403
638.134845	2402.379509
638.479808	2395.705022
638.824719	2397.562687
639.169577	2398.911196
639.514383	2396.793911
639.859137	2399.329611
640.203839	2400.781464
640.548489	2398.293654
640.893086	2397.688716
641.237632	2395.788201
641.582125	2396.476318
641.926566	2393.244939
642.270955	2401.948491
642.615292	2398.240722
642.959576	2399.359858
643.303809	2401.920764
643.647990	2401.046124
643.992118	2397.746689
644.336195	2398.202913
