Dividing Wavelength (nm)	Counts (n)	Blue Motor Position (mm): 27.200000	Red Motor Position (mm): 0.000000	
326.493990	1971.098716
326.888308	1971.098716
327.282561	1971.098716
327.676750	1946.954109
328.070874	1948.927721
328.464933	1954.490634
328.858929	1961.961624
329.252859	1976.122225
329.646726	1991.033958
330.040528	2006.661535
330.434265	2024.723990
330.827938	2045.735519
331.221547	2063.046841
331.615091	2084.960737
332.008571	2106.481423
332.401986	2128.410442
332.795338	2146.954326
333.188625	2167.998623
333.581847	2186.693742
333.975006	2203.700075
334.368100	2223.141284
334.761129	2237.148130
335.154095	2253.584813
335.546996	2290.120575
335.939833	2364.706967
336.332606	2378.852444
336.725315	2392.435833
337.117960	2401.761968
337.510540	2406.213307
337.903056	2416.519946
338.295508	2423.459094
338.687896	2430.723397
339.080220	2436.702205
339.472480	2439.757145
339.864676	2444.339553
340.256807	2449.622683
340.648875	2450.101592
341.040879	2452.042437
341.432818	2455.518312
341.824694	2455.036882
342.216506	2455.246090
342.608253	2454.323559
342.999937	2452.896912
343.391557	2453.602674
343.783113	2450.179730
344.174605	2449.993207
344.566033	2444.977259
344.957397	2445.851900
345.348697	2442.696137
345.739934	2438.297731
346.131106	2441.438369
346.522215	2439.714295
346.913260	2439.323605
347.304241	2433.581731
347.695159	2435.318409
348.086012	2431.721545
348.476802	2432.069385
348.867528	2429.684919
349.258191	2430.728438
349.648789	2426.428334
350.039324	2424.142171
350.429796	2426.897161
350.820203	2421.480441
351.210548	2422.128230
351.600828	2425.180648
351.991045	2424.658889
352.381198	2422.360123
352.771288	2422.929773
353.161314	2421.029258
353.551276	2421.359454
353.941175	2420.618404
354.331010	2421.780390
354.720782	2423.945566
355.110490	2425.846081
355.500135	2425.583941
355.889717	2421.787952
356.279235	2422.269382
356.668689	2424.250555
357.058080	2426.362799
357.447408	2419.655544
357.836672	2423.640576
358.225873	2421.997160
358.615010	2422.241656
359.004084	2427.512182
359.393095	2427.454209
359.782043	2428.880855
360.170927	2429.006884
360.559748	2429.571493
360.948505	2430.436051
361.337199	2430.695671
361.725830	2431.161977
362.114398	2432.732297
362.502903	2432.797832
362.891344	2433.833789
363.279722	2432.608788
363.668037	2432.553336
364.056289	2429.838674
364.444478	2435.562905
364.832603	2437.672628
365.220665	2435.096598
365.608665	2434.184149
365.996601	2435.625919
366.384474	2435.487287
366.772284	2437.297062
367.160031	2437.957453
367.547715	2441.128338
367.935336	2433.196083
368.322893	2434.952925
368.710388	2437.622216
369.097820	2441.077927
369.485189	2437.672628
369.872495	2440.009202
370.259738	2442.365942
370.646918	2439.326126
371.034035	2441.566919
371.421090	2438.209510
371.808081	2440.465427
372.195010	2439.789912
372.581875	2443.147321
372.968678	2443.966508
373.355418	2441.196394
373.742096	2444.546241
374.128710	2443.706889
374.515262	2441.965170
374.901751	2446.232507
375.288177	2445.486416
375.674540	2445.763679
376.060841	2449.980605
376.447079	2445.456169
376.833254	2446.028340
377.219367	2443.283432
377.605417	2445.516663
377.991404	2444.432815
378.377329	2447.785182
378.763191	2444.321909
379.148991	2450.373815
379.534727	2449.562189
379.920402	2448.536314
380.306013	2450.409103
380.691563	2449.700821
381.077049	2451.102261
381.462474	2448.768207
381.847835	2452.596963
382.233134	2451.757611
382.618371	2450.814916
383.003545	2453.098558
383.388657	2449.816767
383.773706	2454.588219
384.158693	2453.219546
384.543618	2453.637962
384.928480	2454.764660
385.313280	2456.642489
385.698017	2455.750205
386.082692	2457.406224
386.467305	2456.103086
386.851856	2457.381018
387.236344	2457.093673
387.620770	2460.156174
388.005133	2459.107614
388.389435	2459.100052
388.773674	2455.722479
389.157851	2458.094342
389.541965	2462.225567
389.926018	2460.912347
390.310008	2459.072326
390.693936	2461.676082
391.077802	2459.518468
391.461606	2458.946297
391.845348	2461.116513
392.229027	2460.705659
392.612645	2464.216823
392.996200	2463.143057
393.379694	2462.023921
393.763125	2462.931329
394.146494	2467.266721
394.529801	2468.259828
394.913047	2465.673717
395.296230	2468.711012
395.679351	2466.364355
396.062410	2466.964252
396.445408	2467.198666
396.828343	2466.752523
397.211217	2461.028293
397.594028	2468.955508
397.976778	2463.001905
398.359466	2468.569859
398.742092	2465.053655
399.124656	2467.871660
399.507158	2470.218317
399.889598	2471.476085
400.271977	2471.355097
400.654294	2473.026239
401.036549	2472.537248
401.418742	2471.203862
401.800874	2473.449696
402.182944	2471.602113
402.564952	2475.120839
402.946898	2468.915178
403.328783	2475.680407
403.710606	2472.663276
404.092367	2476.613020
404.474067	2476.633185
404.855705	2477.722074
405.237282	2474.606641
405.618797	2480.451859
406.000250	2480.542600
406.381642	2478.735346
406.762972	2480.711478
407.144240	2480.252733
407.525447	2476.829790
407.906593	2480.600573
408.287677	2482.274236
408.668700	2479.859523
409.049661	2480.908083
409.430560	2483.093424
409.811399	2485.011583
410.192176	2483.756335
410.572891	2482.659884
410.953545	2485.636686
411.334138	2484.237766
411.714669	2485.908908
412.095139	2481.903711
412.475547	2484.895636
412.855894	2486.130719
413.236180	2484.157107
413.616405	2487.496872
413.996568	2483.194247
414.376670	2487.988384
414.756711	2485.994608
415.136691	2491.169352
415.516609	2488.114413
415.896466	2491.529795
416.276262	2489.825885
416.655997	2489.956955
417.035670	2485.404793
417.415283	2489.266317
417.794834	2488.361429
418.174324	2495.633294
418.553753	2490.370329
418.933121	2493.011894
419.312428	2493.924343
419.691674	2492.918632
420.070859	2495.166987
420.449983	2494.824189
420.829045	2497.722852
421.208047	2497.780825
421.586988	2498.390805
421.965867	2501.123110
422.344686	2500.354334
422.723444	2502.574963
423.102141	2499.504900
423.480777	2503.043790
423.859352	2504.314161
424.237866	2508.473113
424.616319	2503.893224
424.994712	2505.420694
425.373044	2505.650067
425.751314	2509.723319
426.129524	2507.522855
426.507673	2509.834224
426.885762	2509.874553
427.263789	2510.809688
427.641756	2510.918072
428.019662	2513.678104
428.397508	2516.309586
428.775292	2515.850841
429.153016	2518.852848
429.530679	2517.045595
429.908282	2521.411234
430.285824	2520.650020
430.663305	2521.804444
431.040726	2522.754702
431.418086	2524.579599
431.795385	2527.505989
432.172624	2527.493386
432.549802	2527.594209
432.926920	2530.833151
433.303977	2531.669982
433.680974	2530.220650
434.057910	2537.800025
434.434786	2539.990407
434.811601	2540.615510
435.188355	2546.584236
435.565050	2544.592980
435.941683	2547.128680
436.318257	2552.797458
436.694770	2550.753270
437.071222	2555.983467
437.447614	2554.455998
437.823946	2559.761812
438.200218	2567.288255
438.576429	2569.660118
438.952580	2575.923751
439.328670	2579.686972
439.704700	2585.075966
440.080670	2588.506471
440.456580	2599.854108
440.832429	2609.356683
441.208218	2613.742487
441.583947	2624.916205
441.959616	2637.456075
442.335224	2647.311531
442.710773	2661.388953
443.086261	2679.232117
443.461689	2688.671677
443.837057	2704.533668
444.212365	2726.250959
444.587612	2748.525297
444.962800	2765.471136
445.337927	2793.497431
445.712995	2801.212917
446.088002	2854.704600
446.462949	2891.689025
446.837837	2922.835794
447.212664	2961.451033
447.587431	3070.791139
447.962139	3195.804193
448.336786	3306.956594
448.711374	3313.865495
449.085901	3260.842639
449.460369	3311.276863
449.834776	3374.324053
450.209124	3546.446690
450.583412	3605.463478
450.957640	3694.868341
451.331808	3710.919375
451.705917	3728.334041
452.079965	3805.302378
452.453954	3916.048966
452.827883	4001.294878
453.201752	4079.699943
453.575562	4184.613917
453.949311	4363.796689
454.323001	4483.052745
454.696632	4579.283331
455.070202	4828.039067
455.443713	4973.521726
455.817164	5160.230941
456.190556	5348.155074
456.563888	5432.065080
456.937160	5607.003201
457.310373	5562.971242
457.683526	5753.978041
458.056619	5904.940434
458.429653	6051.963166
458.802628	6280.067815
459.175542	6471.296425
459.548398	6842.721078
459.921194	7285.130219
460.293930	7617.367464
460.666607	8186.546500
461.039224	8727.021207
461.411782	9010.152572
461.784280	8985.108119
462.156719	9090.075025
462.529099	9189.262247
462.901419	9135.591603
463.273680	9124.813616
463.645882	9361.503351
464.018024	9585.436446
464.390106	10028.402634
464.762130	10974.455812
465.134094	12360.868902
465.505999	14193.078787
465.877845	15904.986578
466.249631	16613.450175
466.621358	16367.048657
466.993026	16024.719023
467.364634	15690.735019
467.736184	15393.206119
468.107674	15298.382015
468.479105	15336.324260
468.850477	15415.006589
469.221790	15212.629468
469.593043	14872.260842
469.964238	14836.687940
470.335373	15077.455968
470.706449	16052.674742
471.077467	17422.943536
471.448425	19743.371528
471.819324	21359.061336
472.190164	20863.770491
472.560945	19585.258258
472.931667	18496.003544
473.302330	18292.542575
473.672934	18210.172641
474.043479	18751.085928
474.413965	18663.768103
474.784393	18753.795549
475.154761	19488.747888
475.525070	19800.359252
475.895321	19836.111115
476.265513	20432.303174
476.635645	21248.823904
477.005719	21443.009150
477.375734	21987.423519
477.745691	22664.165655
478.115588	23731.471186
478.485427	25199.245978
478.855207	27541.116518
479.224928	29531.827842
479.594591	30930.574115
479.964194	30612.999066
480.333739	31038.361546
480.703226	31405.160941
481.072653	32196.211240
481.442022	32883.559964
481.811333	33405.256373
482.180584	32843.263501
482.549777	32798.568631
482.918912	32739.733325
483.287988	32835.968952
483.657005	32542.656977
484.025964	32382.144118
484.394864	32692.757333
484.763706	32661.449247
485.132489	32312.041832
485.501213	32457.736220
485.869879	32841.441124
486.238487	32821.480675
486.607036	33224.664598
486.975527	33068.625763
487.343959	33473.846312
487.712333	33779.420894
488.080648	33961.890498
488.448905	34549.653749
488.817104	34644.576155
489.185244	35637.300335
489.553326	37228.215392
489.921350	39750.347511
490.289315	42558.267683
490.657222	43402.522321
491.025070	43901.901541
491.392861	43295.455775
491.760593	42364.710061
492.128267	41096.932965
492.495883	39972.853960
492.863440	38971.806835
493.230939	38009.765638
493.598380	37277.878319
493.965763	37182.877775
494.333088	36658.398650
494.700354	36424.905006
495.067563	36348.206371
495.434713	36390.582310
495.801805	36619.438092
496.168839	36440.996369
496.535815	36299.493702
496.902733	36457.697712
497.269593	36238.377273
497.636395	36307.136091
498.003139	36801.527090
498.369825	36453.160674
498.736453	36838.692996
499.103023	36541.431278
499.469535	36555.685140
499.835989	36749.426765
500.202385	36538.782151
500.568723	36675.147883
500.935003	36944.267361
501.301226	36868.766000
501.667390	37541.588639
502.033497	37861.787608
502.399546	37423.817203
502.765537	36881.958699
503.131470	37315.495409
503.497345	37714.817808
503.863163	36564.103867
504.228923	37211.985398
504.594625	37668.807197
504.960269	37050.262662
505.325856	37765.783874
505.691385	37235.056238
506.056856	37422.176307
506.422270	37883.509940
506.787625	37539.524286
507.152924	37777.945658
507.518164	37922.510826
507.883347	37232.013902
508.248472	37498.474171
508.613540	37995.804162
508.978550	38347.346505
509.343503	38135.739031
509.708398	38356.226497
510.073236	38908.835262
510.438016	38932.942059
510.802738	38449.596228
511.167403	39080.690717
511.532010	39343.095377
511.896561	39637.886931
512.261053	40470.493982
512.625488	40074.879352
512.989866	39962.527156
513.354186	39842.343528
513.718449	39852.549344
514.082655	40524.512466
514.446803	40232.687632
514.810894	40750.018401
515.174927	40692.743332
515.538904	40617.037804
515.902822	41284.105966
516.266684	40778.256425
516.630488	41179.728876
516.994235	41052.870760
517.357925	41610.492951
517.721558	41787.404684
518.085133	42109.610032
518.448651	42243.926535
518.812112	42040.004300
519.175516	42152.457319
519.538863	42489.229081
519.902152	42465.429794
520.265385	42927.554888
520.628560	42966.036535
520.991678	42766.976493
521.354739	42992.202644
521.717743	43322.678005
522.080690	43226.424734
522.443580	43769.886325
522.806413	43824.497144
523.169189	43791.512875
523.531908	43967.701202
523.894569	43845.685114
524.257174	44010.997152
524.619722	44311.190301
524.982213	44303.321060
525.344647	44238.451493
525.707025	44274.009271
526.069345	44673.402246
526.431608	44595.647489
526.793815	44912.307568
527.155964	44463.644876
527.518057	44624.046830
527.880093	44422.569554
528.242072	44951.005986
528.603995	44646.419470
528.965860	44667.400753
529.327669	44777.247495
529.689421	44678.471127
530.051117	44642.857895
530.412755	44783.236386
530.774337	44843.616806
531.135862	44653.104040
531.497331	44871.975817
531.858743	44780.161282
532.220098	45108.675634
532.581396	44837.257390
532.942638	44499.484959
533.303824	44800.772039
533.664953	44766.088901
534.026025	44508.337225
534.387040	44957.534280
534.747999	44912.453762
535.108902	45076.707157
535.469748	44596.701091
535.830537	44726.493158
536.191270	44933.772801
536.551947	44574.764510
536.912567	44879.938319
537.273131	44994.561555
537.633638	44502.736503
537.994089	44850.871026
538.354483	44462.699660
538.714821	45015.363876
539.075103	45348.584146
539.435328	45145.821376
539.795497	45011.265418
540.155609	45027.467687
540.515665	45466.398432
540.875665	44933.946721
541.235609	45253.213077
541.595496	45224.304580
541.955328	45892.265026
542.315102	45280.785668
542.674821	45064.275672
543.034483	45134.665303
543.394090	45088.228714
543.753640	45048.333023
544.113134	46023.261929
544.472571	45065.805662
544.831953	46293.997097
545.191278	45514.574218
545.550548	45245.953815
545.909761	45696.748915
546.268918	45898.274082
546.628019	46211.100363
546.987064	45772.078877
547.346053	45059.042954
547.704986	45922.310303
548.063863	45498.228277
548.422684	45695.533997
548.781449	45541.483898
549.140158	45939.331759
549.498811	45782.415763
549.857408	45235.463174
550.215949	46056.094964
550.574434	45991.432084
550.932864	45772.441840
551.291237	46467.949672
551.649555	46089.825325
552.007817	46319.802763
552.366022	45982.990672
552.724173	46154.435273
553.082267	46542.861218
553.440305	46842.605705
553.798288	46173.664754
554.156215	46485.031622
554.514086	46687.534772
554.871902	46442.174252
555.229661	46431.935669
555.587365	46284.600386
555.945014	46370.670526
556.302606	46313.458471
556.660143	46524.287087
557.017625	46618.687734
557.375050	46413.255673
557.732421	46763.691483
558.089735	46746.821262
558.446994	46655.989752
558.804197	47113.454298
559.161345	47060.741473
559.518437	46318.665983
559.875474	46631.250289
560.232455	46790.835576
560.589381	46965.745970
560.946251	46666.881164
561.303065	47328.824994
561.659825	47132.411558
562.016528	46827.764548
562.373177	46555.640543
562.729770	47030.862554
563.086307	46539.360137
563.442789	47003.068153
563.799216	47040.826395
564.155587	46844.236518
564.511904	46879.398567
564.868164	46962.312944
565.224370	47221.735762
565.580520	46951.658466
565.936615	47156.099939
566.292654	46874.279275
566.648638	47119.707850
567.004567	47083.976151
567.360441	47117.819938
567.716260	46964.435270
568.072023	47262.473327
568.427732	47246.996984
568.783385	46819.670976
569.138982	47217.682675
569.494525	47169.718617
569.850013	46933.313707
570.205445	46905.912515
570.560823	46870.495889
570.916145	46736.098727
571.271412	46769.939993
571.626625	46531.727830
571.981782	46598.064373
572.336884	46288.182126
572.691931	46598.482789
573.046923	46205.514764
573.401860	46066.678867
573.756743	46039.441513
574.111570	46156.708833
574.466342	46017.373862
574.821059	46142.170146
575.175722	45675.225709
575.530330	45685.905393
575.884882	45412.316933
576.239380	45377.878291
576.593823	45352.944744
576.948211	45276.467919
577.302544	44822.010421
577.656823	44859.992994
578.011047	45088.009424
578.365216	44795.425896
578.719330	44601.890958
579.073389	44457.262775
579.427394	44542.150765
579.781344	44512.261764
580.135239	44180.979818
580.489080	44269.825113
580.842866	43759.478863
581.196597	44204.421183
581.550273	44158.715562
581.903895	44019.236918
582.257463	44458.487776
582.610975	43841.115308
582.964434	44121.683246
583.317837	43768.918423
583.671186	43611.374804
584.024481	43839.245040
584.377721	43378.279412
584.730906	43660.203420
585.084037	43687.183675
585.437113	43418.170062
585.790135	43444.416830
586.143103	43057.702356
586.496016	43174.982280
586.848874	43210.161972
587.201679	43217.587592
587.554428	42711.027247
587.907124	42899.561360
588.259765	42660.928261
588.612352	42916.464349
588.964884	42307.848366
589.317362	42608.228038
589.669786	42528.255174
590.022155	42321.426714
590.374470	42720.000501
590.726731	42270.387552
591.078937	41793.368369
591.431090	41887.461505
591.783188	41542.492827
592.135232	41217.386295
592.487222	41477.116623
592.839157	41561.949160
593.191038	41237.440005
593.542866	41011.838288
593.894639	40416.878791
594.246358	40680.410149
594.598022	40656.847796
594.949633	40280.134972
595.301190	40242.031411
595.652692	40085.798491
596.004141	40405.750443
596.355535	39447.527920
596.706876	39390.751925
597.058162	39230.995239
597.409395	39682.667500
597.760573	39758.252041
598.111698	39334.807720
598.462768	39353.684321
598.813785	39397.849870
599.164748	38849.538689
599.515657	39250.607848
599.866511	38733.004857
600.217312	39333.108852
600.568060	38324.416817
600.918753	39049.745594
601.269392	39012.662866
601.619978	38681.804377
601.970510	38886.213084
602.320988	39057.647603
602.671412	39350.291624
603.021783	39091.788817
603.372100	38750.878268
603.722363	38866.141730
604.072572	38945.486971
604.422728	38942.800036
604.772830	38756.269782
605.122878	38862.673416
605.472872	38805.395826
605.822813	39081.857744
606.172701	38925.700442
606.522534	39145.522476
606.872314	39392.531453
607.222041	39156.532356
607.571714	39544.900328
607.921333	39009.852423
608.270899	39282.596490
608.620411	39619.895053
608.969870	39435.746744
609.319276	39411.670193
609.668627	39481.608641
610.017926	39957.422988
610.367171	40114.517945
610.716362	40203.985822
611.065500	40165.383187
611.414585	40349.619716
611.763616	40651.156333
612.112594	40569.230022
612.461518	40780.610643
612.810389	41060.951729
613.159207	40944.914450
613.507971	41023.891687
613.856682	41482.321615
614.205340	41355.155988
614.553945	42053.217164
614.902496	41505.586540
615.250994	41972.236069
615.599439	42042.219887
615.947830	42263.168619
616.296169	42325.439472
616.644454	42440.821401
616.992686	42609.828605
617.340864	43140.775531
617.688990	42859.907644
618.037063	43450.466214
618.385082	43404.228751
618.733048	43700.464595
619.080961	43722.101227
619.428821	43733.995830
619.776628	43832.192466
620.124382	43655.018593
620.472083	43784.931648
620.819731	43889.734716
621.167326	43582.937655
621.514868	43574.846603
621.862357	43135.910817
622.209793	43154.275741
622.557176	42821.420955
622.904506	42577.976074
623.251783	42231.185019
623.599007	41999.271777
623.946179	41788.498614
624.293297	41750.858839
624.640363	41151.216110
624.987376	41152.304999
625.334336	40908.610581
625.681243	40566.079300
626.028097	40530.380369
626.374899	40374.611236
626.721647	40351.333708
627.068343	40254.757803
627.414987	40010.597079
627.761577	39792.322679
628.108115	40118.732349
628.454600	39574.965769
628.801032	39771.313670
629.147412	39727.165765
629.493739	39751.287687
629.840014	39403.919419
630.186236	39735.428217
630.532405	39361.127585
630.878521	39582.383827
631.224585	39447.137231
631.570597	39158.067387
631.916556	39334.636321
632.262462	39283.844176
632.608316	39285.540524
632.954117	39188.697438
633.299866	39171.963328
633.645562	39083.967467
633.991206	38606.582800
634.336797	38176.867285
634.682336	38164.415635
635.027823	37927.945190
635.373257	37743.358301
635.718639	37506.431632
636.063968	37373.834162
636.409245	36811.248955
636.754470	36852.281427
637.099642	36610.414427
