Dividing Wavelength (nm)	Counts (n)	Blue Motor Position (mm): 50.000000	Red Motor Position (mm): 0.000000	
326.493990	1976.414612
326.888308	1976.414612
327.282561	1976.414612
327.676750	1953.568103
328.070874	1954.546087
328.464933	1959.791407
328.858929	1969.210803
329.252859	1982.171610
329.646726	1995.641573
330.040528	2010.165137
330.434265	2030.395288
330.827938	2048.233411
331.221547	2067.888869
331.615091	2088.537436
332.008571	2110.441249
332.401986	2131.876235
332.795338	2148.033133
333.188625	2171.754283
333.581847	2190.270441
333.975006	2207.821218
334.368100	2226.765874
334.761129	2243.709192
335.154095	2258.205030
335.546996	2298.733386
335.939833	2383.379401
336.332606	2400.491597
336.725315	2411.622465
337.117960	2420.736871
337.510540	2426.796338
337.903056	2438.234716
338.295508	2443.621189
338.687896	2451.986984
339.080220	2457.345730
339.472480	2464.829323
339.864676	2467.072637
340.256807	2470.364510
340.648875	2473.220324
341.040879	2474.762917
341.432818	2475.912300
341.824694	2477.008751
342.216506	2475.400623
342.608253	2474.833493
342.999937	2475.314923
343.391557	2474.815849
343.783113	2472.063379
344.174605	2469.449541
344.566033	2469.867957
344.957397	2467.362503
345.348697	2464.531895
345.739934	2464.461319
346.131106	2460.970320
346.522215	2461.071143
346.913260	2460.498972
347.304241	2456.216512
347.695159	2453.852211
348.086012	2456.216512
348.476802	2451.107302
348.867528	2453.884978
349.258191	2448.168310
349.648789	2451.359360
350.039324	2447.659153
350.429796	2453.179217
350.820203	2447.558330
351.210548	2447.817950
351.600828	2447.757456
351.991045	2449.098403
352.381198	2446.691252
352.771288	2447.462548
353.161314	2445.632609
353.551276	2446.025819
353.941175	2443.162444
354.331010	2447.276026
354.720782	2448.730398
355.110490	2451.858434
355.500135	2448.100254
355.889717	2449.446242
356.279235	2446.345933
356.668689	2450.704010
357.058080	2447.008844
357.447408	2447.926334
357.836672	2452.024793
358.225873	2447.742332
358.615010	2448.992538
359.004084	2454.724330
359.393095	2452.455811
359.782043	2458.442181
360.170927	2455.392283
360.559748	2458.638786
360.948505	2458.674074
361.337199	2463.014508
361.725830	2457.580144
362.114398	2460.420834
362.502903	2460.355299
362.891344	2465.230095
363.279722	2461.688684
363.668037	2461.983592
364.056289	2464.385702
364.444478	2464.942749
364.832603	2465.671196
365.220665	2467.128089
365.608665	2465.913171
365.996601	2468.136320
366.384474	2472.247381
366.772284	2471.135807
367.160031	2473.384161
367.547715	2471.181177
367.935336	2470.916517
368.322893	2473.595890
368.710388	2475.748462
369.097820	2475.047742
369.485189	2479.037815
369.872495	2480.167034
370.259738	2481.502940
370.646918	2484.575523
371.034035	2486.027375
371.421090	2489.001656
371.808081	2488.633652
372.195010	2496.006339
372.581875	2501.443224
372.968678	2509.322547
373.355418	2515.341685
373.742096	2530.054292
374.128710	2537.794984
374.515262	2549.356870
374.901751	2563.182235
375.288177	2580.743094
375.674540	2598.387133
376.060841	2620.989146
376.447079	2641.703247
376.833254	2666.714932
377.219367	2689.153108
377.605417	2724.786504
377.991404	2750.345154
378.377329	2790.376956
378.763191	2821.869044
379.148991	2867.577186
379.534727	2917.288004
379.920402	2966.610654
380.306013	3015.073786
380.691563	3075.096284
381.077049	3129.593678
381.462474	3183.453366
381.847835	3259.552104
382.233134	3327.285047
382.618371	3391.526991
383.003545	3473.750731
383.388657	3551.500446
383.773706	3642.578973
384.158693	3714.775858
384.543618	3807.205413
384.928480	3887.836149
385.313280	3989.216273
385.698017	4094.478086
386.082692	4213.043504
386.467305	4274.704377
386.851856	4403.652051
387.236344	4553.250812
387.620770	4618.876553
388.005133	4736.532043
388.389435	4885.639291
388.773674	4964.419923
389.157851	5097.816415
389.541965	5226.101178
389.926018	5251.213686
390.310008	5428.122898
390.693936	5551.860539
391.077802	5665.667108
391.461606	5800.502850
391.845348	5910.818420
392.229027	6032.474065
392.612645	6251.330718
392.996200	6367.181474
393.379694	6540.640017
393.763125	6761.553460
394.146494	6855.699529
394.529801	6987.808007
394.913047	7229.959832
395.296230	7226.181487
395.679351	7284.316073
396.062410	7539.597583
396.445408	7431.086747
396.828343	7587.823782
397.211217	7717.268009
397.594028	7602.488498
397.976778	7805.100033
398.359466	7969.522307
398.742092	7943.330992
399.124656	8089.998322
399.507158	8268.147658
399.889598	8292.541801
400.271977	8501.404367
400.654294	8525.037296
401.036549	8724.924087
401.418742	8745.350842
401.800874	9048.626658
402.182944	9131.190676
402.564952	9487.043205
402.946898	9309.748345
403.328783	9370.201862
403.710606	9560.434843
404.092367	9816.439759
404.474067	10167.039406
404.855705	9962.154311
405.237282	9913.328215
405.618797	10337.334624
406.000250	10575.355224
406.381642	10938.202354
406.762972	10896.726261
407.144240	10696.647906
407.525447	10943.556059
407.906593	10885.532379
408.287677	11140.924794
408.668700	11293.996910
409.049661	11264.748136
409.430560	11430.123187
409.811399	11395.583722
410.192176	11551.607433
410.572891	11632.633899
410.953545	12104.332144
411.334138	11586.633370
411.714669	12173.005262
412.095139	11497.130204
412.475547	11991.574135
412.855894	11841.173831
413.236180	12156.092191
413.616405	11845.872186
413.996568	12120.476439
414.376670	12097.604724
414.756711	11974.083852
415.136691	12250.865883
415.516609	12420.074733
415.896466	12490.754230
416.276262	12774.876182
416.655997	13215.500754
417.035670	13254.736055
417.415283	13885.081932
417.794834	13977.211539
418.174324	13728.783477
418.553753	13627.390750
418.933121	14112.314462
419.312428	13921.980657
419.691674	13829.210823
420.070859	14285.536070
420.449983	13944.955716
420.829045	14487.943438
421.208047	14229.929622
421.586988	14684.631617
421.965867	14921.349078
422.344686	14927.937866
422.723444	15475.883563
423.102141	14178.991283
423.480777	15354.295973
423.859352	14870.846799
424.237866	15958.072449
424.616319	15659.752088
424.994712	16307.772250
425.373044	16106.274810
425.751314	16763.502640
426.129524	15910.236940
426.507673	16976.017521
426.885762	16679.254877
427.263789	16869.591202
427.641756	17033.978188
428.019662	17091.001199
428.397508	17143.978685
428.775292	17420.309533
429.153016	17388.688896
429.530679	17466.804095
429.908282	17492.831572
430.285824	17212.613995
430.663305	17900.925579
431.040726	17514.422834
431.418086	17350.333277
431.795385	17968.650961
432.172624	18393.902534
432.549802	17953.633363
432.926920	18141.476838
433.303977	18022.503087
433.680974	18282.447664
434.057910	18559.970745
434.434786	18596.887115
434.811601	18514.592799
435.188355	19523.758702
435.565050	19182.686836
435.941683	19139.660587
436.318257	19997.138172
436.694770	19816.077569
437.071222	20394.953266
437.447614	19482.953082
437.823946	19505.832359
438.200218	19658.937242
438.576429	19430.499876
438.952580	19717.472600
439.328670	19672.820580
439.704700	20087.697459
440.080670	19663.320526
440.456580	20231.148533
440.832429	20405.955584
441.208218	19426.540050
441.583947	19857.596513
441.959616	19961.507296
442.335224	20191.426761
442.710773	20328.019345
443.086261	20852.269098
443.461689	20219.488344
443.837057	20349.058601
444.212365	20982.487143
444.587612	20980.571505
444.962800	20561.908719
445.337927	20977.592183
445.712995	19732.021370
446.088002	21553.561654
446.462949	21749.652456
446.837837	21902.538050
447.212664	21861.868541
447.587431	24629.504852
447.962139	27516.298917
448.336786	29886.334383
448.711374	28377.622902
449.085901	24747.029272
449.460369	24671.026316
449.834776	24577.245731
450.209124	27022.525460
450.583412	26586.155621
450.957640	27106.987472
451.331808	25780.032271
451.705917	24427.856178
452.079965	24448.156904
452.453954	24811.863552
452.827883	24701.089237
453.201752	24517.865980
453.575562	24657.700026
453.949311	25748.436839
454.323001	25813.684494
454.696632	25588.586892
455.070202	27112.976363
455.443713	27239.663079
455.817164	27823.970619
456.190556	28351.073665
456.563888	27807.118041
456.937160	28225.455673
457.310373	26600.865708
457.683526	27020.103185
458.056619	27016.438266
458.429653	26943.187780
458.802628	27522.950720
459.175542	27632.379046
459.548398	28921.840665
459.921194	30474.253910
460.293930	31139.792082
460.666607	33135.221926
461.039224	34896.749794
461.411782	35275.171569
461.784280	34091.649798
462.156719	33590.022223
462.529099	33024.734957
462.901419	31740.286766
463.273680	30692.490501
463.645882	30787.755706
464.018024	30759.321077
464.390106	31585.016707
464.762130	34240.159670
465.134094	38268.298692
465.505999	43536.700192
465.877845	48126.489287
466.249631	49277.740112
466.621358	47533.263947
466.993026	45395.234983
467.364634	43304.577742
467.736184	41358.765455
468.107674	40126.223504
468.479105	39355.466369
468.850477	38659.151953
469.221790	37236.545899
469.593043	35533.132453
469.964238	34656.637116
470.335373	34565.472890
470.706449	36227.042238
471.077467	38723.499761
471.448425	43282.905822
471.819324	46144.521844
472.190164	44356.061612
472.560945	40827.231234
472.931667	37743.365863
473.302330	36635.862171
473.672934	35815.926060
474.043479	36311.458880
474.413965	35538.748298
474.784393	35166.869941
475.154761	36057.228451
475.525070	36083.016473
475.895321	35629.602493
476.265513	36223.077371
476.635645	37179.575819
477.005719	36996.201328
477.375734	37449.927859
477.745691	38128.893144
478.115588	39450.270308
478.485427	41404.410582
478.855207	44728.277727
479.224928	47334.355139
479.594591	48976.183330
479.964194	47953.272721
480.333739	48091.806149
480.703226	48101.190257
481.072653	48748.514740
481.442022	49256.060630
481.811333	49508.869454
482.180584	48228.897807
482.549777	47694.419553
482.918912	47178.154987
483.287988	46898.010507
483.657005	46051.691517
484.025964	45410.255101
484.394864	45424.929900
484.763706	45002.256876
485.132489	44121.375736
485.501213	43984.450435
485.869879	44118.895488
486.238487	43716.644178
486.607036	43914.534673
486.975527	43370.815983
487.343959	43574.213938
487.712333	43663.147454
488.080648	43572.857868
488.448905	44034.819124
488.817104	43821.152339
489.185244	44770.225168
489.553326	46406.810558
489.921350	49146.165996
490.289315	52058.589287
490.657222	52700.431516
491.025070	52983.865349
491.392861	52091.374431
491.760593	50800.390384
492.128267	49109.783989
492.495883	47568.937672
492.863440	46183.913420
493.230939	44841.484398
493.598380	43768.563022
493.965763	43440.111684
494.333088	42638.318686
494.700354	42165.899556
495.067563	41880.350958
495.434713	41750.284148
495.801805	41825.067144
496.168839	41445.995060
496.535815	41121.327108
496.902733	41149.658393
497.269593	40752.791036
497.636395	40686.983814
498.003139	41078.247928
498.369825	40545.254294
498.736453	40856.270801
499.103023	40369.368436
499.469535	40253.253019
499.835989	40355.409481
500.202385	40024.750118
500.568723	40056.688348
500.935003	40235.041851
501.301226	40035.260924
501.667390	40655.489205
502.033497	40899.881823
502.399546	40337.281492
502.765537	39659.205970
503.131470	40033.201613
503.497345	40387.783771
503.863163	39070.293337
504.228923	39661.358543
504.594625	40079.479405
504.960269	39360.547852
505.325856	40057.174820
505.691385	39419.678066
506.056856	39550.173374
506.422270	39986.238223
506.787625	39567.305736
507.152924	39760.928893
507.518164	39874.390143
507.883347	39103.002864
508.248472	39346.820790
508.613540	39814.060134
508.978550	40106.971337
509.343503	39878.148323
509.708398	40060.055839
510.073236	40557.557230
510.438016	40584.096384
510.802738	40027.517712
511.167403	40649.732207
511.532010	40900.590105
511.896561	41188.480319
512.261053	42017.772812
512.625488	41556.517317
512.989866	41445.972375
513.354186	41285.144444
513.718449	41270.056270
514.082655	41960.293576
514.446803	41623.554581
514.810894	42144.643531
515.174927	42086.198913
515.538904	41962.010088
515.902822	42622.867549
516.266684	42097.120573
516.630488	42511.074921
516.994235	42372.130639
517.357925	42923.277468
517.721558	43085.902571
518.085133	43397.708019
518.448651	43551.939600
518.812112	43317.039475
519.175516	43410.104216
519.538863	43743.236265
519.902152	43715.262902
520.265385	44177.861864
520.628560	44208.234816
520.991678	44007.564126
521.354739	44227.214761
521.717743	44545.301486
522.080690	44464.738806
522.443580	44998.360064
522.806413	45053.827880
523.169189	44988.348333
523.531908	45187.781420
523.894569	45043.818669
524.257174	45207.825048
524.619722	45502.803124
524.982213	45494.144942
525.344647	45419.624086
525.707025	45456.225383
526.069345	45848.457399
526.431608	45772.391429
526.793815	46096.996366
527.155964	45639.632642
527.518057	45810.099260
527.880093	45586.879488
528.242072	46104.144722
528.603995	45811.770402
528.965860	45820.741135
529.327669	45900.572848
529.689421	45809.731255
530.051117	45775.746317
530.412755	45915.101453
530.774337	45977.490773
531.135862	45801.700697
531.497331	45992.049625
531.858743	45891.954995
532.220098	46246.985817
532.581396	45957.875643
532.942638	45622.941382
533.303824	45906.647438
533.664953	45872.914557
534.026025	45596.394666
534.387040	46077.071206
534.747999	46015.763213
535.108902	46175.104004
535.469748	45712.336163
535.830537	45831.743454
536.191270	46036.038734
536.551947	45675.765113
536.912567	45998.066243
537.273131	46094.349760
537.633638	45586.037615
537.994089	45930.555110
538.354483	45526.549479
538.714821	46097.379494
539.075103	46470.795403
539.435328	46216.829634
539.795497	46091.156189
540.155609	46107.991123
540.515665	46567.396514
540.875665	46028.242589
541.235609	46335.498396
541.595496	46300.727037
541.955328	46961.614745
542.315102	46341.454519
542.674821	46140.211658
543.034483	46167.960689
543.394090	46137.786863
543.753640	46088.615448
544.113134	47101.269830
544.472571	46116.377082
544.831953	47361.640385
545.191278	46577.241887
545.550548	46300.411965
545.909761	46762.358098
546.268918	46950.347766
546.628019	47256.973428
546.987064	46810.501117
547.346053	46105.873838
547.704986	46970.096486
548.063863	46539.319808
548.422684	46741.583503
548.781449	46573.753409
549.140158	46979.082343
549.498811	46823.373703
549.857408	46266.174969
550.215949	47087.625947
550.574434	47032.533697
550.932864	46793.714075
551.291237	47503.271602
551.649555	47121.293293
552.007817	47352.193262
552.366022	47017.243877
552.724173	47175.715069
553.082267	47573.464628
553.440305	47863.641005
553.798288	47192.237451
554.156215	47495.135180
554.514086	47712.476966
554.871902	47452.784446
555.229661	47470.010069
555.587365	47289.577090
555.945014	47392.086433
556.302606	47306.686767
556.660143	47539.378866
557.017625	47616.906771
557.375050	47406.448681
557.732421	47745.995598
558.089735	47734.748784
558.446994	47652.814910
558.804197	48126.955594
559.161345	48050.430879
559.518437	47318.714960
559.875474	47615.170094
560.232455	47760.713247
560.589381	47944.974981
560.946251	47641.686563
561.303065	48326.590327
561.659825	48125.342425
562.016528	47795.930747
562.373177	47519.352883
562.729770	48000.107560
563.086307	47515.566976
563.442789	47954.613668
563.799216	48023.793422
564.155587	47789.079819
564.511904	47821.552412
564.868164	47930.469061
565.224370	48168.686266
565.580520	47898.276253
565.936615	48112.782390
566.292654	47832.242178
566.648638	48068.218590
567.004567	48019.763019
567.360441	48058.174091
567.716260	47910.720341
568.072023	48197.284731
568.427732	48192.006643
568.783385	47734.968074
569.138982	48139.392121
569.494525	48110.241648
569.850013	47863.235192
570.205445	47839.040174
570.560823	47805.970205
570.916145	47669.977518
571.271412	47695.447948
571.626625	47454.500959
571.981782	47510.848456
572.336884	47186.666976
572.691931	47500.229266
573.046923	47121.522665
573.401860	46969.794017
573.756743	46945.488093
574.111570	47062.521001
574.466342	46916.934998
574.821059	47034.933286
575.175722	46555.874957
575.530330	46570.806854
575.884882	46295.695966
576.239380	46260.400327
576.593823	46229.404793
576.948211	46168.948755
577.302544	45679.283838
577.656823	45706.201079
578.011047	45926.973370
578.365216	45616.818901
578.719330	45435.420541
579.073389	45294.046423
579.427394	45395.252627
579.781344	45353.804260
580.135239	45002.282082
580.489080	45077.054997
580.842866	44557.445626
581.196597	45026.338468
581.550273	44965.063243
581.903895	44841.209655
582.257463	45251.310041
582.610975	44633.846833
582.964434	44916.020378
583.317837	44557.455708
583.671186	44395.674999
584.024481	44631.747192
584.377721	44153.303883
584.730906	44433.317294
585.084037	44471.473788
585.437113	44166.030276
585.790135	44196.919947
586.143103	43807.410153
586.496016	43937.426552
586.848874	43963.091067
587.201679	43964.978979
587.554428	43459.857884
587.907124	43650.279909
588.259765	43382.657654
588.612352	43649.458201
588.964884	43032.579766
589.317362	43323.512316
589.669786	43272.989873
590.022155	43040.086044
590.374470	43462.743944
590.726731	42982.379956
591.078937	42498.771985
591.431090	42608.137298
591.783188	42262.414967
592.135232	41935.970008
592.487222	42172.432891
592.839157	42268.608024
593.191038	41943.335134
593.542866	41703.466952
593.894639	41113.949380
594.246358	41395.452452
594.598022	41372.759698
594.949633	40973.356640
595.301190	40941.615015
595.652692	40764.738571
596.004141	41086.132293
596.355535	40128.494544
596.706876	40069.583620
597.058162	39898.249924
597.409395	40355.258247
597.760573	40441.310743
598.111698	40020.994458
598.462768	40027.202639
598.813785	40062.876365
599.164748	39518.910659
599.515657	39927.009707
599.866511	39388.085155
600.217312	39997.384214
600.568060	38971.317843
600.918753	39716.155885
601.269392	39665.121764
601.619978	39312.850975
601.970510	39523.170434
602.320988	39702.592661
602.671412	40008.719249
603.021783	39767.915933
603.372100	39432.170045
603.722363	39529.522288
604.072572	39592.745919
604.422728	39609.646387
604.772830	39427.398593
605.122878	39509.506386
605.472872	39439.807393
605.822813	39722.928676
606.172701	39554.760824
606.522534	39786.479982
606.872314	40057.028626
607.222041	39804.527312
607.571714	40199.766377
607.921333	39653.723716
608.270899	39938.435482
608.620411	40276.538109
608.969870	40066.052292
609.319276	40073.654352
609.668627	40120.642947
610.017926	40593.583836
610.367171	40765.918201
610.716362	40844.479542
611.065500	40783.216920
611.414585	40978.864101
611.763616	41258.406164
612.112594	41204.690149
612.461518	41415.075143
612.810389	41685.371730
613.159207	41565.172978
613.507971	41634.120839
613.856682	42125.766930
614.205340	42000.466531
614.553945	42693.957901
614.902496	42151.938080
615.250994	42616.606436
615.599439	42686.244935
615.947830	42900.355342
616.296169	42943.855458
616.644454	43074.615428
616.992686	43226.533119
617.340864	43749.565434
617.688990	43481.207170
618.037063	44063.347014
618.385082	44032.606057
618.733048	44356.815264
619.080961	44363.255338
619.428821	44368.437644
619.776628	44487.393752
620.124382	44312.574098
620.472083	44434.726297
620.819731	44556.883537
621.167326	44246.764355
621.514868	44216.625817
621.862357	43774.874547
622.209793	43798.749451
622.557176	43468.284172
622.904506	43232.708533
623.251783	42893.131368
623.599007	42669.609127
623.946179	42437.368211
624.293297	42384.509192
624.640363	41802.820532
624.987376	41796.748463
625.334336	41550.195710
625.681243	41212.130892
626.028097	41162.029385
626.374899	41010.653617
626.721647	40976.645993
627.068343	40876.211085
627.414987	40646.463019
627.761577	40422.338360
628.108115	40747.134861
628.454600	40205.846008
628.801032	40387.382999
629.147412	40364.982632
629.493739	40358.741684
629.840014	40008.323518
630.186236	40336.129588
630.532405	39956.255961
630.878521	40153.097895
631.224585	40043.699815
631.570597	39754.289694
631.916556	39929.305952
632.262462	39883.691072
632.608316	39892.974357
632.954117	39782.379003
633.299866	39770.905337
633.645562	39682.342346
633.991206	39190.396307
634.336797	38770.105228
634.682336	38776.212586
635.027823	38515.441259
