Dividing Wavelength (nm)	Counts (n)	Blue Motor Position (mm): 25.800000	Red Motor Position (mm): 0.000000	
326.493990	1972.830352
326.888308	1972.830352
327.282561	1972.830352
327.676750	1949.149532
328.070874	1950.777824
328.464933	1953.152208
328.858929	1964.522530
329.252859	1976.825466
329.646726	1990.739051
330.040528	2006.545589
330.434265	2024.257683
330.827938	2044.545807
331.221547	2063.535833
331.615091	2081.653740
332.008571	2106.609972
332.401986	2126.577983
332.795338	2149.243010
333.188625	2168.777481
333.581847	2184.445388
333.975006	2202.989272
334.368100	2221.651623
334.761129	2238.809191
335.154095	2251.137332
335.546996	2290.163425
335.939833	2362.143540
336.332606	2375.101826
336.725315	2387.818137
337.117960	2397.721483
337.510540	2402.253481
337.903056	2415.610018
338.295508	2416.618248
338.687896	2427.098807
339.080220	2431.509817
339.472480	2438.544747
339.864676	2443.422063
340.256807	2447.023968
340.648875	2446.615634
341.040879	2452.488579
341.432818	2450.951027
341.824694	2451.790379
342.216506	2454.442026
342.608253	2449.821808
342.999937	2450.739298
343.391557	2449.098403
343.783113	2449.229473
344.174605	2444.397527
344.566033	2446.983639
344.957397	2446.015737
345.348697	2440.909048
345.739934	2441.030036
346.131106	2437.745724
346.522215	2435.885538
346.913260	2434.113573
347.304241	2433.543922
347.695159	2430.970413
348.086012	2428.860691
348.476802	2428.575865
348.867528	2430.574683
349.258191	2426.030083
349.648789	2422.155956
350.039324	2423.973292
350.429796	2423.905236
350.820203	2423.380956
351.210548	2423.927922
351.600828	2420.260482
351.991045	2421.568662
352.381198	2418.662436
352.771288	2420.162180
353.161314	2418.153280
353.551276	2417.281160
353.941175	2419.627817
354.331010	2421.523291
354.720782	2421.556059
355.110490	2421.324166
355.500135	2419.189237
355.889717	2419.746284
356.279235	2420.625966
356.668689	2420.061357
357.058080	2419.489186
357.447408	2421.747623
357.836672	2418.289391
358.225873	2418.964906
358.615010	2417.674370
359.004084	2421.782911
359.393095	2421.417427
359.782043	2423.116296
360.170927	2422.672674
360.559748	2424.419434
360.948505	2423.582602
361.337199	2428.901020
361.725830	2428.769950
362.114398	2432.366813
362.502903	2430.622574
362.891344	2429.153078
363.279722	2427.360947
363.668037	2432.036618
364.056289	2427.113931
364.444478	2430.970413
364.832603	2431.386309
365.220665	2431.903027
365.608665	2431.862698
365.996601	2433.226330
366.384474	2432.238264
366.772284	2433.294385
367.160031	2430.809097
367.547715	2435.144489
367.935336	2431.184663
368.322893	2434.985692
368.710388	2433.977462
369.097820	2438.741352
369.485189	2436.608944
369.872495	2439.895776
370.259738	2437.836465
370.646918	2438.302772
371.034035	2438.161619
371.421090	2440.493153
371.808081	2437.896959
372.195010	2436.699685
372.581875	2440.026846
372.968678	2438.758996
373.355418	2436.666917
373.742096	2440.215890
374.128710	2440.145313
374.515262	2441.597166
374.901751	2440.999789
375.288177	2440.316713
375.674540	2440.304110
376.060841	2444.211004
376.447079	2442.058431
376.833254	2439.331167
377.219367	2438.690941
377.605417	2439.545416
377.991404	2439.772268
378.377329	2440.720005
378.763191	2441.967691
379.148991	2445.720830
379.534727	2448.231324
379.920402	2446.865172
380.306013	2446.293001
380.691563	2448.311983
381.077049	2446.862651
381.462474	2445.937599
381.847835	2447.003803
382.233134	2447.346602
382.618371	2447.959102
383.003545	2446.154369
383.388657	2448.143104
383.773706	2448.397682
384.158693	2448.223763
384.543618	2452.627210
384.928480	2449.932714
385.313280	2449.128650
385.698017	2451.926490
386.082692	2450.462035
386.467305	2450.688887
386.851856	2456.440843
387.236344	2453.960596
387.620770	2452.465893
388.005133	2453.131326
388.389435	2453.244752
388.773674	2452.685184
389.157851	2456.161059
389.541965	2452.856583
389.926018	2453.658126
390.310008	2457.257510
390.693936	2456.735751
391.077802	2454.668878
391.461606	2455.573765
391.845348	2456.503858
392.229027	2453.282560
392.612645	2456.834053
392.996200	2457.570062
393.379694	2457.746502
393.763125	2462.459981
394.146494	2460.693057
394.529801	2459.841102
394.913047	2460.821606
395.296230	2463.100207
395.679351	2461.025773
396.062410	2461.683643
396.445408	2461.315639
396.828343	2461.479477
397.211217	2460.604836
397.594028	2460.682974
397.976778	2458.893365
398.359466	2459.790690
398.742092	2456.879424
399.124656	2461.739096
399.507158	2463.059878
399.889598	2464.731021
400.271977	2465.073819
400.654294	2466.203038
401.036549	2465.194807
401.418742	2465.923254
401.800874	2466.578604
402.182944	2464.252111
402.564952	2468.968111
402.946898	2466.835703
403.328783	2466.813017
403.710606	2468.050621
404.092367	2468.219499
404.474067	2469.333594
404.855705	2468.098512
405.237282	2467.680096
405.618797	2467.745631
406.000250	2469.915847
406.381642	2471.571867
406.762972	2472.522124
407.144240	2473.772330
407.525447	2472.154120
407.906593	2470.697226
408.287677	2474.034470
408.668700	2471.735704
409.049661	2475.738380
409.430560	2473.300982
409.811399	2474.251240
410.192176	2472.915334
410.572891	2472.242340
410.953545	2479.269708
411.334138	2477.223000
411.714669	2476.224852
412.095139	2475.478761
412.475547	2474.790643
412.855894	2478.044708
413.236180	2474.881384
413.616405	2480.671149
413.996568	2475.141003
414.376670	2479.791468
414.756711	2477.268370
415.136691	2477.527990
415.516609	2479.289873
415.896466	2482.669967
416.276262	2482.738022
416.655997	2480.197281
417.035670	2475.589666
417.415283	2484.270533
417.794834	2478.667291
418.174324	2485.651809
418.553753	2485.056953
418.933121	2482.622076
419.312428	2485.180461
419.691674	2483.542086
420.070859	2484.507467
420.449983	2484.386480
420.829045	2483.945379
421.208047	2488.857983
421.586988	2488.547952
421.965867	2490.408138
422.344686	2487.108703
422.723444	2489.447798
423.102141	2487.980822
423.480777	2490.393014
423.859352	2488.331182
424.237866	2491.547439
424.616319	2493.926863
424.994712	2494.771257
425.373044	2493.820999
425.751314	2497.589262
426.129524	2493.795793
426.507673	2494.806545
426.885762	2493.717655
427.263789	2497.087667
427.641756	2498.539519
428.019662	2498.075733
428.397508	2494.942656
428.775292	2498.892400
429.153016	2497.896772
429.530679	2498.970538
429.908282	2499.532626
430.285824	2500.321567
430.663305	2499.651093
431.040726	2503.086640
431.418086	2503.862977
431.795385	2506.106291
432.172624	2505.017402
432.549802	2507.638802
432.926920	2505.710560
433.303977	2509.130983
433.680974	2508.810870
434.057910	2508.722650
434.434786	2508.253823
434.811601	2510.537465
435.188355	2516.357477
435.565050	2511.870850
435.941683	2513.794051
436.318257	2516.859072
436.694770	2512.090141
437.071222	2518.041223
437.447614	2516.808661
437.823946	2517.713548
438.200218	2520.239166
438.576429	2524.297295
438.952580	2525.744106
439.328670	2527.508510
439.704700	2526.028931
440.080670	2525.434075
440.456580	2529.938346
440.832429	2529.948428
441.208218	2530.016484
441.583947	2537.313554
441.959616	2535.864222
442.335224	2538.399922
442.710773	2540.267670
443.086261	2544.913093
443.461689	2543.078113
443.837057	2546.380069
444.212365	2548.903167
444.587612	2555.570093
444.962800	2559.492110
445.337927	2561.049827
445.712995	2561.501010
446.088002	2570.254974
446.462949	2577.284863
446.837837	2582.086562
447.212664	2588.874475
447.587431	2610.037239
447.962139	2633.299644
448.336786	2651.704896
448.711374	2654.530463
449.085901	2644.874133
449.460369	2653.486944
449.834776	2665.731907
450.209124	2698.849767
450.583412	2709.005172
450.957640	2727.556618
451.331808	2735.440982
451.705917	2736.061044
452.079965	2753.702562
452.453954	2777.123763
452.827883	2799.887093
453.201752	2823.600681
453.575562	2847.825946
453.949311	2892.959396
454.323001	2925.346289
454.696632	2956.871144
455.070202	3020.273736
455.443713	3062.140519
455.817164	3117.434415
456.190556	3175.155627
456.563888	3208.243240
456.937160	3262.846498
457.310373	3273.074999
457.683526	3333.475584
458.056619	3392.015983
458.429653	3448.461782
458.802628	3536.465205
459.175542	3613.710805
459.548398	3748.291969
459.921194	3908.305754
460.293930	4043.668296
460.666607	4253.027416
461.039224	4462.439467
461.411782	4589.534517
461.784280	4613.916058
462.156719	4675.098021
462.529099	4739.360130
462.901419	4753.021657
463.273680	4790.280825
463.645882	4906.502106
464.018024	5031.406775
464.390106	5234.671139
464.762130	5635.546214
465.134094	6239.138687
465.505999	7003.886767
465.877845	7723.491314
466.249631	8046.745222
466.621358	7998.738314
466.993026	7911.170951
467.364634	7819.177455
467.736184	7766.721729
468.107674	7805.314282
468.479105	7887.190182
468.850477	7978.170406
469.221790	7954.098897
469.593043	7872.906073
469.964238	7916.338134
470.335373	8085.156294
470.706449	8586.937624
471.077467	9277.200135
471.448425	10374.092197
471.819324	11179.537512
472.190164	11037.795389
472.560945	10537.087825
472.931667	10114.850861
473.302330	10100.927194
473.672934	10130.412903
474.043479	10467.391352
474.413965	10506.440130
474.784393	10632.181630
475.154761	11069.968033
475.525070	11303.784310
475.895321	11414.646845
476.265513	11793.852520
476.635645	12298.038481
477.005719	12510.487827
477.375734	12898.371848
477.745691	13366.430380
478.115588	14021.281306
478.485427	14930.488690
478.855207	16341.432034
479.224928	17590.514011
479.594591	18518.164456
479.964194	18459.747565
480.333739	18841.420885
480.703226	19203.816832
481.072653	19823.798097
481.442022	20377.236130
481.811333	20841.244095
482.180584	20642.176491
482.549777	20768.401942
482.918912	20878.909076
483.287988	21083.912638
483.657005	21061.759288
484.025964	21104.273859
484.394864	21438.091505
484.763706	21577.996127
485.132489	21488.770224
485.501213	21728.565310
485.869879	22134.995736
486.238487	22249.258529
486.607036	22670.136902
486.975527	22720.233368
487.343959	23134.041523
487.712333	23505.420806
488.080648	23769.501650
488.448905	24324.777185
488.817104	24535.991448
489.185244	25389.826799
489.553326	26663.960789
489.921350	28643.145516
490.289315	30862.364783
490.657222	31644.726654
491.025070	32192.195961
491.392861	31921.549014
491.760593	31410.489440
492.128267	30631.522786
492.495883	29954.488263
492.863440	29375.849501
493.230939	28811.048706
493.598380	28413.785619
493.965763	28497.771242
494.333088	28258.460107
494.700354	28206.218630
495.067563	28290.340364
495.434713	28484.596186
495.801805	28789.465006
496.168839	28794.443146
496.535815	28814.549788
496.902733	29096.902294
497.269593	29079.787577
497.636395	29257.644526
498.003139	29795.694437
498.369825	29645.137857
498.736453	30096.812639
499.103023	29985.854322
499.469535	30131.473092
499.835989	30431.520048
500.202385	30403.765976
500.568723	30652.899799
500.935003	31020.563752
501.301226	31073.710116
501.667390	31761.033635
502.033497	32168.817610
502.399546	31935.066868
502.765537	31602.658225
503.131470	32104.585749
503.497345	32575.951277
503.863163	31705.631354
504.228923	32402.840575
504.594625	32927.707869
504.960269	32518.393903
505.325856	33266.876700
505.691385	32915.616662
506.056856	33206.445868
506.422270	33747.853188
506.787625	33562.910898
507.152924	33882.782192
507.518164	34139.913805
507.883347	33621.254692
508.248472	33989.561392
508.613540	34553.071651
508.978550	34969.239066
509.343503	34891.559926
509.708398	35213.041869
510.073236	35803.015665
510.438016	35957.900076
510.802738	35598.453204
511.167403	36289.061034
511.532010	36618.616384
511.896561	36999.410022
512.261053	37883.121771
512.625488	37589.978675
512.989866	37604.242619
513.354186	37565.617299
513.718449	37660.748913
514.082655	38390.876868
514.446803	38187.672998
514.810894	38775.990775
515.174927	38791.638517
515.538904	38805.451278
515.902822	39514.577787
516.266684	39096.877862
516.630488	39569.836395
516.994235	39511.580821
517.357925	40119.866609
517.721558	40359.248320
518.085133	40720.192415
518.448651	40924.732191
518.812112	40763.198498
519.175516	40938.723913
519.538863	41316.699546
519.902152	41338.116888
520.265385	41825.609068
520.628560	41922.273193
520.991678	41784.500979
521.354739	42042.973540
521.717743	42391.760892
522.080690	42354.945346
522.443580	42925.523302
522.806413	43035.954819
523.169189	43007.540355
523.531908	43223.296698
523.894569	43128.470074
524.257174	43326.370651
524.619722	43651.542718
524.982213	43663.124769
525.344647	43627.317453
525.707025	43709.321902
526.069345	44117.824243
526.431608	44065.865070
526.793815	44402.515844
527.155964	43956.046054
527.518057	44150.795909
527.880093	43969.437879
528.242072	44499.984033
528.603995	44226.561931
528.965860	44252.105458
529.327669	44382.242844
529.689421	44282.518739
530.051117	44267.186069
530.412755	44418.357670
530.774337	44499.101832
531.135862	44332.489176
531.497331	44536.454261
531.858743	44471.188963
532.220098	44813.339636
532.581396	44546.438266
532.942638	44213.641454
533.303824	44521.887847
533.664953	44512.604562
534.026025	44242.675979
534.387040	44700.306884
534.747999	44666.135423
535.108902	44826.290360
535.469748	44369.188776
535.830537	44501.992933
536.191270	44712.289707
536.551947	44375.338984
536.912567	44670.324622
537.273131	44804.313450
537.633638	44304.130165
537.994089	44662.301626
538.354483	44271.881904
538.714821	44842.616137
539.075103	45180.635585
539.435328	44973.885262
539.795497	44857.265730
540.155609	44863.466349
540.515665	45306.898844
540.875665	44784.214370
541.235609	45108.272342
541.595496	45076.482826
541.955328	45752.652791
542.315102	45147.089226
542.674821	44933.767760
543.034483	44983.017313
543.394090	44954.237365
543.753640	44926.352223
544.113134	45901.737354
544.472571	44943.751765
544.831953	46166.637386
545.191278	45406.713691
545.550548	45136.059182
545.909761	45588.895949
546.268918	45792.404810
546.628019	46094.616942
546.987064	45682.878181
547.346053	44971.031969
547.704986	45820.484037
548.063863	45411.696871
548.422684	45612.218848
548.781449	45446.984948
549.140158	45843.065885
549.498811	45698.094903
549.857408	45143.636036
550.215949	45964.393855
550.574434	45898.027065
550.932864	45702.508434
551.291237	46399.901657
551.649555	46017.658687
552.007817	46242.786535
552.366022	45911.693633
552.724173	46085.719305
553.082267	46490.874319
553.440305	46772.488296
553.798288	46105.344517
554.156215	46407.302071
554.514086	46615.733617
554.871902	46365.478138
555.229661	46387.525624
555.587365	46212.922740
555.945014	46307.991340
556.302606	46253.657784
556.660143	46467.052347
557.017625	46544.749130
557.375050	46337.121647
557.732421	46705.088069
558.089735	46681.646704
558.446994	46596.680577
558.804197	47054.941626
559.161345	46998.115219
559.518437	46282.596527
559.875474	46571.628562
560.232455	46733.963799
560.589381	46902.048471
560.946251	46607.082998
561.303065	47274.078063
561.659825	47086.474043
562.016528	46779.810572
562.373177	46503.504930
562.729770	46962.365877
563.086307	46500.606267
563.442789	46945.702343
563.799216	46993.638674
564.155587	46796.138870
564.511904	46820.275914
564.868164	46912.256807
565.224370	47160.460538
565.580520	46874.138122
565.936615	47115.818600
566.292654	46838.590426
566.648638	47059.405567
567.004567	47026.827111
567.360441	47054.679486
567.716260	46918.817869
568.072023	47204.426961
568.427732	47188.209569
568.783385	46764.495547
569.138982	47144.603588
569.494525	47114.613764
569.850013	46879.476704
570.205445	46851.967128
570.560823	46811.741241
570.916145	46672.560024
571.271412	46724.289824
571.626625	46481.109604
571.981782	46546.132927
572.336884	46230.856645
572.691931	46534.409724
573.046923	46155.647671
573.401860	46006.500093
573.756743	45981.987482
574.111570	46103.043230
574.466342	45943.382326
574.821059	46069.431337
575.175722	45606.013187
575.530330	45614.169774
575.884882	45337.657445
576.239380	45319.947871
576.593823	45296.453574
576.948211	45207.867898
577.302544	44742.065282
577.656823	44778.827897
578.011047	44996.283109
578.365216	44721.325975
578.719330	44517.801992
579.073389	44380.191095
579.427394	44465.701667
579.781344	44443.205518
580.135239	44119.034120
580.489080	44192.776118
580.842866	43687.523953
581.196597	44128.385460
581.550273	44076.605248
581.903895	43935.808342
582.257463	44361.334659
582.610975	43764.953556
582.964434	44041.891863
583.317837	43689.784911
583.671186	43529.158626
584.024481	43769.450265
584.377721	43284.186275
584.730906	43593.766053
585.084037	43607.104947
585.437113	43331.676465
585.790135	43378.324782
586.143103	42978.916683
586.496016	43084.206223
586.848874	43124.003612
587.201679	43139.172444
587.554428	42629.335349
587.907124	42817.725789
588.259765	42581.525046
588.612352	42852.865152
588.964884	42239.066863
589.317362	42525.129658
589.669786	42465.886018
590.022155	42243.258582
590.374470	42668.530321
590.726731	42199.022457
591.078937	41718.338356
591.431090	41802.235758
591.783188	41469.587660
592.135232	41164.391165
592.487222	41394.471947
592.839157	41484.103663
593.191038	41176.041272
593.542866	40942.741713
593.894639	40349.591990
594.246358	40622.772117
594.598022	40598.453590
594.949633	40205.498169
595.301190	40168.133136
595.652692	40021.743070
596.004141	40342.796514
596.355535	39373.191066
596.706876	39315.101850
597.058162	39155.856841
597.409395	39608.229823
597.760573	39687.630516
598.111698	39269.025704
598.462768	39290.243920
598.813785	39327.573665
599.164748	38796.233529
599.515657	39190.998725
599.866511	38660.477776
600.217312	39268.022514
600.568060	38253.729757
600.918753	38976.285900
601.269392	38944.498904
601.619978	38602.025597
601.970510	38806.134355
602.320988	38996.891616
602.671412	39288.134197
603.021783	39041.268894
603.372100	38693.293167
603.722363	38803.165115
604.072572	38870.656083
604.422728	38894.510823
604.772830	38694.727375
605.122878	38798.428951
605.472872	38754.230635
605.822813	39014.568422
606.172701	38850.811581
606.522534	39080.181560
606.872314	39346.309113
607.222041	39104.149726
607.571714	39498.569603
607.921333	38944.826579
608.270899	39244.402188
608.620411	39567.567876
608.969870	39366.327535
609.319276	39377.967559
609.668627	39420.852655
610.017926	39907.084546
610.367171	40068.313249
610.716362	40158.940592
611.065500	40099.898598
611.414585	40287.328698
611.763616	40595.736408
612.112594	40522.831242
612.461518	40732.641544
612.810389	41003.790086
613.159207	40891.284135
613.507971	40957.293003
613.856682	41434.826384
614.205340	41301.901239
614.553945	42010.221163
614.902496	41461.433594
615.250994	41921.259921
615.599439	42004.794361
615.947830	42214.297153
616.296169	42267.075513
616.644454	42386.540777
616.992686	42555.847929
617.340864	43077.246910
617.688990	42808.639109
618.037063	43397.760951
618.385082	43374.735481
618.733048	43670.164740
619.080961	43689.636197
619.428821	43689.306001
619.776628	43793.788956
620.124382	43614.538128
620.472083	43747.498561
620.819731	43863.316550
621.167326	43545.020616
621.514868	43531.384295
621.862357	43095.523613
622.209793	43119.148981
622.557176	42782.881334
622.904506	42536.547872
623.251783	42189.847557
623.599007	41985.690909
623.946179	41754.407811
624.293297	41719.460012
624.640363	41115.834771
624.987376	41092.927768
625.334336	40875.563297
625.681243	40526.455831
626.028097	40497.202015
626.374899	40335.262510
626.721647	40314.432462
627.068343	40215.388913
627.414987	39981.134055
627.761577	39771.230491
628.108115	40088.780334
628.454600	39548.199763
628.801032	39743.438610
629.147412	39696.540756
629.493739	39703.648783
629.840014	39359.877378
630.186236	39709.710770
630.532405	39326.673819
630.878521	39542.972086
631.224585	39426.468500
631.570597	39137.875045
631.916556	39296.532760
632.262462	39240.371785
632.608316	39259.659240
632.954117	39170.226650
633.299866	39141.688678
633.645562	39077.459337
633.991206	38585.712423
634.336797	38153.153697
634.682336	38145.712954
635.027823	37907.911645
635.373257	37732.797084
635.718639	37478.518763
636.063968	37352.167283
636.409245	36779.915663
636.754470	36817.525191
637.099642	36596.664680
637.444762	36136.553527
