Dividing Wavelength (nm)	Counts (n)	Blue Motor Position (mm): 16.600000	Red Motor Position (mm): 0.000000	
326.493990	1977.579119
326.888308	1977.579119
327.282561	1977.579119
327.676750	1949.610797
328.070874	1953.404266
328.464933	1958.095059
328.858929	1969.220886
329.252859	1978.310086
329.646726	1994.804742
330.040528	2010.260919
330.434265	2032.454599
330.827938	2048.109902
331.221547	2067.039435
331.615091	2090.392580
332.008571	2107.275404
332.401986	2131.931688
332.795338	2149.129584
333.188625	2170.143634
333.581847	2189.441171
333.975006	2209.701568
334.368100	2226.891903
334.761129	2242.758935
335.154095	2257.869793
335.546996	2289.865997
335.939833	2346.029492
336.332606	2360.212778
336.725315	2369.811135
337.117960	2381.778834
337.510540	2387.561038
337.903056	2396.924981
338.295508	2402.382030
338.687896	2410.664646
339.080220	2417.190419
339.472480	2422.395411
339.864676	2425.823395
340.256807	2430.783891
340.648875	2432.036618
341.040879	2432.712132
341.432818	2432.606268
341.824694	2434.226999
342.216506	2435.502411
342.608253	2434.884869
342.999937	2433.450661
343.391557	2430.166349
343.783113	2431.938315
344.174605	2428.923705
344.566033	2425.694846
344.957397	2426.733324
345.348697	2421.893816
345.739934	2420.885585
346.131106	2419.698393
346.522215	2420.754515
346.913260	2413.825449
347.304241	2417.389545
347.695159	2411.274625
348.086012	2412.040881
348.476802	2412.166910
348.867528	2409.956364
349.258191	2407.133318
349.648789	2403.760786
350.039324	2403.609551
350.429796	2405.106774
350.820203	2403.589386
351.210548	2402.608882
351.600828	2399.911865
351.991045	2402.404715
352.381198	2402.102246
352.771288	2401.469581
353.161314	2404.645508
353.551276	2402.923954
353.941175	2397.716442
354.331010	2399.982441
354.720782	2405.852864
355.110490	2406.888822
355.500135	2401.270456
355.889717	2398.283572
356.279235	2402.676938
356.668689	2403.380178
357.058080	2401.913203
357.447408	2401.240209
357.836672	2399.647204
358.225873	2403.276835
358.615010	2400.269787
359.004084	2407.947464
359.393095	2406.006620
359.782043	2406.583832
360.170927	2408.242371
360.559748	2407.045097
360.948505	2407.955026
361.337199	2410.226065
361.725830	2408.741446
362.114398	2410.523493
362.502903	2409.497619
362.891344	2410.543658
363.279722	2409.671538
363.668037	2412.769327
364.056289	2413.540624
364.444478	2412.799574
364.832603	2411.806467
365.220665	2412.360994
365.608665	2414.536252
365.996601	2414.889133
366.384474	2413.797723
366.772284	2416.303176
367.160031	2415.829308
367.547715	2415.269740
367.935336	2414.725295
368.322893	2412.754204
368.710388	2415.955337
369.097820	2419.577406
369.485189	2419.068249
369.872495	2418.092786
370.259738	2415.869637
370.646918	2417.613876
371.034035	2415.642785
371.421090	2418.949782
371.808081	2417.717220
372.195010	2417.686973
372.581875	2418.153280
372.968678	2417.351736
373.355418	2418.796027
373.742096	2417.379463
374.128710	2420.305853
374.515262	2421.898857
374.901751	2418.826274
375.288177	2421.813157
375.674540	2415.476427
376.060841	2419.970616
376.447079	2419.965575
376.833254	2420.348702
377.219367	2419.133784
377.605417	2419.947931
377.991404	2416.777045
378.377329	2418.533887
378.763191	2416.958526
379.148991	2424.096800
379.534727	2421.377098
379.920402	2420.822571
380.306013	2423.391039
380.691563	2423.471697
381.077049	2422.581933
381.462474	2422.982705
381.847835	2422.723086
382.233134	2423.829619
382.618371	2423.877510
383.003545	2425.805751
383.388657	2423.963210
383.773706	2426.942532
384.158693	2425.873807
384.543618	2428.006215
384.928480	2427.292892
385.313280	2428.694332
385.698017	2424.321132
386.082692	2427.721390
386.467305	2427.549991
386.851856	2429.064857
387.236344	2428.676688
387.620770	2431.988727
388.005133	2430.365475
388.389435	2431.613161
388.773674	2427.996133
389.157851	2431.461926
389.541965	2427.396235
389.926018	2431.293047
390.310008	2428.280958
390.693936	2430.635177
391.077802	2431.280444
391.461606	2430.292378
391.845348	2429.727769
392.229027	2430.219282
392.612645	2433.513676
392.996200	2433.223809
393.379694	2431.905547
393.763125	2432.671803
394.146494	2434.463933
394.529801	2435.608275
394.913047	2433.591813
395.296230	2436.243460
395.679351	2434.093408
396.062410	2434.073244
396.445408	2434.942843
396.828343	2436.165322
397.211217	2430.642738
397.594028	2435.751948
397.976778	2430.630136
398.359466	2434.655497
398.742092	2433.269180
399.124656	2434.531989
399.507158	2435.701536
399.889598	2435.991403
400.271977	2438.910231
400.654294	2441.050201
401.036549	2437.060127
401.418742	2438.489294
401.800874	2438.338060
402.182944	2439.283276
402.564952	2436.813111
402.946898	2434.995775
403.328783	2437.828903
403.710606	2436.182967
404.092367	2440.404933
404.474067	2439.316044
404.855705	2439.605910
405.237282	2439.943667
405.618797	2439.220262
406.000250	2440.440221
406.381642	2439.681527
406.762972	2441.062803
407.144240	2439.124480
407.525447	2444.218566
407.906593	2440.510797
408.287677	2442.035746
408.668700	2441.730756
409.049661	2444.238730
409.430560	2443.134718
409.811399	2441.907197
410.192176	2442.928030
410.572891	2441.980293
410.953545	2442.733946
411.334138	2444.047167
411.714669	2441.554316
412.095139	2441.072886
412.475547	2445.776282
412.855894	2446.421550
413.236180	2442.781837
413.616405	2440.974583
413.996568	2444.904163
414.376670	2443.207814
414.756711	2444.314348
415.136691	2443.948864
415.516609	2442.796960
415.896466	2444.243772
416.276262	2446.096396
416.655997	2444.745366
417.035670	2441.453493
417.415283	2445.688062
417.794834	2437.317226
418.174324	2445.801488
418.553753	2446.724019
418.933121	2444.737805
419.312428	2445.897270
419.691674	2447.838114
420.070859	2446.676128
420.449983	2448.934565
420.829045	2446.098916
421.208047	2445.294852
421.586988	2447.994390
421.965867	2448.324586
422.344686	2446.305603
422.723444	2446.887857
423.102141	2447.442384
423.480777	2447.714606
423.859352	2448.097734
424.237866	2449.930193
424.616319	2447.888526
424.994712	2447.578495
425.373044	2449.458845
425.751314	2449.047991
426.129524	2448.047322
426.507673	2449.166458
426.885762	2447.633948
427.263789	2447.349122
427.641756	2451.019082
428.019662	2448.412806
428.397508	2452.901953
428.775292	2448.334668
429.153016	2452.284412
429.530679	2449.189143
429.908282	2450.038578
430.285824	2450.739298
430.663305	2450.517488
431.040726	2450.956068
431.418086	2450.540173
431.795385	2452.382714
432.172624	2452.218877
432.549802	2454.162242
432.926920	2454.091666
433.303977	2453.574947
433.680974	2454.101748
434.057910	2450.918259
434.434786	2455.919084
434.811601	2454.598302
435.188355	2452.957406
435.565050	2452.559155
435.941683	2456.859259
436.318257	2453.385904
436.694770	2452.629731
437.071222	2451.056891
437.447614	2449.819288
437.823946	2453.239711
438.200218	2453.781635
438.576429	2457.297839
438.952580	2455.457818
439.328670	2456.952520
439.704700	2456.723148
440.080670	2455.344392
440.456580	2455.462859
440.832429	2458.114506
441.208218	2456.357664
441.583947	2457.658282
441.959616	2458.968982
442.335224	2458.860597
442.710773	2457.239866
443.086261	2460.367902
443.461689	2460.221709
443.837057	2456.864300
444.212365	2460.539301
444.587612	2461.918057
444.962800	2460.430917
445.337927	2459.513427
445.712995	2457.943107
446.088002	2460.672892
446.462949	2462.107100
446.837837	2459.344548
447.212664	2459.866307
447.587431	2462.780094
447.962139	2466.324025
448.336786	2465.484673
448.711374	2469.184880
449.085901	2465.663634
449.460369	2462.936370
449.834776	2470.525827
450.209124	2469.971300
450.583412	2471.166054
450.957640	2470.235961
451.331808	2471.266877
451.705917	2467.332256
452.079965	2468.322843
452.453954	2467.206227
452.827883	2470.934161
453.201752	2467.294447
453.575562	2467.496094
453.949311	2469.835189
454.323001	2472.519603
454.696632	2471.292083
455.070202	2472.121352
455.443713	2473.789974
455.817164	2470.707309
456.190556	2470.021712
456.563888	2472.103708
456.937160	2466.785291
457.310373	2473.442135
457.683526	2470.465333
458.056619	2477.137300
458.429653	2474.462968
458.802628	2476.176961
459.175542	2474.291569
459.548398	2477.112095
459.921194	2482.165851
460.293930	2481.853300
460.666607	2483.345481
461.039224	2483.481592
461.411782	2487.259937
461.784280	2485.598877
462.156719	2486.186172
462.529099	2484.046202
462.901419	2486.609628
463.273680	2484.197436
463.645882	2484.129381
464.018024	2484.119298
464.390106	2485.286326
464.762130	2489.142808
465.134094	2494.937615
465.505999	2499.421721
465.877845	2506.854902
466.249631	2509.115860
466.621358	2506.978411
466.993026	2506.991013
467.364634	2505.047649
467.736184	2502.496825
468.107674	2497.987513
468.479105	2500.281238
468.850477	2497.949704
469.221790	2498.421052
469.593043	2494.219250
469.964238	2499.086484
470.335373	2494.990547
470.706449	2497.243943
471.077467	2503.222751
471.448425	2510.194667
471.819324	2515.346726
472.190164	2517.315297
472.560945	2508.825993
472.931667	2507.800119
473.302330	2504.737618
473.672934	2506.784326
474.043479	2503.454644
474.413965	2506.292814
474.784393	2503.618482
475.154761	2504.541013
475.525070	2504.752741
475.895321	2505.831548
476.265513	2506.965808
476.635645	2515.921418
477.005719	2510.212311
477.375734	2518.026099
477.745691	2520.660102
478.115588	2522.726975
478.485427	2531.085208
478.855207	2535.392874
479.224928	2542.321940
479.594591	2548.121788
479.964194	2548.126829
480.333739	2549.036757
480.703226	2551.552293
481.072653	2557.084959
481.442022	2557.992367
481.811333	2561.208623
482.180584	2559.398849
482.549777	2561.266596
482.918912	2560.396997
483.287988	2563.383881
483.657005	2563.419169
484.025964	2561.027142
484.394864	2565.039900
484.763706	2567.941084
485.132489	2569.340004
485.501213	2571.739593
485.869879	2571.669017
486.238487	2574.897876
486.607036	2577.468865
486.975527	2576.637074
487.343959	2579.664287
487.712333	2584.319793
488.080648	2586.374063
488.448905	2587.649475
488.817104	2589.920515
489.185244	2596.476535
489.553326	2605.679162
489.921350	2619.018055
490.289315	2632.127575
490.657222	2639.117135
491.025070	2642.598052
491.392861	2641.869605
491.760593	2645.078300
492.128267	2638.086219
492.495883	2636.853657
492.863440	2631.320991
493.230939	2628.291257
493.598380	2629.828809
493.965763	2627.905609
494.333088	2633.304685
494.700354	2626.458798
495.067563	2633.924747
495.434713	2631.147071
495.801805	2640.223668
496.168839	2639.737197
496.535815	2642.860192
496.902733	2645.894967
497.269593	2647.598877
497.636395	2651.256234
498.003139	2656.461225
498.369825	2653.678508
498.736453	2661.618325
499.103023	2659.876607
499.469535	2666.319201
499.835989	2666.878769
500.202385	2669.845488
500.568723	2671.448575
500.935003	2676.691375
501.301226	2676.630882
501.667390	2685.137829
502.033497	2692.255938
502.399546	2689.236287
502.765537	2687.844928
503.131470	2696.472863
503.497345	2702.169367
503.863163	2699.888245
504.228923	2704.478215
504.594625	2711.296376
504.960269	2711.687065
505.325856	2719.810885
505.691385	2718.948847
506.056856	2725.938407
506.422270	2731.508882
506.787625	2731.924777
507.152924	2737.157495
507.518164	2744.915831
507.883347	2743.902559
508.248472	2750.123343
508.613540	2758.189189
508.978550	2767.051537
509.343503	2771.994389
509.708398	2777.154010
510.073236	2789.449384
510.438016	2795.957514
510.802738	2799.110755
511.167403	2808.015954
511.532010	2818.068014
511.896561	2826.716114
512.261053	2844.319823
512.625488	2844.498784
512.989866	2849.509691
513.354186	2857.252903
513.718449	2864.353368
514.082655	2887.522512
514.446803	2891.386556
514.810894	2908.080337
515.174927	2919.929569
515.538904	2925.399221
515.902822	2945.762962
516.266684	2952.492902
516.630488	2968.100315
516.994235	2982.669249
517.357925	3000.709018
517.721558	3017.120495
518.085133	3037.138917
518.448651	3052.521998
518.812112	3067.569842
519.175516	3085.413006
519.538863	3104.312292
519.902152	3124.512195
520.265385	3149.876761
520.628560	3170.300995
520.991678	3189.051567
521.354739	3211.464537
521.717743	3239.755492
522.080690	3259.804161
522.443580	3297.610295
522.806413	3324.484686
523.169189	3346.270032
523.531908	3376.343035
523.894569	3400.560738
524.257174	3431.818413
524.619722	3466.632621
524.982213	3501.277951
525.344647	3532.127292
525.707025	3564.685584
526.069345	3611.351545
526.431608	3640.070999
526.793815	3682.787216
527.155964	3712.270404
527.518057	3751.891353
527.880093	3786.705561
528.242072	3845.278728
528.603995	3875.008933
528.965860	3919.025767
529.327669	3963.193837
529.689421	4006.661186
530.051117	4054.060635
530.412755	4106.793625
530.774337	4158.727592
531.135862	4199.361812
531.497331	4256.271398
531.858743	4302.191268
532.220098	4369.369685
532.581396	4413.925923
532.942638	4458.507367
533.303824	4530.333727
533.664953	4584.584104
534.026025	4633.596722
534.387040	4714.257704
534.747999	4775.689205
535.108902	4848.158312
535.469748	4885.762799
535.830537	4954.214107
536.191270	5032.137743
536.551947	5082.347635
536.912567	5164.430222
537.273131	5243.820834
537.633638	5284.976814
537.994089	5373.282706
538.354483	5422.938071
538.714821	5536.926121
539.075103	5637.991173
539.435328	5703.135484
539.795497	5772.864724
540.155609	5849.039079
540.515665	5966.772707
540.875665	6005.844170
541.235609	6115.751406
541.595496	6195.164702
541.955328	6341.393452
542.315102	6368.391351
542.674821	6440.164779
543.034483	6528.652153
543.394090	6616.171625
543.753640	6703.582712
544.113134	6889.394601
544.472571	6891.403501
544.831953	7106.418795
545.191278	7126.669110
545.550548	7190.384253
545.909761	7343.784044
546.268918	7470.369938
546.628019	7609.251206
546.987064	7659.143506
547.346053	7681.402720
547.704986	7883.973926
548.063863	7945.508770
548.422684	8081.645130
548.781449	8173.079058
549.140158	8332.830703
549.498811	8428.005167
549.857408	8465.155950
550.215949	8690.548459
550.574434	8799.792783
550.932864	8886.011638
551.291237	9109.044887
551.649555	9179.757152
552.007817	9334.702056
552.366022	9409.782481
552.724173	9556.744719
553.082267	9754.368032
553.440305	9937.596330
553.798288	9961.655237
554.156215	10147.257918
554.514086	10319.985493
554.871902	10412.019318
555.229661	10549.027798
555.587365	10659.499643
555.945014	10816.624847
556.302606	10945.817017
556.660143	11137.763991
557.017625	11300.608383
557.375050	11409.449416
557.732421	11631.497119
558.089735	11774.141608
558.446994	11911.926425
558.804197	12169.365549
559.161345	12312.645224
559.518437	12304.208853
559.875474	12533.893904
560.232455	12737.637178
560.589381	12950.310856
560.946251	13040.008107
561.303065	13381.294222
561.659825	13492.436541
562.016528	13581.450715
562.373177	13684.673381
562.729770	13974.075941
563.086307	14029.657183
563.442789	14324.920084
563.799216	14511.694834
564.155587	14632.559018
564.511904	14817.902080
564.868164	15014.338202
565.224370	15282.341064
565.580520	15390.796447
565.936615	15631.945083
566.292654	15735.775208
566.648638	15994.867831
567.004567	16181.682910
567.360441	16378.784463
567.716260	16527.934562
568.072023	16832.047209
568.427732	17020.727515
568.783385	17071.239876
569.138982	17399.776914
569.494525	17598.829394
569.850013	17706.722689
570.205445	17910.682733
570.560823	18092.673428
570.916145	18262.404036
571.271412	18467.006827
571.626625	18582.575279
571.981782	18818.682760
572.336884	18894.191683
572.691931	19229.224247
573.046923	19268.825031
573.401860	19415.139481
573.756743	19617.438464
574.111570	19867.325939
574.466342	20000.954325
574.821059	20266.360993
575.175722	20262.857391
575.530330	20487.345013
575.884882	20560.754295
576.239380	20749.532904
576.593823	20941.547933
576.948211	21119.293977
577.302544	21107.787543
577.656823	21326.641675
578.011047	21630.784569
578.365216	21719.450904
578.719330	21827.177841
579.073389	21967.425261
579.427394	22211.003733
579.781344	22400.949369
580.135239	22444.515020
580.489080	22686.326567
580.842866	22638.367550
581.196597	23065.154155
581.550273	23241.256783
581.903895	23371.636145
582.257463	23821.198683
582.610975	23687.318240
582.964434	24042.747312
583.317837	24060.776999
583.671186	24178.845863
584.024481	24508.711244
584.377721	24439.145842
584.730906	24791.920747
585.084037	25009.819581
585.437113	25056.430089
585.790135	25262.502376
586.143103	25238.572019
586.496016	25505.173440
586.848874	25714.998866
587.201679	25920.267089
587.554428	25805.724512
587.907124	26112.622396
588.259765	26157.712997
588.612352	26498.729410
588.964884	26315.012120
589.317362	26697.008073
589.669786	26831.785842
590.022155	26882.550261
590.374470	27328.886461
590.726731	27199.522892
591.078937	27083.087361
591.431090	27326.199526
591.783188	27278.732022
592.135232	27256.228311
592.487222	27602.101876
592.839157	27835.943359
593.191038	27792.264282
593.542866	27801.529922
593.894639	27568.437051
594.246358	27914.512262
594.598022	28071.032528
594.949633	27971.810017
595.301190	28108.876469
595.652692	28162.796651
596.004141	28551.273007
596.355535	28018.478499
596.706876	28152.053952
597.058162	28195.604480
597.409395	28669.205761
597.760573	28887.722136
598.111698	28721.737104
598.462768	28896.695390
598.813785	29068.981863
599.164748	28816.727566
599.515657	29261.672408
599.866511	29015.437248
600.217312	29604.740571
600.568060	28988.220058
600.918753	29681.537508
601.269392	29795.225610
601.619978	29666.512349
601.970510	29950.745206
602.320988	30217.717152
602.671412	30594.929050
603.021783	30528.630316
603.372100	30390.686702
603.722363	30611.224580
604.072572	30794.740224
604.422728	30942.698090
604.772830	30904.380279
605.122878	31092.274165
605.472872	31169.497081
605.822813	31524.202747
606.172701	31505.111898
606.522534	31802.144244
606.872314	32131.291261
607.222041	32050.801678
607.571714	32490.617146
607.921333	32144.519249
608.270899	32507.497449
608.620411	32866.909033
608.969870	32824.853207
609.319276	32939.368058
609.668627	33083.928186
610.017926	33594.544138
610.367171	33840.799462
610.716362	34010.605689
611.065500	34065.332455
611.414585	34317.410312
611.763616	34679.763409
612.112594	34713.471084
612.461518	34978.305581
612.810389	35329.595866
613.159207	35309.161549
613.507971	35470.110468
613.856682	35968.171427
614.205340	35953.980579
614.553945	36646.574623
614.902496	36262.723525
615.250994	36753.976406
615.599439	36889.948928
615.947830	37163.751638
616.296169	37310.512229
616.644454	37499.106835
616.992686	37722.344251
617.340864	38262.113196
617.688990	38105.212324
618.037063	38707.796567
618.385082	38735.729600
618.733048	39070.978934
619.080961	39151.733177
619.428821	39241.823638
619.776628	39417.490205
620.124382	39309.375099
620.472083	39516.589208
620.819731	39717.726205
621.167326	39490.977625
621.514868	39563.134181
621.862357	39207.493380
622.209793	39311.653701
622.557176	39088.252448
622.904506	38923.958723
623.251783	38678.477216
623.599007	38538.902789
623.946179	38400.623939
624.293297	38404.795494
624.640363	37918.588809
624.987376	37981.699014
625.334336	37804.850296
625.681243	37524.395784
626.028097	37563.507576
626.374899	37479.191757
626.721647	37509.040429
627.068343	37451.873744
627.414987	37290.576986
627.761577	37135.009499
628.108115	37472.340829
628.454600	37016.875100
628.801032	37238.227124
629.147412	37234.925168
629.493739	37292.175032
629.840014	37001.287852
630.186236	37368.672021
630.532405	37042.368215
630.878521	37284.608260
631.224585	37203.992648
631.570597	36971.376166
631.916556	37141.610890
632.262462	37144.088617
632.608316	37180.233690
632.954117	37128.831565
633.299866	37152.703949
633.645562	37113.743391
633.991206	36694.851233
634.336797	36326.267270
634.682336	36357.504779
635.027823	36160.186456
635.373257	36040.869906
635.718639	35854.732862
636.063968	35741.011993
636.409245	35238.245117
636.754470	35312.186241
637.099642	35125.824866
637.444762	34691.849575
637.789829	34858.111870
638.134845	34563.489196
638.479808	34529.854617
638.824719	34462.547652
639.169577	34121.763131
639.514383	34223.828852
639.859137	33952.024960
640.203839	34197.153587
640.548489	33884.962491
640.893086	33971.791325
