Dividing Wavelength (nm)	Counts (n)	Blue Motor Position (mm): 14.400000	Red Motor Position (mm): 0.000000	
326.493990	1973.336988
326.888308	1973.336988
327.282561	1973.336988
327.676750	1949.845211
328.070874	1950.210695
328.464933	1959.912395
328.858929	1968.807511
329.252859	1980.540797
329.646726	1996.619557
330.040528	2008.302431
330.434265	2029.140040
330.827938	2047.094110
331.221547	2068.614796
331.615091	2088.625656
332.008571	2110.990735
332.401986	2129.895062
332.795338	2150.160500
333.188625	2171.635816
333.581847	2190.799762
333.975006	2204.824252
334.368100	2225.308981
334.761129	2240.823132
335.154095	2256.266706
335.546996	2288.099072
335.939833	2340.552278
336.332606	2357.974506
336.725315	2366.335259
337.117960	2375.585777
337.510540	2381.695655
337.903056	2393.582696
338.295508	2398.008829
338.687896	2405.026115
339.080220	2411.861920
339.472480	2420.053795
339.864676	2422.027407
340.256807	2428.021338
340.648875	2428.611153
341.040879	2429.901689
341.432818	2430.478901
341.824694	2429.422779
342.216506	2430.216761
342.608253	2430.962852
342.999937	2425.939342
343.391557	2429.160639
343.783113	2428.502769
344.174605	2424.147212
344.566033	2424.008580
344.957397	2420.452046
345.348697	2420.124371
345.739934	2417.387024
346.131106	2416.731674
346.522215	2412.237486
346.913260	2412.933165
347.304241	2413.845614
347.695159	2408.703637
348.086012	2406.011661
348.476802	2408.877557
348.867528	2402.787843
349.258191	2403.317164
349.648789	2401.288100
350.039324	2401.124262
350.429796	2403.173491
350.820203	2401.860271
351.210548	2399.246432
351.600828	2397.209806
351.991045	2396.904816
352.381198	2396.584703
352.771288	2400.070661
353.161314	2397.159395
353.551276	2394.840464
353.941175	2393.897768
354.331010	2396.667882
354.720782	2396.357851
355.110490	2400.655435
355.500135	2398.039076
355.889717	2395.710063
356.279235	2399.266597
356.668689	2397.981103
357.058080	2398.447409
357.447408	2398.447409
357.836672	2394.666544
358.225873	2399.763151
358.615010	2396.524209
359.004084	2401.280538
359.393095	2399.914385
359.782043	2405.852864
360.170927	2403.617113
360.559748	2402.422359
360.948505	2401.857750
361.337199	2403.352452
361.725830	2405.348749
362.114398	2404.887483
362.502903	2406.180539
362.891344	2406.321692
363.279722	2406.561147
363.668037	2405.948646
364.056289	2407.045097
364.444478	2406.886301
364.832603	2410.430232
365.220665	2406.760272
365.608665	2410.422670
365.996601	2410.163051
366.384474	2411.196487
366.772284	2410.689852
367.160031	2410.243709
367.547715	2408.688513
367.935336	2407.836558
368.322893	2408.983421
368.710388	2410.097516
369.097820	2414.362332
369.485189	2409.921076
369.872495	2414.493402
370.259738	2413.550706
370.646918	2415.156314
371.034035	2413.185223
371.421090	2414.556417
371.808081	2413.890984
372.195010	2410.316806
372.581875	2411.080541
372.968678	2414.735377
373.355418	2413.044070
373.742096	2415.274781
374.128710	2412.602969
374.515262	2414.632034
374.901751	2416.663619
375.288177	2414.773186
375.674540	2416.406520
376.060841	2417.603794
376.447079	2415.826787
376.833254	2414.813515
377.219367	2414.926941
377.605417	2417.603794
377.991404	2409.389234
378.377329	2414.576581
378.763191	2414.742939
379.148991	2416.918197
379.534727	2419.761408
379.920402	2420.255441
380.306013	2417.666808
380.691563	2420.434402
381.077049	2419.176634
381.462474	2419.277457
381.847835	2418.740574
382.233134	2421.553538
382.618371	2418.397776
383.003545	2422.173600
383.388657	2420.820050
383.773706	2417.427354
384.158693	2420.066398
384.543618	2420.935997
384.928480	2418.186047
385.313280	2421.251069
385.698017	2419.370718
386.082692	2420.164700
386.467305	2419.663105
386.851856	2424.081677
387.236344	2423.617891
387.620770	2425.024372
388.005133	2423.471697
388.389435	2423.280133
388.773674	2422.034968
389.157851	2425.609146
389.541965	2428.011256
389.926018	2425.437747
390.310008	2423.373395
390.693936	2424.283323
391.077802	2425.185689
391.461606	2424.452202
391.845348	2425.044537
392.229027	2428.089394
392.612645	2428.026380
392.996200	2426.766091
393.379694	2428.412028
393.763125	2428.470001
394.146494	2426.556883
394.529801	2429.742892
394.913047	2428.646442
395.296230	2429.284148
395.679351	2428.838005
396.062410	2430.534354
396.445408	2429.967224
396.828343	2431.187183
397.211217	2424.623601
397.594028	2431.938315
397.976778	2427.408838
398.359466	2430.728438
398.742092	2424.152253
399.124656	2432.394539
399.507158	2431.983685
399.889598	2432.276072
400.271977	2429.684919
400.654294	2435.083995
401.036549	2434.584921
401.418742	2433.206165
401.800874	2433.218768
402.182944	2431.076278
402.564952	2433.841351
402.946898	2432.316402
403.328783	2432.013932
403.710606	2432.886052
404.092367	2431.875301
404.474067	2434.738676
404.855705	2433.342276
405.237282	2435.406629
405.618797	2433.463264
406.000250	2434.151382
406.381642	2434.552153
406.762972	2435.018460
407.144240	2432.742379
407.525447	2438.028029
407.906593	2436.324119
408.287677	2434.763882
408.668700	2437.455858
409.049661	2437.614654
409.430560	2434.852102
409.811399	2436.266146
410.192176	2436.540888
410.572891	2437.302103
410.953545	2436.314037
411.334138	2437.594490
411.714669	2435.890580
412.095139	2439.210179
412.475547	2438.373348
412.855894	2437.586928
413.236180	2437.234047
413.616405	2440.162958
413.996568	2439.626075
414.376670	2438.005344
414.756711	2437.546599
415.136691	2441.302258
415.516609	2438.600200
415.896466	2438.212031
416.276262	2439.056424
416.655997	2438.501897
417.035670	2433.997626
417.415283	2437.614654
417.794834	2436.235899
418.174324	2441.254367
418.553753	2439.585745
418.933121	2439.716815
419.312428	2441.418205
419.691674	2439.489963
420.070859	2440.281425
420.449983	2443.963987
420.829045	2442.144131
421.208047	2442.486929
421.586988	2443.477516
421.965867	2441.924841
422.344686	2440.843513
422.723444	2443.442228
423.102141	2441.869388
423.480777	2441.317382
423.859352	2440.593976
424.237866	2444.021961
424.616319	2443.001127
424.994712	2444.543720
425.373044	2440.931733
425.751314	2442.116405
426.129524	2442.340736
426.507673	2443.248144
426.885762	2442.620520
427.263789	2443.711930
427.641756	2444.957095
428.019662	2443.719492
428.397508	2444.919286
428.775292	2445.055397
429.153016	2444.246292
429.530679	2444.251333
429.908282	2443.984152
430.285824	2443.283432
430.663305	2444.153031
431.040726	2442.020623
431.418086	2445.378031
431.795385	2446.512291
432.172624	2446.093875
432.549802	2446.441715
432.926920	2446.850048
433.303977	2445.194029
433.680974	2444.289142
434.057910	2444.861313
434.434786	2445.917435
434.811601	2448.470779
435.188355	2449.093362
435.565050	2447.308793
435.941683	2447.495316
436.318257	2446.855089
436.694770	2443.590942
437.071222	2445.551951
437.447614	2443.222938
437.823946	2442.653287
438.200218	2450.658640
438.576429	2446.441715
438.952580	2447.336519
439.328670	2447.114709
439.704700	2449.942796
440.080670	2445.483895
440.456580	2449.859617
440.832429	2449.708382
441.208218	2448.735440
441.583947	2451.934052
441.959616	2448.589246
442.335224	2450.199895
442.710773	2450.376335
443.086261	2452.549073
443.461689	2444.039605
443.837057	2449.123608
444.212365	2451.813064
444.587612	2451.170317
444.962800	2453.073352
445.337927	2450.638475
445.712995	2447.376849
446.088002	2453.423713
446.462949	2453.247272
446.837837	2454.338682
447.212664	2454.331120
447.587431	2453.816923
447.962139	2455.866152
448.336786	2461.487038
448.711374	2459.702470
449.085901	2456.219033
449.460369	2457.073508
449.834776	2460.146091
450.209124	2458.343879
450.583412	2459.178190
450.957640	2459.780608
451.331808	2459.944445
451.705917	2457.678447
452.079965	2457.897737
452.453954	2458.953858
452.827883	2459.218519
453.201752	2457.423868
453.575562	2458.943776
453.949311	2461.219857
454.323001	2458.911009
454.696632	2460.191462
455.070202	2461.373612
455.443713	2461.938222
455.817164	2464.020218
456.190556	2461.388736
456.563888	2462.389405
456.937160	2459.546194
457.310373	2463.707667
457.683526	2464.320167
458.056619	2464.781432
458.429653	2464.562142
458.802628	2463.926957
459.175542	2464.461319
459.548398	2469.124386
459.921194	2467.294448
460.293930	2470.606486
460.666607	2469.492391
461.039224	2472.895169
461.411782	2475.992958
461.784280	2473.295941
462.156719	2471.269397
462.529099	2475.524131
462.901419	2472.466671
463.273680	2472.572536
463.645882	2469.865436
464.018024	2471.468523
464.390106	2475.695530
464.762130	2477.356591
465.134094	2478.299286
465.505999	2485.747591
465.877845	2490.410658
466.249631	2491.013076
466.621358	2491.607933
466.993026	2489.140288
467.364634	2492.142295
467.736184	2484.870430
468.107674	2486.352530
468.479105	2484.235245
468.850477	2483.433702
469.221790	2481.321458
469.593043	2479.075624
469.964238	2480.280460
470.335373	2480.290542
470.706449	2483.468990
471.077467	2484.646099
471.448425	2491.340751
471.819324	2494.057933
472.190164	2491.847387
472.560945	2489.420072
472.931667	2487.895123
473.302330	2484.467138
473.672934	2484.109216
474.043479	2486.470997
474.413965	2481.139977
474.784393	2480.214925
475.154761	2484.749443
475.525070	2479.501602
475.895321	2480.950933
476.265513	2481.321458
476.635645	2486.939824
477.005719	2483.700883
477.375734	2485.959320
477.745691	2489.505771
478.115588	2491.910402
478.485427	2495.887872
478.855207	2498.322749
479.224928	2501.914572
479.594591	2505.796260
479.964194	2504.457834
480.333739	2508.122753
480.703226	2505.685355
481.072653	2508.702485
481.442022	2508.594100
481.811333	2515.145080
482.180584	2511.127280
482.549777	2511.971673
482.918912	2513.491581
483.287988	2512.856396
483.657005	2513.715913
484.025964	2514.593073
484.394864	2516.942251
484.763706	2517.464011
485.132489	2515.250944
485.501213	2519.583816
485.869879	2518.787313
486.238487	2525.706297
486.607036	2524.365350
486.975527	2525.371060
487.343959	2525.595392
487.712333	2528.418438
488.080648	2524.846780
488.448905	2532.834489
488.817104	2534.198121
489.185244	2536.401105
489.553326	2543.809081
489.921350	2551.708569
490.289315	2561.324570
490.657222	2568.377144
491.025070	2565.705332
491.392861	2571.331260
491.760593	2569.395457
492.128267	2571.197669
492.495883	2568.137689
492.863440	2566.090981
493.230939	2566.297668
493.598380	2566.416135
493.965763	2564.503017
494.333088	2566.083419
494.700354	2567.573080
495.067563	2572.067268
495.434713	2567.797411
495.801805	2575.737228
496.168839	2577.426015
496.535815	2583.455235
496.902733	2582.948599
497.269593	2589.171903
497.636395	2587.750298
498.003139	2591.861359
498.369825	2593.663572
498.736453	2598.056937
499.103023	2598.934098
499.469535	2602.566249
499.835989	2603.831579
500.202385	2606.087495
500.568723	2608.240068
500.935003	2612.298197
501.301226	2615.890019
501.667390	2620.424537
502.033497	2625.926956
502.399546	2627.628346
502.765537	2626.599950
503.131470	2631.731845
503.497345	2635.409367
503.863163	2634.141516
504.228923	2641.010088
504.594625	2643.339102
504.960269	2645.660553
505.325856	2652.599701
505.691385	2650.704227
506.056856	2654.868220
506.422270	2658.996925
506.787625	2659.155722
507.152924	2663.927174
507.518164	2665.923471
507.883347	2668.426404
508.248472	2670.697443
508.613540	2676.169616
508.978550	2685.531039
509.343503	2686.251924
509.708398	2691.209898
510.073236	2696.666947
510.438016	2700.362113
510.802738	2696.578727
511.167403	2705.126004
511.532010	2707.122301
511.896561	2712.750749
512.261053	2722.467573
512.625488	2719.813405
512.989866	2720.246945
513.354186	2720.549414
513.718449	2720.977912
514.082655	2736.360993
514.446803	2732.592730
514.810894	2741.356776
515.174927	2743.002713
515.538904	2742.972466
515.902822	2753.165679
516.266684	2752.999321
516.630488	2755.653489
516.994235	2759.603233
517.357925	2765.403080
517.721558	2767.958945
518.085133	2772.422887
518.448651	2778.487395
518.812112	2779.293980
519.175516	2781.950668
519.538863	2785.892850
519.902152	2790.278654
520.265385	2796.771660
520.628560	2802.873977
520.991678	2799.398101
521.354739	2804.628298
521.717743	2810.196253
522.080690	2811.600214
522.443580	2819.960968
522.806413	2823.678819
523.169189	2827.242914
523.531908	2832.417659
523.894569	2836.548884
524.257174	2838.209945
524.619722	2845.849813
524.982213	2850.258302
525.344647	2851.541276
525.707025	2860.088552
526.069345	2865.981661
526.431608	2870.102804
526.793815	2875.920296
527.155964	2877.349463
527.518057	2882.516646
527.880093	2889.150804
528.242072	2897.856877
528.603995	2898.413924
528.965860	2905.227044
529.327669	2910.104360
529.689421	2913.668456
530.051117	2922.520722
530.412755	2932.108997
530.774337	2936.514965
531.135862	2941.503187
531.497331	2947.456790
531.858743	2951.666153
532.220098	2965.884728
532.581396	2968.385140
532.942638	2972.186170
533.303824	2984.335351
533.664953	2995.148626
534.026025	3002.783453
534.387040	3016.399610
534.747999	3027.638862
535.108902	3035.344266
535.469748	3042.721994
535.830537	3052.406051
536.191270	3070.783577
536.551947	3078.700709
536.912567	3093.483893
537.273131	3106.366562
537.633638	3112.922582
537.994089	3130.564100
538.354483	3139.716315
538.714821	3162.572907
539.075103	3183.309693
539.435328	3199.814431
539.795497	3210.668035
540.155609	3228.922053
540.515665	3252.025661
540.875665	3265.551077
541.235609	3286.227369
541.595496	3304.088177
541.955328	3337.684947
542.315102	3348.815815
542.674821	3365.217209
543.034483	3384.882750
543.394090	3408.170360
543.753640	3434.190276
544.113134	3475.366420
544.472571	3483.160044
544.831953	3533.347251
545.191278	3544.412584
545.550548	3567.339752
545.909761	3606.635546
546.268918	3642.120228
546.628019	3680.823687
546.987064	3699.596943
547.346053	3710.972307
547.704986	3771.430865
548.063863	3792.686890
548.422684	3833.121985
548.781449	3866.781770
549.140158	3914.256836
549.498811	3949.302937
549.857408	3970.160712
550.215949	4036.383829
550.574434	4074.154674
550.932864	4114.788895
551.291237	4183.633412
551.649555	4216.058114
552.007817	4273.280251
552.366022	4308.238132
552.724173	4362.516236
553.082267	4431.872431
553.440305	4497.800641
553.798288	4521.173950
554.156215	4592.954940
554.514086	4662.036392
554.871902	4706.206982
555.229661	4766.663019
555.587365	4817.278724
555.945014	4885.840937
556.302606	4938.881437
556.660143	5022.519221
557.017625	5089.536320
557.375050	5145.704856
557.732421	5234.230038
558.089735	5306.389115
558.446994	5367.898753
558.804197	5473.430268
559.161345	5542.620104
559.518437	5560.226334
559.875474	5658.808618
560.232455	5748.193317
560.589381	5838.803016
560.946251	5903.521349
561.303065	6032.511873
561.659825	6099.566781
562.016528	6162.540875
562.373177	6226.379527
562.729770	6353.015832
563.086307	6400.571557
563.442789	6533.390837
563.799216	6635.617876
564.155587	6707.030861
564.511904	6805.492157
564.868164	6910.890081
565.224370	7034.284925
565.580520	7110.645803
565.936615	7238.005513
566.292654	7311.523180
566.648638	7451.216074
567.004567	7554.030407
567.360441	7669.341760
567.716260	7767.329188
568.072023	7920.373577
568.427732	8033.746607
568.783385	8099.027028
569.138982	8263.794621
569.494525	8384.704176
569.850013	8475.182805
570.205445	8592.908871
570.560823	8719.401503
570.916145	8830.400149
571.271412	8961.588616
571.626625	9056.785765
571.981782	9189.723513
572.336884	9277.553016
572.691931	9457.865007
573.046923	9523.941931
573.401860	9643.286207
573.756743	9773.506772
574.111570	9929.651472
574.466342	10046.172702
574.821059	10203.688595
575.175722	10254.258929
575.530330	10398.546835
575.884882	10491.193160
576.239380	10626.036464
576.593823	10767.823957
576.948211	10898.437733
577.302544	10950.195259
577.656823	11109.901533
578.011047	11303.887654
578.365216	11404.108313
578.719330	11517.274655
579.073389	11628.570729
579.427394	11811.710807
579.781344	11963.888118
580.135239	12043.034234
580.489080	12219.696429
580.842866	12265.157555
581.196597	12549.188765
581.550273	12700.032691
581.903895	12837.159637
582.257463	13119.741516
582.610975	13141.920073
582.964434	13387.855284
583.317837	13468.221358
583.671186	13586.970778
584.024481	13823.965503
584.377721	13859.994629
584.730906	14109.700623
585.084037	14290.045382
585.437113	14378.505029
585.790135	14560.883893
586.143103	14607.557416
586.496016	14816.195650
586.848874	15001.533671
587.201679	15189.142732
587.554428	15196.333938
587.907124	15435.181287
588.259765	15537.491504
588.612352	15809.930581
588.964884	15770.102945
589.317362	16059.634055
589.669786	16219.446193
590.022155	16317.736090
590.374470	16640.112838
590.726731	16646.308416
591.078937	16648.153478
591.431090	16856.017895
591.783188	16901.456335
592.135232	16953.203780
592.487222	17223.573463
592.839157	17437.910722
593.191038	17484.075088
593.542866	17567.508705
593.894639	17500.763828
594.246358	17786.115821
594.598022	17956.834496
594.949633	17971.947875
595.301190	18120.246018
595.652692	18222.271411
596.004141	18543.556748
596.355535	18292.474519
596.706876	18439.298125
597.058162	18529.310447
597.409395	18901.334998
597.760573	19109.569940
598.111698	19097.347663
598.462768	19255.768443
598.813785	19439.379869
599.164748	19366.325988
599.515657	19706.954233
599.866511	19628.191245
600.217312	20097.321022
600.568060	19759.357027
600.918753	20287.954775
601.269392	20447.678694
601.619978	20436.625964
601.970510	20685.850528
602.320988	20951.773914
602.671412	21272.078747
603.021783	21303.727111
603.372100	21298.421296
603.722363	21516.836848
604.072572	21715.730532
604.422728	21885.095657
604.772830	21939.323349
605.122878	22147.966625
605.472872	22283.775309
605.822813	22581.389909
606.172701	22653.856495
606.522534	22966.566830
606.872314	23259.301593
607.222041	23289.175471
607.571714	23670.914325
607.921333	23507.815354
608.270899	23837.842052
608.620411	24192.903121
608.969870	24236.332661
609.319276	24386.864035
609.668627	24581.722276
610.017926	25007.823284
610.367171	25276.302535
610.716362	25483.403217
611.065500	25609.835356
611.414585	25886.546811
611.763616	26222.680867
612.112594	26324.920508
612.461518	26629.338145
612.810389	26947.873533
613.159207	27026.583588
613.507971	27209.022946
613.856682	27688.965998
614.205340	27751.257016
614.553945	28358.937865
614.902496	28146.584300
615.250994	28628.019534
615.599439	28808.354210
615.947830	29111.042731
616.296169	29288.188877
616.644454	29516.943835
616.992686	29779.986202
617.340864	30273.676480
617.688990	30222.445754
618.037063	30794.309206
618.385082	30906.058983
618.733048	31256.769536
619.080961	31399.182132
619.428821	31548.032282
619.776628	31755.687491
620.124382	31756.877203
620.472083	31992.999808
620.819731	32214.682028
621.167326	32107.227313
621.514868	32245.375093
621.862357	32044.399413
622.209793	32196.657382
622.557176	32088.741402
622.904506	32026.999870
623.251783	31883.460576
623.599007	31857.223891
623.946179	31807.891160
624.293297	31888.060629
624.640363	31557.484445
624.987376	31668.162978
625.334336	31596.306371
625.681243	31433.366196
626.028097	31520.394156
626.374899	31528.097039
626.721647	31598.521958
627.068343	31636.423873
627.414987	31552.057643
627.761577	31480.185913
628.108115	31829.527792
628.454600	31504.068379
628.801032	31743.797930
629.147412	31816.602273
629.493739	31922.302667
629.840014	31733.322412
630.186236	32107.391151
630.532405	31870.898021
630.878521	32142.709475
631.224585	32125.577113
631.570597	31969.893680
631.916556	32187.537935
632.262462	32254.020672
632.608316	32338.606193
632.954117	32321.940138
633.299866	32411.866761
633.645562	32424.981323
633.991206	32105.634309
634.336797	31836.577846
634.682336	31933.998144
635.027823	31809.907621
635.373257	31739.916241
635.718639	31623.432820
636.063968	31585.755236
636.409245	31175.120488
636.754470	31303.821145
637.099642	31176.426147
637.444762	30855.758350
637.789829	31038.601000
638.134845	30814.466259
638.479808	30830.865133
638.824719	30821.975058
639.169577	30555.776929
639.514383	30688.838185
639.859137	30484.063995
640.203839	30761.461047
640.548489	30496.455151
640.893086	30615.680960
641.237632	30471.899691
641.582125	30630.161675
