Dividing Wavelength (nm)	Counts (n)	Blue Motor Position (mm): 34.000000	Red Motor Position (mm): 0.000000	
326.493990	1969.246092
326.888308	1969.246092
327.282561	1969.246092
327.676750	1947.198605
328.070874	1947.317072
328.464933	1950.825715
328.858929	1963.085802
329.252859	1974.960239
329.646726	1988.737713
330.040528	2005.489467
330.434265	2023.688032
330.827938	2043.933306
331.221547	2064.584393
331.615091	2084.726323
332.008571	2105.077461
332.401986	2126.749382
332.795338	2145.341157
333.188625	2168.152378
333.581847	2186.847497
333.975006	2201.973479
334.368100	2220.144318
334.761129	2236.081926
335.154095	2251.003742
335.546996	2292.933539
335.939833	2372.435056
336.332606	2388.566748
336.725315	2400.242060
337.117960	2407.012330
337.510540	2413.167579
337.903056	2421.591347
338.295508	2430.821699
338.687896	2436.669438
339.080220	2443.845520
339.472480	2451.931531
339.864676	2451.515636
340.256807	2455.878755
340.648875	2458.454784
341.040879	2461.381174
341.432818	2460.803962
341.824694	2463.057358
342.216506	2459.586523
342.608253	2460.985443
342.999937	2459.082408
343.391557	2460.272120
343.783113	2456.922273
344.174605	2455.445215
344.566033	2451.699638
344.957397	2452.818774
345.348697	2449.781479
345.739934	2448.246448
346.131106	2450.131839
346.522215	2444.541200
346.913260	2446.073710
347.304241	2444.097578
347.695159	2443.434666
348.086012	2441.725715
348.476802	2440.110025
348.867528	2439.288317
349.258191	2436.167843
349.648789	2433.954777
350.039324	2433.178439
350.429796	2433.067533
350.820203	2434.111052
351.210548	2433.163315
351.600828	2429.621905
351.991045	2432.805393
352.381198	2429.528643
352.771288	2427.121492
353.161314	2429.263983
353.551276	2431.343459
353.941175	2426.723241
354.331010	2429.563932
354.720782	2431.978644
355.110490	2436.644232
355.500135	2431.514858
355.889717	2427.804569
356.279235	2432.495362
356.668689	2431.829930
357.058080	2432.361772
357.447408	2427.756678
357.836672	2430.736000
358.225873	2432.412183
358.615010	2430.799014
359.004084	2435.895621
359.393095	2433.601896
359.782043	2434.867225
360.170927	2436.407298
360.559748	2438.138934
360.948505	2437.871753
361.337199	2440.830910
361.725830	2441.745880
362.114398	2440.493153
362.502903	2442.948195
362.891344	2442.980962
363.279722	2444.147990
363.668037	2441.697989
364.056289	2442.222269
364.444478	2441.345108
364.832603	2444.006837
365.220665	2442.360901
365.608665	2444.531117
365.996601	2445.398196
366.384474	2446.315686
366.772284	2445.045315
367.160031	2445.798968
367.547715	2445.501539
367.935336	2446.814760
368.322893	2447.026488
368.710388	2448.092692
369.097820	2446.582867
369.485189	2450.575461
369.872495	2450.653599
370.259738	2449.589915
370.646918	2452.602005
371.034035	2448.886674
371.421090	2451.351798
371.808081	2449.768876
372.195010	2455.581327
372.581875	2451.223249
372.968678	2453.101079
373.355418	2450.363732
373.742096	2454.510081
374.128710	2453.993363
374.515262	2454.315997
374.901751	2456.037551
375.288177	2455.883796
375.674540	2455.039402
376.060841	2459.999898
376.447079	2456.997891
376.833254	2456.723148
377.219367	2453.564865
377.605417	2460.244394
377.991404	2456.886985
378.377329	2456.156018
378.763191	2457.045782
379.148991	2463.208592
379.534727	2460.872017
379.920402	2460.463684
380.306013	2460.355299
380.691563	2461.822275
381.077049	2464.541978
381.462474	2464.529375
381.847835	2464.554580
382.233134	2463.783284
382.618371	2465.144395
383.003545	2469.263018
383.388657	2468.698409
383.773706	2467.342338
384.158693	2466.639098
384.543618	2470.482977
384.928480	2468.617750
385.313280	2471.385344
385.698017	2470.409881
386.082692	2473.966415
386.467305	2474.473051
386.851856	2475.730818
387.236344	2475.582104
387.620770	2476.880202
388.005133	2474.699902
388.389435	2474.888946
388.773674	2477.122177
389.157851	2478.621920
389.541965	2477.343988
389.926018	2476.688638
390.310008	2477.666622
390.693936	2480.058649
391.077802	2479.506643
391.461606	2484.825060
391.845348	2481.502940
392.229027	2483.932776
392.612645	2482.685090
392.996200	2486.176089
393.379694	2486.972592
393.763125	2487.448981
394.146494	2484.262971
394.529801	2489.478045
394.913047	2485.926552
395.296230	2489.561224
395.679351	2491.129023
396.062410	2490.075422
396.445408	2490.882006
396.828343	2491.113899
397.211217	2489.624238
397.594028	2493.148005
397.976778	2489.220946
398.359466	2492.669095
398.742092	2489.898981
399.124656	2498.090856
399.507158	2495.598006
399.889598	2498.244612
400.271977	2502.451454
400.654294	2501.435662
401.036549	2503.298368
401.418742	2501.309633
401.800874	2506.799450
402.182944	2504.571260
402.564952	2507.280880
402.946898	2508.074862
403.328783	2512.364883
403.710606	2511.689369
404.092367	2514.797240
404.474067	2514.663650
404.855705	2518.847807
405.237282	2516.549041
405.618797	2516.964936
406.000250	2521.375946
406.381642	2528.594878
406.762972	2528.405835
407.144240	2524.541791
407.525447	2533.116793
407.906593	2531.425486
408.287677	2537.558050
408.668700	2539.123328
409.049661	2538.866229
409.430560	2546.566592
409.811399	2551.390976
410.192176	2556.762325
410.572891	2563.025959
410.953545	2573.113308
411.334138	2578.484657
411.714669	2588.007397
412.095139	2593.787080
412.475547	2611.773917
412.855894	2617.961933
413.236180	2637.168729
413.616405	2651.760349
413.996568	2673.074347
414.376670	2691.570341
414.756711	2711.649257
415.136691	2740.277969
415.516609	2770.587907
415.896466	2800.809624
416.276262	2847.576408
416.655997	2893.713048
417.035670	2934.432969
417.415283	3009.720081
417.794834	3060.358471
418.174324	3104.955039
418.553753	3157.798934
418.933121	3246.392172
419.312428	3303.170687
419.691674	3364.975233
420.070859	3476.130155
420.449983	3527.078577
420.829045	3657.057167
421.208047	3724.974112
421.586988	3859.701469
421.965867	3983.524810
422.344686	4085.751849
422.723444	4260.034619
423.102141	4205.653172
423.480777	4472.985561
423.859352	4526.736864
424.237866	4812.277900
424.616319	4902.302825
424.994712	5143.695957
425.373044	5246.084312
425.751314	5520.451630
426.129524	5496.405327
426.507673	5864.903590
426.885762	5967.450742
427.263789	6174.722823
427.641756	6375.796806
428.019662	6557.568211
428.397508	6732.836528
428.775292	6991.309088
429.153016	7161.107752
429.530679	7364.755244
429.908282	7561.148516
430.285824	7649.066239
430.663305	8066.917399
431.040726	8125.372098
431.418086	8248.940862
431.795385	8664.445364
432.172624	9022.032051
432.549802	9051.232934
432.926920	9323.475407
433.303977	9463.075039
433.680974	9766.948231
434.057910	10095.220608
434.434786	10310.344287
434.811601	10466.340272
435.188355	11160.570171
435.565050	11204.105575
435.941683	11379.681402
436.318257	12029.105526
436.694770	12138.087710
437.071222	12682.759177
437.447614	12373.091179
437.823946	12589.016401
438.200218	12888.070250
438.576429	12944.881533
438.952580	13315.340806
439.328670	13488.401097
439.704700	13930.928705
440.080670	13839.943440
440.456580	14402.692485
440.832429	14708.108270
441.208218	14230.098501
441.583947	14687.636144
441.959616	14938.710812
442.335224	15269.362613
442.710773	15529.150915
443.086261	16078.737507
443.461689	15786.753876
443.837057	16038.430962
444.212365	16674.206161
444.587612	16831.364132
444.962800	16667.957651
445.337927	17142.604971
445.712995	16306.764019
446.088002	17903.065549
446.462949	18205.139049
446.837837	18492.290734
447.212664	18613.704404
447.587431	21066.124927
447.962139	23667.428367
448.336786	25808.368597
448.711374	24665.944833
449.085901	21686.968229
449.460369	21755.512798
449.834776	21814.350625
450.209124	24099.488019
450.583412	23828.662111
450.957640	24415.044085
451.331808	23345.507844
451.705917	22224.655177
452.079965	22345.078261
452.453954	22755.186208
452.827883	22766.130553
453.201752	22665.468793
453.575562	22891.178895
453.949311	23983.493590
454.323001	24119.612305
454.696632	23977.381191
455.070202	25475.425591
455.443713	25679.645254
455.817164	26283.749405
456.190556	26844.915527
456.563888	26388.242442
456.937160	26837.401687
457.310373	25348.214594
457.683526	25805.011188
458.056619	25833.065210
458.429653	25820.986605
458.802628	26409.228765
459.175542	26561.499337
459.548398	27831.181989
459.921194	29372.522339
460.293930	30076.413610
460.666607	32063.797773
461.039224	33759.306690
461.411782	34164.766694
461.784280	33005.712163
462.156719	32539.503735
462.529099	32007.679648
462.901419	30789.633535
463.273680	29795.565888
463.645882	29911.421686
464.018024	29907.834905
464.390106	30735.662942
464.762130	33375.964749
465.134094	37355.431430
465.505999	42583.586878
465.877845	47100.120447
466.249631	48214.081856
466.621358	46452.153216
466.993026	44314.560313
467.364634	42264.108794
467.736184	40359.457528
468.107674	39149.255450
468.479105	38404.780371
468.850477	37721.666216
469.221790	36353.169387
469.593043	34682.097463
469.964238	33825.335723
470.335373	33744.042076
470.706449	35379.883896
471.077467	37877.941985
471.448425	42371.928993
471.819324	45218.686214
472.190164	43459.822596
472.560945	39951.398809
472.931667	36925.277334
473.302330	35838.286098
473.672934	35054.154782
474.043479	35537.838370
474.413965	34773.370074
474.784393	34425.308648
475.154761	35285.657169
475.525070	35333.356567
475.895321	34880.441661
476.265513	35454.256039
476.635645	36408.884219
477.005719	36224.680458
477.375734	36693.394340
477.745691	37378.953454
478.115588	38665.476080
478.485427	40605.533891
478.855207	43913.309672
479.224928	46505.856628
479.594591	48122.463926
479.964194	47082.489011
480.333739	47183.846450
480.703226	47217.070175
481.072653	47839.067901
481.442022	48348.191672
481.811333	48613.484913
482.180584	47329.777772
482.549777	46821.568970
482.918912	46300.233004
483.287988	46005.718714
483.657005	45199.338265
484.025964	44556.109720
484.394864	44554.904884
484.763706	44136.937778
485.132489	43270.300417
485.501213	43112.701345
485.869879	43248.673867
486.238487	42862.818910
486.607036	43074.257506
486.975527	42549.760736
487.343959	42734.501380
487.712333	42816.223525
488.080648	42725.722211
488.448905	43167.082792
488.817104	42985.230729
489.185244	43912.112398
489.553326	45560.657926
489.921350	48254.902599
490.289315	51206.667055
490.657222	51836.995288
491.025070	52132.081749
491.392861	51211.241902
491.760593	49892.876827
492.128267	48200.261533
492.495883	46668.587595
492.863440	45292.082893
493.230939	43955.305004
493.598380	42897.658325
493.965763	42579.009511
494.333088	41793.736373
494.700354	41323.512666
495.067563	41056.001316
495.434713	40934.184354
495.801805	40992.064362
496.168839	40636.126133
496.535815	40308.688067
496.902733	40332.101706
497.269593	39942.730545
497.636395	39877.452644
498.003139	40254.689748
498.369825	39728.168955
498.736453	40039.777798
499.103023	39574.401160
499.469535	39455.500505
499.835989	39548.776975
500.202385	39213.630985
500.568723	39238.677958
500.935003	39413.711860
501.301226	39241.528730
501.667390	39834.340696
502.033497	40074.909599
502.399546	39517.113487
502.765537	38850.635140
503.131470	39225.787727
503.497345	39549.354187
503.863163	38270.370606
504.228923	38852.235707
504.594625	39249.718085
504.960269	38559.856345
505.325856	39228.857790
505.691385	38593.657282
506.056856	38723.305677
506.422270	39166.634828
506.787625	38741.685723
507.152924	38919.673742
507.518164	39023.004793
507.883347	38269.654763
508.248472	38499.649845
508.613540	38961.875762
508.978550	39268.589644
509.343503	39023.677787
509.708398	39210.704595
510.073236	39726.500333
510.438016	39726.258358
510.802738	39184.535965
511.167403	39796.678236
511.532010	40024.238441
511.896561	40314.296351
512.261053	41143.762764
512.625488	40682.212362
512.989866	40562.724412
513.354186	40405.727758
513.718449	40410.136247
514.082655	41050.876983
514.446803	40737.665054
514.810894	41254.060689
515.174927	41181.417662
515.538904	41088.436100
515.902822	41719.190311
516.266684	41203.195447
516.630488	41610.213167
516.994235	41458.766823
517.357925	42007.143539
517.721558	42167.797550
518.085133	42474.728202
518.448651	42614.627783
518.812112	42390.498083
519.175516	42479.292967
519.538863	42819.437261
519.902152	42770.432204
520.265385	43246.433074
520.628560	43276.780820
520.991678	43064.923809
521.354739	43295.642297
521.717743	43610.744660
522.080690	43508.578115
522.443580	44034.335173
522.806413	44096.081746
523.169189	44050.383687
523.531908	44223.801899
523.894569	44077.381586
524.257174	44229.193413
524.619722	44556.492847
524.982213	44535.672882
525.344647	44447.419922
525.707025	44495.000853
526.069345	44891.749743
526.431608	44811.043390
526.793815	45097.207009
527.155964	44645.050797
527.518057	44822.499412
527.880093	44622.915091
528.242072	45131.396114
528.603995	44847.939595
528.965860	44843.354666
529.327669	44937.427638
529.689421	44839.432648
530.051117	44797.943952
530.412755	44937.362103
530.774337	45011.530079
531.135862	44818.138814
531.497331	45033.398604
531.858743	44921.542962
532.220098	45274.728721
532.581396	44974.422145
532.942638	44638.691382
533.303824	44944.533144
533.664953	44909.734059
534.026025	44628.856090
534.387040	45098.873110
534.747999	45049.000975
535.108902	45192.366350
535.469748	44724.307818
535.830537	44858.692377
536.191270	45046.747580
536.551947	44697.922419
536.912567	45003.428945
537.273131	45116.496984
537.633638	44605.679386
537.994089	44945.818638
538.354483	44585.552579
538.714821	45122.932017
539.075103	45472.977137
539.435328	45258.176092
539.795497	45128.689015
540.155609	45128.018541
540.515665	45574.289206
540.875665	45042.006374
541.235609	45365.424120
541.595496	45332.601167
541.955328	46008.413211
542.315102	45384.691410
542.674821	45175.448237
543.034483	45210.146499
543.394090	45187.766297
543.753640	45157.617676
544.113134	46132.415513
544.472571	45180.514597
544.831953	46393.693476
545.191278	45630.498072
545.550548	45359.883892
545.909761	45812.690413
546.268918	46006.603437
546.628019	46310.953018
546.987064	45895.168731
547.346053	45175.239029
547.704986	46047.245219
548.063863	45628.842052
548.422684	45834.818557
548.781449	45674.829978
549.140158	46068.390339
549.498811	45926.620490
549.857408	45371.102980
550.215949	46195.747529
550.574434	46122.791950
550.932864	45908.734476
551.291237	46617.301416
551.649555	46227.043012
552.007817	46481.727145
552.366022	46132.493651
552.724173	46324.680080
553.082267	46711.684419
553.440305	47011.754061
553.798288	46333.078642
554.156215	46657.451686
554.514086	46848.859257
554.871902	46617.384595
555.229661	46625.533621
555.587365	46463.190823
555.945014	46551.932774
556.302606	46492.994124
556.660143	46708.150570
557.017625	46786.570760
557.375050	46593.960874
557.732421	46943.181766
558.089735	46929.127029
558.446994	46854.218003
558.804197	47297.378276
559.161345	47245.766943
559.518437	46525.353291
559.875474	46826.068200
560.232455	46998.657143
560.589381	47167.848348
560.946251	46856.652880
561.303065	47521.346659
561.659825	47341.188423
562.016528	47024.135135
562.373177	46747.360665
562.729770	47215.346100
563.086307	46753.589011
563.442789	47204.800006
563.799216	47251.710463
564.155587	47060.045794
564.511904	47070.574244
564.868164	47166.353646
565.224370	47409.503620
565.580520	47140.043864
565.936615	47344.800410
566.292654	47086.022860
566.648638	47324.991196
567.004567	47265.077083
567.360441	47313.467118
567.716260	47167.629058
568.072023	47459.980693
568.427732	47445.177345
568.783385	47009.172990
569.138982	47397.359480
569.494525	47370.638844
569.850013	47125.200187
570.205445	47091.820187
570.560823	47039.913946
570.916145	46922.195442
571.271412	46949.863815
571.626625	46712.831282
571.981782	46770.912936
572.336884	46454.126828
572.691931	46771.578368
573.046923	46377.718059
573.401860	46227.353043
573.756743	46215.962556
574.111570	46335.281626
574.466342	46182.572473
574.821059	46299.113868
575.175722	45808.952397
575.530330	45835.978023
575.884882	45561.633389
576.239380	45513.568508
576.593823	45489.207132
576.948211	45407.255615
577.302544	44949.125635
577.656823	45001.336866
578.011047	45204.510489
578.365216	44928.280464
578.719330	44720.244648
579.073389	44576.828862
579.427394	44656.348023
579.781344	44620.555831
580.135239	44278.218635
580.489080	44355.839801
580.842866	43869.915420
581.196597	44308.145444
581.550273	44252.493627
581.903895	44113.584632
582.257463	44551.207198
582.610975	43928.803659
582.964434	44216.335951
583.317837	43864.077764
583.671186	43701.747569
584.024481	43910.010237
584.377721	43459.414262
584.730906	43735.183022
585.084037	43752.355712
585.437113	43486.165145
585.790135	43523.094118
586.143103	43118.334834
586.496016	43254.952624
586.848874	43269.360242
587.201679	43293.058706
587.554428	42772.909932
587.907124	42959.793066
588.259765	42720.613002
588.612352	42963.190804
588.964884	42366.751728
589.317362	42656.774350
589.669786	42594.281686
590.022155	42372.271791
590.374470	42777.948565
590.726731	42309.267451
591.078937	41828.994203
591.431090	41939.009824
591.783188	41568.971488
592.135232	41283.374999
592.487222	41525.786443
592.839157	41602.290994
593.191038	41271.636672
593.542866	41058.224465
593.894639	40448.796856
594.246358	40717.949101
594.598022	40710.783101
594.949633	40303.064660
595.301190	40281.372575
595.652692	40116.796546
596.004141	40435.652047
596.355535	39452.697624
596.706876	39425.493037
597.058162	39239.361034
597.409395	39709.342766
597.760573	39786.923603
598.111698	39358.319662
598.462768	39387.671780
598.813785	39424.769631
599.164748	38894.946883
599.515657	39268.529150
599.866511	38755.382538
600.217312	39355.582315
600.568060	38339.333591
600.918753	39083.493598
601.269392	39031.068119
601.619978	38698.742654
601.970510	38902.818644
602.320988	39092.529867
602.671412	39396.408100
603.021783	39126.711410
603.372100	38769.712018
603.722363	38882.787620
604.072572	38962.105134
604.422728	38977.173143
604.772830	38803.364241
605.122878	38878.769820
605.472872	38819.112805
605.822813	39092.083724
606.172701	38947.848751
606.522534	39175.570273
606.872314	39436.185324
607.222041	39187.520328
607.571714	39569.380171
607.921333	39034.198675
608.270899	39325.622738
608.620411	39664.209316
608.969870	39450.088827
609.319276	39446.988517
609.668627	39523.699755
610.017926	39982.238068
610.367171	40139.174228
610.716362	40233.116130
611.065500	40181.789622
611.414585	40364.849042
611.763616	40656.469709
612.112594	40580.771743
612.461518	40801.924642
612.810389	41090.243354
613.159207	40965.454632
613.507971	41038.765611
613.856682	41498.990190
614.205340	41398.819942
614.553945	42091.766868
614.902496	41537.227342
615.250994	42004.496933
615.599439	42071.382962
615.947830	42280.404324
616.296169	42337.530680
616.644454	42475.451608
616.992686	42635.634271
617.340864	43161.429138
617.688990	42880.704924
618.037063	43476.231552
618.385082	43436.461889
618.733048	43734.008433
619.080961	43758.165642
619.428821	43767.275007
619.776628	43872.824166
620.124382	43686.177965
620.472083	43817.096731
620.819731	43941.688848
621.167326	43609.103764
621.514868	43588.271196
621.862357	43167.397864
622.209793	43168.025488
622.557176	42855.831871
622.904506	42599.461472
623.251783	42258.437496
623.599007	42035.021120
623.946179	41818.760661
624.293297	41781.440999
624.640363	41200.281660
624.987376	41188.961749
625.334336	40940.581578
625.681243	40603.141863
626.028097	40546.834696
626.374899	40420.881467
626.721647	40389.147403
627.068343	40275.560125
627.414987	40041.680833
627.761577	39823.003141
628.108115	40140.535340
628.454600	39612.507242
628.801032	39793.593050
629.147412	39773.259556
629.493739	39783.903952
629.840014	39430.844222
630.186236	39759.277915
630.532405	39388.864013
630.878521	39600.479049
631.224585	39487.257254
631.570597	39195.114827
631.916556	39364.416938
632.262462	39291.090834
632.608316	39320.160648
632.954117	39218.644412
633.299866	39208.637722
633.645562	39120.558682
633.991206	38619.072259
634.336797	38210.380876
634.682336	38198.350162
635.027823	37963.089594
635.373257	37775.016747
635.718639	37527.047431
636.063968	37391.694970
