Dividing Wavelength (nm)	Counts (n)	Blue Motor Position (mm): 16.000000	Red Motor Position (mm): 0.000000	
326.493990	1974.829169
326.888308	1974.829169
327.282561	1974.829169
327.676750	1951.992742
328.070874	1953.744543
328.464933	1958.490790
328.858929	1967.615278
329.252859	1981.302011
329.646726	1993.917498
330.040528	2009.920641
330.434265	2030.123065
330.827938	2048.961857
331.221547	2067.576318
331.615091	2087.239338
332.008571	2108.190374
332.401986	2131.460340
332.795338	2150.846097
333.188625	2171.386278
333.581847	2190.139371
333.975006	2208.403471
334.368100	2225.112376
334.761129	2243.298338
335.154095	2255.409710
335.546996	2289.601336
335.939833	2346.117712
336.332606	2361.185721
336.725315	2368.686958
337.117960	2379.172558
337.510540	2385.514329
337.903056	2398.008829
338.295508	2401.542678
338.687896	2409.711868
339.080220	2419.887437
339.472480	2422.249217
339.864676	2424.789959
340.256807	2430.148705
340.648875	2426.725762
341.040879	2432.218099
341.432818	2430.766247
341.824694	2435.114242
342.216506	2436.500559
342.608253	2433.473346
342.999937	2432.439910
343.391557	2430.925043
343.783113	2427.872624
344.174605	2426.854311
344.566033	2425.440268
344.957397	2423.315421
345.348697	2421.518250
345.739934	2420.842735
346.131106	2419.426171
346.522215	2419.005235
346.913260	2415.305028
347.304241	2415.015162
347.695159	2412.408885
348.086012	2412.446694
348.476802	2409.424522
348.867528	2406.866136
349.258191	2403.959911
349.648789	2405.701630
350.039324	2405.303379
350.429796	2404.494273
350.820203	2403.352452
351.210548	2403.486043
351.600828	2401.744324
351.991045	2400.693243
352.381198	2401.288100
352.771288	2400.294992
353.161314	2399.528737
353.551276	2400.098387
353.941175	2398.986813
354.331010	2402.003943
354.720782	2403.347411
355.110490	2405.777247
355.500135	2402.999571
355.889717	2400.940260
356.279235	2400.226937
356.668689	2401.857750
357.058080	2403.843965
357.447408	2401.073851
357.836672	2400.211813
358.225873	2400.277348
358.615010	2398.661658
359.004084	2403.435631
359.393095	2404.060734
359.782043	2404.799263
360.170927	2404.370765
360.559748	2404.900086
360.948505	2407.846641
361.337199	2406.230951
361.725830	2407.145920
362.114398	2409.858061
362.502903	2406.987124
362.891344	2408.930489
363.279722	2409.991652
363.668037	2410.528535
364.056289	2411.256981
364.444478	2412.436611
364.832603	2410.412588
365.220665	2411.751014
365.608665	2411.627506
365.996601	2413.074317
366.384474	2411.398134
366.772284	2415.854514
367.160031	2413.525501
367.547715	2416.580440
367.935336	2417.044226
368.322893	2414.725295
368.710388	2414.609349
369.097820	2417.013979
369.485189	2416.454411
369.872495	2416.018351
370.259738	2413.419636
370.646918	2417.883578
371.034035	2414.037178
371.421090	2417.470203
371.808081	2417.820564
372.195010	2417.140008
372.581875	2416.484658
372.968678	2416.144380
373.355418	2417.893660
373.742096	2418.669998
374.128710	2420.371387
374.515262	2420.021027
374.901751	2420.928435
375.288177	2419.418609
375.674540	2420.179824
376.060841	2422.218970
376.447079	2420.242838
376.833254	2422.602098
377.219367	2416.819895
377.605417	2419.708476
377.991404	2415.670512
378.377329	2414.069945
378.763191	2416.431726
379.148991	2421.430030
379.534727	2421.387180
379.920402	2422.050092
380.306013	2420.961202
380.691563	2423.275092
381.077049	2423.849784
381.462474	2423.506985
381.847835	2422.589495
382.233134	2424.600916
382.618371	2423.506985
383.003545	2424.729465
383.388657	2428.031421
383.773706	2420.615883
384.158693	2424.565627
384.543618	2424.956317
384.928480	2422.604619
385.313280	2423.733837
385.698017	2424.976482
386.082692	2425.233580
386.467305	2426.337593
386.851856	2427.005546
387.236344	2424.532860
387.620770	2429.853798
388.005133	2428.023859
388.389435	2427.408838
388.773674	2429.150557
389.157851	2427.282809
389.541965	2428.792635
389.926018	2427.955803
390.310008	2429.125351
390.693936	2427.648293
391.077802	2428.843047
391.461606	2431.527461
391.845348	2431.668613
392.229027	2431.174580
392.612645	2430.156267
392.996200	2433.652307
393.379694	2429.016966
393.763125	2429.342121
394.146494	2432.669282
394.529801	2432.298757
394.913047	2431.814807
395.296230	2433.327153
395.679351	2433.470826
396.062410	2435.202462
396.445408	2433.858995
396.828343	2431.744231
397.211217	2430.277255
397.594028	2429.039652
397.976778	2432.197934
398.359466	2435.537699
398.742092	2427.479414
399.124656	2433.848912
399.507158	2433.178439
399.889598	2434.108532
400.271977	2433.332194
400.654294	2435.756989
401.036549	2435.638522
401.418742	2436.583738
401.800874	2434.080805
402.182944	2438.559871
402.564952	2435.331012
402.946898	2437.881835
403.328783	2435.152051
403.710606	2438.993410
404.092367	2436.956784
404.474067	2435.971238
404.855705	2440.339398
405.237282	2434.632812
405.618797	2438.743873
406.000250	2439.479881
406.381642	2436.858481
406.762972	2436.266146
407.144240	2437.148347
407.525447	2440.283945
407.906593	2438.799325
408.287677	2441.708071
408.668700	2439.104315
409.049661	2444.079934
409.430560	2440.495674
409.811399	2442.842331
410.192176	2443.868206
410.572891	2444.548761
410.953545	2442.002979
411.334138	2442.403750
411.714669	2442.625561
412.095139	2442.865016
412.475547	2441.539192
412.855894	2441.715633
413.236180	2441.067845
413.616405	2444.284101
413.996568	2439.646239
414.376670	2441.398040
414.756711	2441.761003
415.136691	2444.362239
415.516609	2442.154213
415.896466	2445.491457
416.276262	2447.996911
416.655997	2441.166147
417.035670	2440.614141
417.415283	2442.466765
417.794834	2438.932916
418.174324	2443.212856
418.553753	2443.356528
418.933121	2444.863833
419.312428	2440.682196
419.691674	2446.459359
420.070859	2444.135387
420.449983	2446.255192
420.829045	2445.798968
421.208047	2446.686211
421.586988	2446.096396
421.965867	2443.606066
422.344686	2444.846189
422.723444	2447.598659
423.102141	2445.567074
423.480777	2446.716457
423.859352	2444.586570
424.237866	2448.826180
424.616319	2449.632765
424.994712	2445.287290
425.373044	2450.436829
425.751314	2447.228135
426.129524	2447.379369
426.507673	2448.203598
426.885762	2448.198557
427.263789	2451.056891
427.641756	2448.443053
428.019662	2449.080759
428.397508	2449.816767
428.775292	2446.943309
429.153016	2448.538835
429.530679	2450.262909
429.908282	2451.853393
430.285824	2448.564040
430.663305	2448.034719
431.040726	2448.221242
431.418086	2449.642847
431.795385	2449.562189
432.172624	2450.865327
432.549802	2449.463886
432.926920	2450.900615
433.303977	2451.245934
433.680974	2447.880964
434.057910	2450.252827
434.434786	2453.070832
434.811601	2451.785338
435.188355	2450.290636
435.565050	2454.994032
435.941683	2450.245265
436.318257	2453.665688
436.694770	2449.879782
437.071222	2453.290122
437.447614	2450.109154
437.823946	2452.140739
438.200218	2455.379680
438.576429	2454.527725
438.952580	2452.032354
439.328670	2454.414299
439.704700	2453.983281
440.080670	2456.050154
440.456580	2452.639813
440.832429	2454.338682
441.208218	2455.039402
441.583947	2458.175000
441.959616	2456.266923
442.335224	2458.422017
442.710773	2456.619804
443.086261	2457.197016
443.461689	2456.148456
443.837057	2456.798765
444.212365	2458.381687
444.587612	2459.682305
444.962800	2458.754733
445.337927	2458.182562
445.712995	2458.850515
446.088002	2459.768005
446.462949	2457.706173
446.837837	2457.993519
447.212664	2457.096193
447.587431	2462.737244
447.962139	2464.272276
448.336786	2468.446351
448.711374	2467.080198
449.085901	2463.175825
449.460369	2463.821093
449.834776	2462.492748
450.209124	2464.930146
450.583412	2466.379478
450.957640	2465.383850
451.331808	2465.625826
451.705917	2464.529375
452.079965	2466.200517
452.453954	2465.472070
452.827883	2465.220013
453.201752	2465.078860
453.575562	2467.571711
453.949311	2468.642956
454.323001	2466.722277
454.696632	2466.578604
455.070202	2471.092957
455.443713	2465.829992
455.817164	2470.664459
456.190556	2467.400312
456.563888	2470.339304
456.937160	2466.991978
457.310373	2468.675724
457.683526	2469.759572
458.056619	2471.163533
458.429653	2473.154789
458.802628	2471.155971
459.175542	2472.819552
459.548398	2475.972794
459.921194	2478.009420
460.293930	2478.538741
460.666607	2477.749801
461.039224	2478.372383
461.411782	2481.530666
461.784280	2481.681901
462.156719	2480.726602
462.529099	2480.308186
462.901419	2479.763742
463.273680	2477.464975
463.645882	2481.689462
464.018024	2480.225007
464.390106	2480.174596
464.762130	2485.614001
465.134094	2489.208343
465.505999	2496.328973
465.877845	2501.909530
466.249631	2503.807525
466.621358	2501.256701
466.993026	2504.248626
467.364634	2503.217710
467.736184	2495.724035
468.107674	2496.245794
468.479105	2496.220588
468.850477	2495.812255
469.221790	2492.674137
469.593043	2492.550628
469.964238	2489.967037
470.335373	2492.502737
470.706449	2494.209168
471.077467	2495.610609
471.448425	2505.892042
471.819324	2508.271467
472.190164	2508.500839
472.560945	2501.060096
472.931667	2500.404746
473.302330	2498.572287
473.672934	2497.919457
474.043479	2498.932729
474.413965	2495.703870
474.784393	2496.109683
475.154761	2500.840806
475.525070	2498.426093
475.895321	2498.746206
476.265513	2497.425424
476.635645	2504.772906
477.005719	2505.738287
477.375734	2508.178205
477.745691	2511.497805
478.115588	2512.347239
478.485427	2514.794720
478.855207	2525.855011
479.224928	2528.297450
479.594591	2534.001516
479.964194	2532.900024
480.333739	2538.689789
480.703226	2536.055786
481.072653	2540.290355
481.442022	2541.691796
481.811333	2541.699358
482.180584	2542.889070
482.549777	2546.962322
482.918912	2545.485264
483.287988	2547.836962
483.657005	2543.393185
484.025964	2549.805533
484.394864	2548.588094
484.763706	2553.959444
485.132489	2550.773435
485.501213	2553.621687
485.869879	2555.229815
486.238487	2559.025803
486.607036	2558.801472
486.975527	2562.826833
487.343959	2563.784653
487.712333	2566.960580
488.080648	2568.288924
488.448905	2571.984089
488.817104	2575.396951
489.185244	2580.712847
489.553326	2588.604774
489.921350	2597.441916
490.289315	2610.589246
490.657222	2618.387911
491.025070	2622.015021
491.392861	2623.086266
491.760593	2621.359671
492.128267	2617.684670
492.495883	2613.591253
492.863440	2616.152159
493.230939	2612.824997
493.598380	2614.289453
493.965763	2607.068000
494.333088	2612.184771
494.700354	2611.088320
495.067563	2614.659977
495.434713	2613.329113
495.801805	2623.207254
496.168839	2624.875876
496.535815	2624.966616
496.902733	2630.022894
497.269593	2629.760754
497.636395	2632.319139
498.003139	2636.599079
498.369825	2638.381127
498.736453	2644.125522
499.103023	2644.813639
499.469535	2645.920172
499.835989	2650.928559
500.202385	2650.381593
500.568723	2652.980308
500.935003	2659.969868
501.301226	2659.984992
501.667390	2668.728873
502.033497	2674.982424
502.399546	2672.996210
502.765537	2669.543019
503.131470	2675.572239
503.497345	2683.325534
503.863163	2678.546520
504.228923	2682.153466
504.594625	2686.962726
504.960269	2688.255782
505.325856	2696.558563
505.691385	2696.833306
506.056856	2697.609643
506.422270	2703.918647
506.787625	2706.721529
507.152924	2711.810574
507.518164	2715.535986
507.883347	2714.260574
508.248472	2719.195864
508.613540	2728.416134
508.978550	2732.887638
509.343503	2734.614233
509.708398	2738.717732
510.073236	2748.416912
510.438016	2751.426481
510.802738	2750.456059
511.167403	2760.112389
511.532010	2767.391815
511.896561	2770.174532
512.261053	2785.708848
512.625488	2783.581481
512.989866	2785.434105
513.354186	2792.574899
513.718449	2794.266207
514.082655	2812.064000
514.446803	2812.812612
514.810894	2824.404745
515.174927	2828.969510
515.538904	2833.589727
515.902822	2848.446007
516.266684	2848.272088
516.630488	2858.419930
516.994235	2866.682382
517.357925	2880.648898
517.721558	2893.019890
518.085133	2902.749317
518.448651	2914.588467
518.812112	2921.416709
519.175516	2929.071702
519.538863	2942.672735
519.902152	2952.893674
520.265385	2969.957980
520.628560	2984.516832
520.991678	2993.734582
521.354739	3007.617920
521.717743	3026.877648
522.080690	3037.443906
522.443580	3057.623645
522.806413	3072.994123
523.169189	3085.355033
523.531908	3103.745162
523.894569	3119.904580
524.257174	3137.654483
524.619722	3159.228101
524.982213	3180.486647
525.344647	3198.367619
525.707025	3220.372256
526.069345	3248.012902
526.431608	3266.181221
526.793815	3294.772125
527.155964	3307.488436
527.518057	3334.264524
527.880093	3356.460725
528.242072	3391.378277
528.603995	3409.808735
528.965860	3440.287551
529.327669	3468.114721
529.689421	3493.191940
530.051117	3522.564223
530.412755	3557.827094
530.774337	3591.484358
531.135862	3617.451342
531.497331	3655.199502
531.858743	3687.793082
532.220098	3729.009556
532.581396	3762.192951
532.942638	3789.659678
533.303824	3837.187676
533.664953	3880.171074
534.026025	3905.684354
534.387040	3964.832212
534.747999	4008.415508
535.108902	4054.574833
535.469748	4086.185388
535.830537	4136.498624
536.191270	4188.936706
536.551947	4223.208991
536.912567	4285.280718
537.273131	4339.284078
537.633638	4368.852966
537.994089	4438.186476
538.354483	4472.667968
538.714821	4556.683838
539.075103	4630.922390
539.435328	4677.331253
539.795497	4727.606680
540.155609	4789.486843
540.515665	4871.035068
540.875665	4904.846087
541.235609	4984.566894
541.595496	5047.319177
541.955328	5149.536133
542.315102	5178.462274
542.674821	5235.538218
543.034483	5303.651768
543.394090	5367.515626
543.753640	5436.327376
544.113134	5579.024797
544.472571	5586.808338
544.831953	5741.584364
545.191278	5768.073107
545.550548	5822.739380
545.909761	5934.388334
546.268918	6032.012799
546.628019	6139.175127
546.987064	6181.631725
547.346053	6204.135436
547.704986	6362.407502
548.063863	6411.803248
548.422684	6514.751171
548.781449	6588.341935
549.140158	6716.966975
549.498811	6792.420445
549.857408	6827.035528
550.215949	7005.356263
550.574434	7091.378512
550.932864	7168.452714
551.291237	7335.110739
551.649555	7393.018473
552.007817	7523.160901
552.366022	7588.370747
552.724173	7718.122485
553.082267	7870.960187
553.440305	8021.610029
553.798288	8045.842855
554.156215	8197.657203
554.514086	8337.491249
554.871902	8419.054598
555.229661	8536.203452
555.587365	8627.138305
555.945014	8761.996732
556.302606	8871.094863
556.660143	9024.814768
557.017625	9167.860029
557.375050	9254.628369
557.732421	9440.145351
558.089735	9566.214526
558.446994	9680.802474
558.804197	9886.534483
559.161345	10020.465338
559.518437	10019.744452
559.875474	10209.513648
560.232455	10367.770591
560.589381	10539.036231
560.946251	10625.073603
561.303065	10895.140818
561.659825	11007.722386
562.016528	11091.098030
562.373177	11184.402226
562.729770	11428.104205
563.086307	11479.586989
563.442789	11728.025133
563.799216	11890.425904
564.155587	12003.115857
564.511904	12176.644975
564.868164	12347.318280
565.224370	12576.965523
565.580520	12685.252028
565.936615	12907.004824
566.292654	13017.010363
566.648638	13247.103748
567.004567	13404.601997
567.360441	13593.032766
567.716260	13731.556112
568.072023	13978.217249
568.427732	14160.356658
568.783385	14225.498448
569.138982	14500.581610
569.494525	14669.183001
569.850013	14802.093022
570.205445	14972.100894
570.560823	15142.350742
570.916145	15289.297856
571.271412	15492.736140
571.626625	15616.347753
571.981782	15807.304140
572.336884	15912.031591
572.691931	16202.936414
573.046923	16267.884120
573.401860	16407.962662
573.756743	16595.622134
574.111570	16825.498750
574.466342	16973.353272
574.821059	17206.194085
575.175722	17232.019917
575.530330	17441.547914
575.884882	17538.741361
576.239380	17723.731542
576.593823	17916.326304
576.948211	18100.666177
577.302544	18100.603162
577.656823	18324.294282
578.011047	18613.674157
578.365216	18699.948464
578.719330	18815.151432
579.073389	18970.613055
579.427394	19199.630154
579.781344	19397.334125
580.135239	19452.509554
580.489080	19693.842192
580.842866	19680.251241
581.196597	20073.983000
581.550273	20249.644527
581.903895	20392.256248
582.257463	20801.691202
582.610975	20731.455326
582.964434	21054.396683
583.317837	21090.955130
583.671186	21219.060932
584.024481	21541.861136
584.377721	21516.287362
584.730906	21845.086540
585.084037	22053.374414
585.437113	22111.703084
585.790135	22340.881500
586.143103	22335.842867
586.496016	22586.995672
586.848874	22810.233088
587.201679	23012.859746
587.554428	22940.748561
587.907124	23241.178645
588.259765	23310.539881
588.612352	23639.500375
588.964884	23514.220140
589.317362	23859.352656
589.669786	24027.114694
590.022155	24093.365538
590.374470	24510.006821
590.726731	24449.364261
591.078937	24362.018709
591.431090	24611.649085
591.783188	24594.549492
592.135232	24585.354427
592.487222	24911.633027
592.839157	25146.195395
593.191038	25140.652647
593.542866	25169.414950
593.894639	24993.156047
594.246358	25328.992675
594.598022	25485.800286
594.949633	25425.346769
595.301190	25570.915127
595.652692	25644.977239
596.004141	26025.758274
596.355535	25575.328657
596.706876	25715.513064
597.058162	25778.784586
597.409395	26229.380560
597.760573	26445.764528
598.111698	26340.530441
598.462768	26504.846851
598.813785	26682.056011
599.164748	26485.781207
599.515657	26909.084375
599.866511	26719.040436
600.217312	27291.566799
600.568060	26734.844454
600.918753	27400.919508
601.269392	27530.393983
601.619978	27432.305732
601.970510	27736.103307
602.320988	28015.781481
602.671412	28371.112251
603.021783	28326.316558
603.372100	28251.173119
603.722363	28469.734865
604.072572	28656.239913
604.422728	28810.068202
604.772830	28810.751278
605.122878	29032.269661
605.472872	29116.167063
605.822813	29467.974067
606.172701	29464.503233
606.522534	29777.896644
606.872314	30099.292887
607.222041	30059.697144
607.571714	30492.001292
607.921333	30187.263542
608.270899	30536.282787
608.620411	30929.205441
608.969870	30900.768293
609.319276	31019.608453
609.668627	31180.673319
610.017926	31679.402230
610.367171	31924.833326
610.716362	32116.530763
611.065500	32189.667823
611.414585	32455.520632
611.763616	32817.533452
612.112594	32860.516850
612.461518	33147.953360
612.810389	33498.895806
613.159207	33505.802187
613.507971	33680.440359
613.856682	34184.664128
614.205340	34182.166236
614.553945	34868.486565
614.902496	34514.128738
615.250994	35004.537225
615.599439	35170.474366
615.947830	35453.210000
616.296169	35583.932160
616.644454	35814.680895
616.992686	36033.623248
617.340864	36582.277227
617.688990	36429.885666
618.037063	37018.236211
618.385082	37068.730929
618.733048	37419.557428
619.080961	37525.285547
619.428821	37612.951213
619.776628	37799.874677
620.124382	37728.076043
620.472083	37954.111299
620.819731	38128.895665
621.167326	37938.468599
621.514868	38018.083542
621.862357	37724.005311
622.209793	37836.665017
622.557176	37635.822928
622.904506	37487.676019
623.251783	37268.239633
623.599007	37148.807137
623.946179	37031.005454
624.293297	37053.814154
624.640363	36619.536395
624.987376	36669.534558
625.334336	36523.862856
625.681243	36280.256658
626.028097	36313.485424
626.374899	36239.839208
626.721647	36293.066230
627.068343	36253.470488
627.414987	36102.901304
627.761577	35955.676927
628.108115	36320.974058
628.454600	35872.553341
628.801032	36088.329849
629.147412	36115.552080
629.493739	36181.460125
629.840014	35912.335607
630.186236	36279.540815
630.532405	35975.680225
630.878521	36230.994503
631.224585	36150.930898
631.570597	35929.717505
631.916556	36129.742928
632.262462	36123.325539
632.608316	36181.979364
632.954117	36127.912989
633.299866	36171.695410
633.645562	36131.898021
633.991206	35743.666161
634.336797	35391.062655
634.682336	35436.024706
635.027823	35253.056027
635.373257	35125.353518
635.718639	34957.157941
636.063968	34878.233636
636.409245	34360.131570
636.754470	34467.800534
637.099642	34284.161382
637.444762	33877.942684
637.789829	34039.988054
638.134845	33766.878503
638.479808	33740.435131
638.824719	33693.383521
639.169577	33355.764845
639.514383	33450.853610
639.859137	33210.471230
640.203839	33458.624548
640.548489	33153.712878
640.893086	33237.063316
