Dividing Wavelength (nm)	Counts (n)	Blue Motor Position (mm): 20.000000	Red Motor Position (mm): 0.000000	
326.493990	1974.836731
326.888308	1974.836731
327.282561	1974.836731
327.676750	1948.605087
328.070874	1950.992073
328.464933	1955.763526
328.858929	1967.063272
329.252859	1979.915694
329.646726	1993.582262
330.040528	2009.633296
330.434265	2024.789525
330.827938	2045.546476
331.221547	2064.649928
331.615091	2089.308732
332.008571	2105.894128
332.401986	2129.796759
332.795338	2149.379121
333.188625	2168.094405
333.581847	2188.841274
333.975006	2205.414067
334.368100	2225.082129
334.761129	2239.409088
335.154095	2254.310739
335.546996	2287.859618
335.939833	2350.180882
336.332606	2363.239991
336.725315	2378.141642
337.117960	2385.267313
337.510540	2393.865001
337.903056	2406.235992
338.295508	2407.322361
338.687896	2417.316448
339.080220	2423.113775
339.472480	2432.185332
339.864676	2433.100301
340.256807	2437.652463
340.648875	2440.236054
341.040879	2440.417536
341.432818	2441.440890
341.824694	2443.031374
342.216506	2442.134049
342.608253	2439.371496
342.999937	2441.589604
343.391557	2439.096753
343.783113	2436.341763
344.174605	2434.292534
344.566033	2432.913778
344.957397	2433.536361
345.348697	2431.403953
345.739934	2429.442944
346.131106	2427.466812
346.522215	2428.802717
346.913260	2423.781728
347.304241	2422.203847
347.695159	2420.928435
348.086012	2420.893147
348.476802	2416.214956
348.867528	2416.703948
349.258191	2412.227403
349.648789	2416.439288
350.039324	2412.643299
350.429796	2414.125398
350.820203	2410.818401
351.210548	2410.001734
351.600828	2412.171951
351.991045	2409.164903
352.381198	2412.136663
352.771288	2409.406878
353.161314	2408.111301
353.551276	2410.233627
353.941175	2408.280180
354.331010	2408.373441
354.720782	2408.880077
355.110490	2411.551889
355.500135	2407.508883
355.889717	2410.599111
356.279235	2409.076682
356.668689	2410.336971
357.058080	2410.452917
357.447408	2409.732032
357.836672	2406.097360
358.225873	2409.316137
358.615010	2405.550395
359.004084	2412.875192
359.393095	2415.181520
359.782043	2414.561458
360.170927	2412.834863
360.559748	2414.329565
360.948505	2415.909966
361.337199	2416.035995
361.725830	2415.922569
362.114398	2417.654206
362.502903	2419.847108
362.891344	2418.186047
363.279722	2418.949782
363.668037	2419.774011
364.056289	2420.618404
364.444478	2418.337282
364.832603	2418.594381
365.220665	2421.150246
365.608665	2420.046233
365.996601	2421.407345
366.384474	2421.674526
366.772284	2424.706780
367.160031	2424.616039
367.547715	2421.460277
367.935336	2420.381470
368.322893	2422.281985
368.710388	2424.694177
369.097820	2425.465473
369.485189	2424.454722
369.872495	2423.842222
370.259738	2424.174938
370.646918	2425.440268
371.034035	2425.026893
371.421090	2424.653848
371.808081	2424.517737
372.195010	2426.919846
372.581875	2428.538057
372.968678	2426.299784
373.355418	2426.503951
373.742096	2426.062850
374.128710	2427.300453
374.515262	2428.379260
374.901751	2428.711977
375.288177	2428.170052
375.674540	2427.817172
376.060841	2430.529312
376.447079	2428.172573
376.833254	2430.577203
377.219367	2426.405649
377.605417	2429.097625
377.991404	2424.734506
378.377329	2427.265165
378.763191	2427.129054
379.148991	2432.631474
379.534727	2432.714653
379.920402	2431.156936
380.306013	2433.632143
380.691563	2433.407811
381.077049	2434.940322
381.462474	2431.749272
381.847835	2435.489808
382.233134	2434.176587
382.618371	2433.377564
383.003545	2432.074426
383.388657	2435.893100
383.773706	2435.913265
384.158693	2437.823862
384.543618	2437.919644
384.928480	2435.298244
385.313280	2439.457196
385.698017	2438.249840
386.082692	2436.487956
386.467305	2439.111877
386.851856	2440.127669
387.236344	2435.681372
387.620770	2437.965014
388.005133	2441.546754
388.389435	2437.508790
388.773674	2438.287648
389.157851	2440.883842
389.541965	2436.397216
389.926018	2440.601538
390.310008	2437.029880
390.693936	2438.877463
391.077802	2438.577515
391.461606	2440.823349
391.845348	2440.273863
392.229027	2440.906528
392.612645	2439.961311
392.996200	2441.158585
393.379694	2443.225458
393.763125	2445.534307
394.146494	2440.909048
394.529801	2442.499532
394.913047	2443.827876
395.296230	2444.775613
395.679351	2443.946343
396.062410	2447.860799
396.445408	2443.278391
396.828343	2442.456683
397.211217	2440.604058
397.594028	2444.866354
397.976778	2441.957608
398.359466	2444.107660
398.742092	2440.571291
399.124656	2447.228135
399.507158	2444.957095
399.889598	2444.720161
400.271977	2446.164451
400.654294	2449.133691
401.036549	2447.943978
401.418742	2447.749894
401.800874	2448.211160
402.182944	2448.737960
402.564952	2446.666046
402.946898	2448.639658
403.328783	2449.801644
403.710606	2447.545727
404.092367	2452.249124
404.474067	2449.587395
404.855705	2449.168979
405.237282	2448.939606
405.618797	2448.420368
406.000250	2452.294494
406.381642	2448.967333
406.762972	2452.753239
407.144240	2453.186778
407.525447	2451.460183
407.906593	2451.152673
408.287677	2450.378856
408.668700	2451.074535
409.049661	2454.520164
409.430560	2451.303908
409.811399	2452.770883
410.192176	2453.055708
410.572891	2454.827674
410.953545	2452.536470
411.334138	2455.621656
411.714669	2456.806327
412.095139	2455.190637
412.475547	2456.493775
412.855894	2454.968826
413.236180	2454.033692
413.616405	2454.333641
413.996568	2456.334979
414.376670	2454.724330
414.756711	2454.580657
415.136691	2456.108127
415.516609	2456.922273
415.896466	2457.126440
416.276262	2457.176852
416.655997	2455.440174
417.035670	2456.395473
417.415283	2457.436471
417.794834	2454.545369
418.174324	2457.423868
418.553753	2457.217181
418.933121	2457.754064
419.312428	2458.986626
419.691674	2455.026800
420.070859	2457.701132
420.449983	2461.950824
420.829045	2460.783797
421.208047	2457.232304
421.586988	2461.824796
421.965867	2458.290947
422.344686	2463.253963
422.723444	2460.188941
423.102141	2460.375464
423.480777	2461.907975
423.859352	2461.429065
424.237866	2463.606843
424.616319	2465.729169
424.994712	2462.074333
425.373044	2461.313118
425.751314	2464.920064
426.129524	2461.970989
426.507673	2466.928964
426.885762	2464.315126
427.263789	2466.674386
427.641756	2465.149437
428.019662	2465.333439
428.397508	2467.753193
428.775292	2466.757565
429.153016	2466.712194
429.530679	2467.004581
429.908282	2466.374437
430.285824	2465.388891
430.663305	2468.126238
431.040726	2466.870991
431.418086	2467.692699
431.795385	2468.189252
432.172624	2468.194293
432.549802	2467.745631
432.926920	2469.162195
433.303977	2468.647997
433.680974	2470.266208
434.057910	2470.087247
434.434786	2472.718729
434.811601	2472.156640
435.188355	2473.870633
435.565050	2471.178657
435.941683	2471.486167
436.318257	2470.407360
436.694770	2469.802422
437.071222	2471.934830
437.447614	2470.223358
437.823946	2470.344346
438.200218	2472.988431
438.576429	2473.742083
438.952580	2474.357104
439.328670	2474.125211
439.704700	2476.734008
440.080670	2470.782926
440.456580	2472.577577
440.832429	2475.445993
441.208218	2476.093782
441.583947	2479.214256
441.959616	2477.737198
442.335224	2474.009264
442.710773	2477.306179
443.086261	2475.277115
443.461689	2476.761734
443.837057	2477.633854
444.212365	2479.788947
444.587612	2480.338433
444.962800	2480.041005
445.337927	2480.167034
445.712995	2481.495378
446.088002	2480.915645
446.462949	2482.964874
446.837837	2482.979998
447.212664	2480.141828
447.587431	2486.818836
447.962139	2489.334372
448.336786	2494.685557
448.711374	2490.637510
449.085901	2486.304639
449.460369	2488.618528
449.834776	2487.075935
450.209124	2489.772952
450.583412	2492.747233
450.957640	2492.348982
451.331808	2493.858808
451.705917	2492.245638
452.079965	2490.047695
452.453954	2494.120948
452.827883	2496.003819
453.201752	2495.030876
453.575562	2493.596668
453.949311	2498.196721
454.323001	2494.355361
454.696632	2493.808396
455.070202	2498.247132
455.443713	2498.771412
455.817164	2500.828203
456.190556	2497.188490
456.563888	2503.084119
456.937160	2500.394664
457.310373	2502.892555
457.683526	2501.710405
458.056619	2507.472444
458.429653	2504.510766
458.802628	2512.440501
459.175542	2507.076713
459.548398	2512.957219
459.921194	2516.138187
460.293930	2521.683456
460.666607	2523.142870
461.039224	2525.116482
461.411782	2529.184693
461.784280	2529.293078
462.156719	2528.753675
462.529099	2528.965403
462.901419	2528.975485
463.273680	2529.323325
463.645882	2527.785773
464.018024	2531.730476
464.390106	2534.036804
464.762130	2543.456200
465.134094	2555.244938
465.505999	2565.934705
465.877845	2582.726788
466.249631	2585.854824
466.621358	2582.754515
466.993026	2582.625965
467.364634	2581.305183
467.736184	2573.536765
468.107674	2570.920406
468.479105	2572.488205
468.850477	2572.644481
469.221790	2572.909141
469.593043	2566.910168
469.964238	2568.649366
470.335373	2567.290775
470.706449	2574.292938
471.077467	2587.810792
471.448425	2603.277052
471.819324	2611.105964
472.190164	2609.954060
472.560945	2600.292689
472.931667	2591.332038
473.302330	2588.508992
473.672934	2587.747777
474.043479	2593.345979
474.413965	2588.128385
474.784393	2589.088724
475.154761	2593.764395
475.525070	2596.862184
475.895321	2596.020311
476.265513	2599.985178
476.635645	2608.676128
477.005719	2613.162755
477.375734	2618.524022
477.745691	2619.088631
478.115588	2629.841412
478.485427	2640.715181
478.855207	2657.088849
479.224928	2673.641477
479.594591	2684.351409
479.964194	2682.269412
480.333739	2688.555731
480.703226	2692.702080
481.072653	2703.588452
481.442022	2712.171016
481.811333	2719.533621
482.180584	2719.256358
482.549777	2722.497820
482.918912	2726.195506
483.287988	2731.695405
483.657005	2733.714387
484.025964	2741.944071
484.394864	2746.405492
484.763706	2752.901019
485.132489	2753.430340
485.501213	2762.937956
485.869879	2777.073351
486.238487	2785.108951
486.607036	2798.314253
486.975527	2801.812814
487.343959	2819.444249
487.712333	2836.243895
488.080648	2847.147910
488.448905	2865.802700
488.817104	2883.749208
489.185244	2911.301634
489.553326	2951.698921
489.921350	3010.287211
490.289315	3072.094277
490.657222	3108.539299
491.025070	3141.069865
491.392861	3154.686021
491.760593	3160.511075
492.128267	3165.481652
492.495883	3171.062210
492.863440	3179.773323
493.230939	3190.841177
493.598380	3208.681820
493.965763	3233.854822
494.333088	3256.625714
494.700354	3286.189561
495.067563	3319.002431
495.434713	3355.472658
495.801805	3401.185842
496.168839	3441.963735
496.535815	3475.376503
496.902733	3527.922970
497.269593	3566.752457
497.636395	3614.653501
498.003139	3683.964325
498.369825	3724.666602
498.736453	3791.739153
499.103023	3839.932584
499.469535	3898.281419
499.835989	3963.191316
500.202385	4018.023947
500.568723	4086.129935
500.935003	4173.818286
501.301226	4242.435951
501.667390	4347.538968
502.033497	4441.155715
502.399546	4496.479858
502.765537	4543.602044
503.131470	4653.466430
503.497345	4761.092544
503.863163	4775.240542
504.228923	4907.389349
504.594625	5031.338720
504.960269	5087.529941
505.325856	5232.692487
505.691385	5295.202794
506.056856	5405.006687
506.422270	5550.819541
506.787625	5630.414319
507.152924	5758.999030
507.518164	5889.038114
507.883347	5938.995949
508.248472	6081.942907
508.613540	6252.633856
508.978550	6409.028092
509.343503	6514.864597
509.708398	6663.069479
510.073236	6863.223451
510.438016	7000.211766
510.802738	7079.995587
511.167403	7299.200080
511.532010	7476.678942
511.896561	7666.856471
512.261053	7932.926050
512.625488	8033.255094
512.989866	8169.522524
513.354186	8307.234244
513.718449	8466.537226
514.082655	8740.085357
514.446803	8857.463583
514.810894	9109.107901
515.174927	9274.107387
515.538904	9432.122354
515.902822	9720.526766
516.266684	9812.331219
516.630488	10066.294467
516.994235	10223.374300
517.357925	10518.657366
517.721558	10744.286810
518.085133	11002.154432
518.448651	11231.988197
518.812112	11380.755168
519.175516	11600.720875
519.538863	11879.249666
519.902152	12069.616238
520.265385	12389.676575
520.628560	12622.814817
520.991678	12790.902010
521.354739	13064.772775
521.717743	13373.974467
522.080690	13570.055187
522.443580	13933.287965
522.806413	14174.232434
523.169189	14391.740578
523.531908	14670.597044
523.894569	14852.018089
524.257174	15130.922446
524.619722	15458.814216
524.982213	15697.359095
525.344647	15914.242137
525.707025	16162.708007
526.069345	16544.741769
526.431608	16756.727329
526.793815	17112.542050
527.155964	17188.353442
527.518057	17507.909664
527.880093	17675.971651
528.242072	18133.342936
528.603995	18276.925080
528.965860	18521.126134
529.327669	18816.157142
529.689421	19028.367034
530.051117	19266.349825
530.412755	19576.363142
530.774337	19851.161480
531.135862	20028.219406
531.497331	20371.211952
531.858743	20580.432439
532.220098	20976.672173
532.581396	21112.017071
532.942638	21213.513142
533.303824	21600.764498
533.664953	21846.689627
534.026025	21965.194551
534.387040	22438.203496
534.747999	22670.946007
535.108902	23006.578468
535.469748	23021.074306
535.830537	23334.356812
536.191270	23697.108160
536.551947	23768.841259
536.912567	24174.334030
537.273131	24491.745241
537.633638	24466.899914
537.994089	24899.534258
538.354483	24932.437869
538.714821	25498.314950
539.075103	25934.523472
539.435328	26067.660345
539.795497	26242.822797
540.155609	26483.056463
540.515665	26994.368095
540.875665	26912.146876
541.235609	27349.673659
541.595496	27580.606396
541.955328	28240.841274
542.315102	28092.936341
542.674821	28209.684423
543.034483	28466.213619
543.394090	28691.044039
543.753640	28895.793023
544.113134	29777.190882
544.472571	29378.173473
544.831953	30429.861509
545.191278	30135.916869
545.550548	30197.444152
545.909761	30717.444212
546.268918	31079.792268
546.628019	31524.260721
546.987064	31447.413372
547.346053	31175.735508
547.704986	31991.736999
548.063863	31896.741496
548.422684	32266.139606
548.781449	32371.275390
549.140158	32859.569113
549.498811	32961.828919
549.857408	32758.352826
550.215949	33579.776078
550.574434	33730.196547
550.932864	33770.631642
551.291237	34516.286352
551.649555	34418.626599
552.007817	34788.115449
552.366022	34730.248044
552.724173	35048.833844
553.082267	35535.358122
553.440305	35974.901367
553.798288	35622.985979
554.156215	36051.544550
554.514086	36378.932204
554.871902	36373.714610
555.229661	36558.926602
555.587365	36615.337113
555.945014	36853.082970
556.302606	36967.146637
556.660143	37317.963054
557.017625	37564.266269
557.375050	37553.878972
557.732421	38012.520628
558.089735	38157.494131
558.446994	38251.272195
558.804197	38795.096748
559.161345	38895.012418
559.518437	38430.596120
559.875474	38842.052576
560.232455	39141.918051
560.589381	39450.202252
560.946251	39330.449643
561.303065	40061.311086
561.659825	40014.768633
562.016528	39904.410214
562.373177	39798.233432
562.729770	40354.386127
563.086307	40068.512375
563.442789	40590.962436
563.799216	40768.723603
564.155587	40714.558925
564.511904	40866.884950
564.868164	41048.646273
565.224370	41403.674574
565.580520	41284.310133
565.936615	41599.546086
566.292654	41463.752525
566.648638	41791.682103
567.004567	41847.769981
567.360441	41997.414112
567.716260	41988.584531
568.072023	42343.963192
568.427732	42445.812144
568.783385	42130.379586
569.138982	42600.792336
569.494525	42666.236596
569.850013	42525.333825
570.205445	42597.457613
570.560823	42657.381809
570.916145	42646.515602
571.271412	42746.350612
571.626625	42618.403607
571.981782	42751.487548
572.336884	42534.871688
572.691931	42926.203858
573.046923	42613.251548
573.401860	42560.437900
573.756743	42621.002322
574.111570	42804.565857
574.466342	42733.861154
574.821059	42934.133593
575.175722	42562.310688
575.530330	42631.429949
575.884882	42448.226856
576.239380	42466.435504
576.593823	42514.780169
576.948211	42496.415246
577.302544	42132.602735
577.656823	42202.246275
578.011047	42486.287568
578.365216	42283.502113
578.719330	42145.591267
579.073389	42058.278483
579.427394	42214.395456
579.781344	42237.589805
580.135239	41955.116311
580.489080	42092.618823
580.842866	41650.131544
581.196597	42130.926551
581.550273	42107.800258
581.903895	42024.538040
582.257463	42478.352792
582.610975	41948.882924
582.964434	42249.227308
583.317837	41957.281486
583.671186	41855.349355
584.024481	42115.777884
584.377721	41716.644528
584.730906	42010.127902
585.084037	42076.330855
585.437113	41836.659277
585.790135	41933.371293
586.143103	41597.270005
586.496016	41731.016857
586.848874	41796.105715
587.201679	41856.960004
587.554428	41374.708104
587.907124	41595.745056
588.259765	41400.846486
588.612352	41673.134329
588.964884	41123.540175
589.317362	41418.273755
589.669786	41381.848898
590.022155	41203.608822
590.374470	41634.340130
590.726731	41215.616850
591.078937	40776.166866
591.431090	40884.528989
591.783188	40571.251524
592.135232	40299.505606
592.487222	40566.180123
592.839157	40668.969250
593.191038	40377.368747
593.542866	40156.102423
593.894639	39592.854303
594.246358	39882.448427
594.598022	39880.845340
594.949633	39525.544817
595.301190	39498.181434
595.652692	39361.455260
596.004141	39700.145181
596.355535	38753.779452
596.706876	38735.187676
597.058162	38574.954601
597.409395	39038.143378
597.760573	39140.955190
598.111698	38733.617357
598.462768	38762.430072
598.813785	38838.538892
599.164748	38299.823548
599.515657	38706.367400
599.866511	38203.068682
600.217312	38817.318155
600.568060	37828.833585
600.918753	38550.270591
601.269392	38528.843167
601.619978	38200.507776
601.970510	38418.814943
602.320988	38585.823329
602.671412	38899.640197
603.021783	38664.863580
603.372100	38340.127573
603.722363	38452.061353
604.072572	38531.101604
604.422728	38560.975482
604.772830	38372.325422
605.122878	38474.481884
605.472872	38428.872045
605.822813	38699.150988
606.172701	38540.803304
606.522534	38774.879201
606.872314	39056.074763
607.222041	38814.560643
607.571714	39210.419770
607.921333	38679.493008
608.270899	38973.835899
608.620411	39299.895209
608.969870	39114.655491
609.319276	39127.863314
609.668627	39191.989311
610.017926	39661.691259
610.367171	39827.560344
610.716362	39929.633627
611.065500	39874.397705
611.414585	40074.118138
611.763616	40370.290967
612.112594	40308.304940
612.461518	40520.149348
612.810389	40817.337970
613.159207	40690.459689
613.507971	40767.097831
613.856682	41249.301840
614.205340	41126.058231
614.553945	41821.961793
614.902496	41282.031531
615.250994	41751.219282
615.599439	41837.652385
615.947830	42049.484190
616.296169	42099.976387
616.644454	42238.744229
616.992686	42409.049529
617.340864	42934.993110
617.688990	42660.658559
618.037063	43238.394954
618.385082	43223.843664
618.733048	43528.599058
619.080961	43532.228688
619.428821	43552.605032
619.776628	43666.908155
620.124382	43476.675173
620.472083	43635.237106
620.819731	43742.369187
621.167326	43435.199080
621.514868	43423.785907
621.862357	42985.734844
622.209793	43021.395966
622.557176	42694.749362
622.904506	42442.197636
623.251783	42098.940430
623.599007	41889.041907
623.946179	41682.276462
624.293297	41631.917855
624.640363	41059.537686
624.987376	41054.804042
625.334336	40818.278145
625.681243	40461.666922
626.028097	40436.040216
626.374899	40290.434049
626.721647	40256.325602
627.068343	40172.438282
627.414987	39934.276530
627.761577	39725.471938
628.108115	40052.655425
628.454600	39504.855922
628.801032	39697.485972
629.147412	39669.772229
629.493739	39664.743678
629.840014	39344.002785
630.186236	39681.452582
630.532405	39296.252976
630.878521	39526.185044
631.224585	39406.603833
631.570597	39105.846074
631.916556	39275.125500
632.262462	39238.972865
632.608316	39248.926623
632.954117	39145.882918
633.299866	39129.557142
633.645562	39069.176721
633.991206	38577.177750
634.336797	38155.515478
634.682336	38151.618666
635.027823	37904.042559
635.373257	37719.248983
635.718639	37500.624223
636.063968	37373.113277
636.409245	36781.526312
636.754470	36852.959462
637.099642	36620.547146
637.444762	36131.963556
637.789829	36290.046579
638.134845	35949.186441
638.479808	35891.558491
638.824719	35786.470598
639.169577	35419.971152
