Dividing Wavelength (nm)	Counts (n)	Blue Motor Position (mm): 0.000000	Red Motor Position (mm): 17.400000	
326.493990	1980.893677
326.888308	1980.893677
327.282561	1980.893677
327.676750	1957.394339
328.070874	1957.903495
328.464933	1967.199383
328.858929	1974.143572
329.252859	1986.756539
329.646726	2000.140803
330.040528	2015.591939
330.434265	2033.979548
330.827938	2055.853115
331.221547	2073.681155
331.615091	2098.624784
332.008571	2114.378390
332.401986	2136.682975
332.795338	2154.137971
333.188625	2177.251661
333.581847	2195.553570
333.975006	2215.193905
334.368100	2230.163612
334.761129	2248.520973
335.154095	2263.609147
335.546996	2280.625562
335.939833	2297.589044
336.332606	2309.440797
336.725315	2319.404638
337.117960	2326.865545
337.510540	2335.821155
337.903056	2343.922289
338.295508	2350.732888
338.687896	2356.774711
339.080220	2365.740403
339.472480	2370.322812
339.864676	2374.207021
340.256807	2376.261291
340.648875	2379.109543
341.040879	2380.178268
341.432818	2382.776983
341.824694	2383.265975
342.216506	2382.903012
342.608253	2382.940820
342.999937	2383.336551
343.391557	2380.624410
343.783113	2375.915972
344.174605	2379.747249
344.566033	2377.032588
344.957397	2373.770961
345.348697	2369.813656
345.739934	2372.077134
346.131106	2370.466485
346.522215	2367.177132
346.913260	2365.795856
347.304241	2366.536906
347.695159	2360.611029
348.086012	2361.533560
348.476802	2361.397449
348.867528	2359.990967
349.258191	2358.811337
349.648789	2356.242869
350.039324	2354.765811
350.429796	2353.878568
350.820203	2354.024762
351.210548	2352.840091
351.600828	2352.887982
351.991045	2353.533249
352.381198	2354.014679
352.771288	2355.186748
353.161314	2352.265399
353.551276	2353.490399
353.941175	2352.260358
354.331010	2353.326562
354.720782	2354.423013
355.110490	2354.617097
355.500135	2355.998373
355.889717	2354.186079
356.279235	2357.341841
356.668689	2355.239680
357.058080	2354.760770
357.447408	2354.163393
357.836672	2351.597446
358.225873	2358.929804
358.615010	2355.637931
359.004084	2358.163549
359.393095	2359.360823
359.782043	2362.783767
360.170927	2362.458612
360.559748	2363.421473
360.948505	2363.807121
361.337199	2362.425845
361.725830	2363.018180
362.114398	2369.417925
362.502903	2365.553881
362.891344	2365.261494
363.279722	2363.469363
363.668037	2367.923223
364.056289	2367.724097
364.444478	2368.213089
364.832603	2368.139993
365.220665	2370.786598
365.608665	2373.007227
365.996601	2368.956659
366.384474	2373.055118
366.772284	2372.281300
367.160031	2376.286497
367.547715	2375.389172
367.935336	2376.523431
368.322893	2375.832793
368.710388	2379.016282
369.097820	2382.033412
369.485189	2378.355891
369.872495	2382.139277
370.259738	2382.202291
370.646918	2386.280585
371.034035	2385.088352
371.421090	2392.642521
371.808081	2390.706718
372.195010	2397.784498
372.581875	2400.731052
372.968678	2407.014850
373.355418	2413.790161
373.742096	2425.830957
374.128710	2433.163315
374.515262	2445.554472
374.901751	2456.156018
375.288177	2476.103864
375.674540	2493.894096
376.060841	2517.370749
376.447079	2540.144162
376.833254	2564.560990
377.219367	2588.670309
377.605417	2624.429733
377.991404	2652.415699
378.377329	2688.233097
378.763191	2725.013356
379.148991	2766.756630
379.534727	2819.487099
379.920402	2863.193903
380.306013	2910.979000
380.691563	2969.504276
381.077049	3029.413348
381.462474	3083.416709
381.847835	3155.278357
382.233134	3226.071280
382.618371	3281.710495
383.003545	3370.843137
383.388657	3446.150413
383.773706	3537.922098
384.158693	3613.494036
384.543618	3704.275134
384.928480	3777.399591
385.313280	3884.536713
385.698017	3986.935151
386.082692	4103.602574
386.467305	4166.808561
386.851856	4286.730050
387.236344	4440.099594
387.620770	4502.584696
388.005133	4624.676401
388.389435	4767.295684
388.773674	4850.401626
389.157851	4986.374148
389.541965	5111.535916
389.926018	5136.724041
390.310008	5308.861801
390.693936	5427.868319
391.077802	5545.531371
391.461606	5677.720507
391.845348	5789.021622
392.229027	5908.000415
392.612645	6134.519622
392.996200	6247.393577
393.379694	6415.677374
393.763125	6637.697352
394.146494	6728.511218
394.529801	6858.444437
394.913047	7102.090964
395.296230	7096.162567
395.679351	7152.419324
396.062410	7402.485760
396.445408	7297.032384
396.828343	7444.634848
397.211217	7577.330620
397.594028	7460.010367
397.976778	7658.152919
398.359466	7821.940007
398.742092	7796.099053
399.124656	7939.666073
399.507158	8121.697097
399.889598	8142.927917
400.271977	8351.901388
400.654294	8381.603866
401.036549	8568.978513
401.418742	8600.127803
401.800874	8896.217454
402.182944	8969.387281
402.564952	9326.386673
402.946898	9155.423502
403.328783	9207.811173
403.710606	9399.821161
404.092367	9649.640581
404.474067	10004.903296
404.855705	9804.192276
405.237282	9759.063867
405.618797	10168.130816
406.000250	10404.122351
406.381642	10759.818605
406.762972	10707.443537
407.144240	10513.492704
407.525447	10759.727864
407.906593	10696.037926
408.287677	10939.008939
408.668700	11087.170971
409.049661	11058.522093
409.430560	11206.542973
409.811399	11169.135091
410.192176	11317.740745
410.572891	11376.492872
410.953545	11828.845689
411.334138	11314.688326
411.714669	11865.194929
412.095139	11187.116887
412.475547	11649.730972
412.855894	11475.395270
413.236180	11758.819021
413.616405	11438.181472
413.996568	11659.004175
414.376670	11605.993922
414.756711	11447.643718
415.136691	11662.417036
415.516609	11790.842951
415.896466	11797.277984
416.276262	11991.254022
416.655997	12341.296622
417.035670	12304.922176
417.415283	12831.238802
417.794834	12833.482116
418.174324	12508.413392
418.553753	12333.734891
418.933121	12679.038806
419.312428	12407.504616
419.691674	12231.691855
420.070859	12519.960155
420.449983	12117.481994
420.829045	12462.238944
421.208047	12140.552834
421.586988	12389.724466
421.965867	12461.200466
422.344686	12324.970845
422.723444	12636.410809
423.102141	11495.716161
423.480777	12244.569482
423.859352	11733.618293
424.237866	12397.684448
424.616319	12021.445492
424.994712	12317.575472
425.373044	12013.830830
425.751314	12296.289200
426.129524	11548.560056
426.507673	12068.789489
426.885762	11713.284799
427.263789	11641.639921
427.641756	11557.616489
428.019662	11417.331260
428.397508	11251.593245
428.775292	11226.765562
429.153016	11005.796665
429.530679	10869.151149
429.908282	10681.695843
430.285824	10344.745120
430.663305	10495.306742
431.040726	10119.332447
431.418086	9841.161577
431.795385	9942.713101
432.172624	9925.898333
432.549802	9541.734683
432.926920	9422.191281
433.303977	9186.514818
433.680974	9089.865817
434.057910	9010.089557
434.434786	8832.436775
434.811601	8607.593752
435.188355	8784.094630
435.565050	8480.143300
435.941683	8264.679344
436.318257	8360.695681
436.694770	8116.955892
437.071222	8097.590300
437.447614	7632.478322
437.823946	7451.440405
438.200218	7312.274312
438.576429	7078.944507
438.952580	6978.875082
439.328670	6802.706920
439.704700	6735.709985
440.080670	6481.161963
440.456580	6447.867662
440.832429	6326.781667
441.208218	5969.620959
441.583947	5903.430609
441.959616	5781.079284
442.335224	5675.948541
442.710773	5562.744391
443.086261	5513.484756
443.461689	5281.122852
443.837057	5168.541283
444.212365	5129.217763
444.587612	5004.340820
444.962800	4827.950847
445.337927	4766.778966
445.712995	4511.386550
446.088002	4595.755301
446.462949	4513.677755
446.837837	4425.422274
447.212664	4313.455727
447.587431	4455.490236
447.962139	4608.363227
448.336786	4702.983164
448.711374	4472.383143
449.085901	4101.245835
449.460369	3983.096312
449.834776	3888.420923
450.209124	3943.309006
450.583412	3846.365097
450.957640	3796.734937
451.331808	3652.285715
451.705917	3508.771626
452.079965	3443.728139
452.453954	3393.603946
452.827883	3334.428362
453.201752	3268.663989
453.575562	3227.180334
453.949311	3209.102757
454.323001	3169.388547
454.696632	3117.242851
455.070202	3116.438787
455.443713	3084.893767
455.817164	3055.430743
456.190556	3028.324459
456.563888	2986.074549
456.937160	2962.121506
457.310373	2902.290572
457.683526	2883.645864
458.056619	2856.670650
458.429653	2833.307422
458.802628	2816.522901
459.175542	2799.622432
459.548398	2802.561425
459.921194	2804.174594
460.293930	2801.323822
460.666607	2810.297076
461.039224	2814.970225
461.411782	2804.620737
461.784280	2776.818773
462.156719	2755.623242
462.529099	2736.751682
462.901419	2713.396017
463.273680	2693.738037
463.645882	2688.623787
464.018024	2674.490912
464.390106	2675.400840
464.762130	2691.600588
465.134094	2717.446584
465.505999	2751.058477
465.877845	2781.494443
466.249631	2782.122067
466.621358	2761.513830
466.993026	2741.061869
467.364634	2720.435988
467.736184	2694.375743
468.107674	2680.147086
468.479105	2672.257681
468.850477	2660.824344
469.221790	2647.838331
469.593043	2634.769140
469.964238	2626.572224
470.335373	2618.861779
470.706449	2625.160701
471.077467	2636.866260
471.448425	2662.324087
471.819324	2678.526355
472.190164	2662.346772
472.560945	2639.404481
472.931667	2621.488220
473.302330	2608.908021
473.672934	2602.883842
474.043479	2600.237236
474.413965	2593.318252
474.784393	2586.242993
475.154761	2589.960844
475.525070	2587.238621
475.895321	2587.180648
476.265513	2586.583271
476.635645	2593.492172
477.005719	2589.839856
477.375734	2595.639704
477.745691	2593.151894
478.115588	2600.375868
478.485427	2607.123452
478.855207	2621.586523
479.224928	2637.314923
479.594591	2644.919503
479.964194	2636.820890
480.333739	2637.166209
480.703226	2636.183184
481.072653	2639.212917
481.442022	2641.244502
481.811333	2642.953453
482.180584	2634.116311
482.549777	2631.641104
482.918912	2626.118520
483.287988	2624.049126
483.657005	2620.134670
484.025964	2618.410596
484.394864	2618.173662
484.763706	2614.728033
485.132489	2608.789554
485.501213	2608.038422
485.869879	2608.814759
486.238487	2605.817793
486.607036	2606.795777
486.975527	2603.597165
487.343959	2603.703029
487.712333	2604.010540
488.080648	2607.677979
488.448905	2603.723194
488.817104	2606.135386
489.185244	2608.749224
489.553326	2615.259875
489.921350	2630.781587
490.289315	2641.851961
490.657222	2649.418733
491.025070	2649.310348
491.392861	2644.271715
491.760593	2638.597896
492.128267	2632.006588
492.495883	2622.768673
492.863440	2616.280708
493.230939	2609.066817
493.598380	2603.602206
493.965763	2598.059458
494.333088	2594.941504
494.700354	2596.302616
495.067563	2595.690115
495.434713	2590.767429
495.801805	2595.001998
496.168839	2593.872779
496.535815	2591.556369
496.902733	2593.363623
497.269593	2592.733479
497.636395	2592.597368
498.003139	2591.722727
498.369825	2591.871441
498.736453	2597.222626
499.103023	2593.177100
499.469535	2592.534353
499.835989	2592.304981
500.202385	2592.380598
500.568723	2592.294898
500.935003	2595.402770
501.301226	2595.485949
501.667390	2598.074581
502.033497	2604.328132
502.399546	2601.437031
502.765537	2599.481063
503.131470	2604.512135
503.497345	2607.138576
503.863163	2600.741352
504.228923	2602.941815
504.594625	2605.200252
504.960269	2606.049687
505.325856	2610.758124
505.691385	2608.028339
506.056856	2616.184926
506.422270	2617.261213
506.787625	2615.847169
507.152924	2618.771038
507.518164	2623.106431
507.883347	2619.597787
508.248472	2625.463170
508.613540	2626.620115
508.978550	2629.967441
509.343503	2633.735703
509.708398	2638.900366
510.073236	2643.513021
510.438016	2647.167858
510.802738	2643.606283
511.167403	2646.084010
511.532010	2653.481903
511.896561	2656.582213
512.261053	2664.469098
512.625488	2658.328972
512.989866	2660.821823
513.354186	2663.531443
513.718449	2663.100425
514.082655	2670.654594
514.446803	2674.039728
514.810894	2677.593742
515.174927	2681.329237
515.538904	2678.569205
515.902822	2684.772345
516.266684	2684.532890
516.630488	2687.030782
516.994235	2688.195288
517.357925	2690.912470
517.721558	2691.749302
518.085133	2697.743234
518.448651	2699.313553
518.812112	2698.270034
519.175516	2698.685930
519.538863	2705.010057
519.902152	2705.688092
520.265385	2706.570294
520.628560	2710.066334
520.991678	2708.128011
521.354739	2711.520707
521.717743	2714.684031
522.080690	2714.527756
522.443580	2716.927345
522.806413	2716.224104
523.169189	2718.515308
523.531908	2718.268292
523.894569	2718.507747
524.257174	2722.326421
524.619722	2722.245762
524.982213	2725.182234
525.344647	2723.571586
525.707025	2723.690053
526.069345	2724.950341
526.431608	2725.714076
526.793815	2729.101731
527.155964	2725.545197
527.518057	2726.472770
527.880093	2725.104096
528.242072	2727.496124
528.603995	2729.295816
528.965860	2728.111145
529.327669	2728.726165
529.689421	2727.909498
530.051117	2728.224571
530.412755	2728.179200
530.774337	2731.733214
531.135862	2728.751371
531.497331	2726.850856
531.858743	2724.274827
532.220098	2726.931515
532.581396	2722.918756
532.942638	2721.517315
533.303824	2729.865466
533.664953	2727.518809
534.026025	2721.724003
534.387040	2723.291802
534.747999	2726.097204
535.108902	2726.044272
535.469748	2724.121071
535.830537	2722.429764
536.191270	2719.934393
536.551947	2718.265771
536.912567	2720.315000
537.273131	2721.497151
537.633638	2712.725543
537.994089	2717.123950
538.354483	2711.140100
538.714821	2714.099257
539.075103	2716.085472
539.435328	2713.252344
539.795497	2709.920141
540.155609	2711.490460
540.515665	2710.215048
540.875665	2701.876980
541.235609	2703.999306
541.595496	2699.716846
541.955328	2701.539223
542.315102	2697.153419
542.674821	2694.138809
543.034483	2690.186544
543.394090	2688.757377
543.753640	2685.964578
544.113134	2689.485824
544.472571	2678.806139
544.831953	2682.965091
545.191278	2676.313289
545.550548	2672.860098
545.909761	2674.069975
546.268918	2669.258194
546.628019	2670.382371
546.987064	2661.043634
547.346053	2657.303098
547.704986	2657.293015
548.063863	2651.629279
548.422684	2648.972591
548.781449	2647.132570
549.140158	2643.928917
549.498811	2642.877836
549.857408	2636.508338
550.215949	2632.011629
550.574434	2626.731020
550.932864	2624.555762
551.291237	2624.628859
551.649555	2623.197171
552.007817	2621.158025
552.366022	2616.293311
552.724173	2612.285594
553.082267	2609.805346
553.440305	2611.486571
553.798288	2603.571959
554.156215	2599.891917
554.514086	2599.130703
554.871902	2596.829416
555.229661	2596.781525
555.587365	2593.111565
555.945014	2587.294074
556.302606	2583.215780
556.660143	2584.405493
557.017625	2580.564133
557.375050	2578.530028
557.732421	2575.764955
558.089735	2572.778071
558.446994	2573.156158
558.804197	2571.618606
559.161345	2568.147771
559.518437	2562.710887
559.875474	2560.210475
560.232455	2563.918243
560.589381	2559.940773
560.946251	2559.126627
561.303065	2556.704352
561.659825	2558.398180
562.016528	2551.527087
562.373177	2552.290822
562.729770	2550.735626
563.086307	2548.267981
563.442789	2547.093392
563.799216	2543.662887
564.155587	2547.007693
564.511904	2542.662218
564.868164	2542.490819
565.224370	2543.194060
565.580520	2543.468803
565.936615	2539.070396
566.292654	2540.237423
566.648638	2537.185004
567.004567	2539.040149
567.360441	2535.155940
567.716260	2535.261804
568.072023	2535.992772
568.427732	2530.364323
568.783385	2531.692667
569.138982	2528.390712
569.494525	2530.447502
569.850013	2523.583971
570.205445	2528.730989
570.560823	2528.365506
570.916145	2526.588499
571.271412	2527.992460
571.626625	2529.822399
571.981782	2526.066740
572.336884	2525.925587
572.691931	2524.854342
573.046923	2524.340144
573.401860	2521.958199
573.756743	2523.377284
574.111570	2523.311749
574.466342	2522.474917
574.821059	2521.927952
575.175722	2520.168590
575.530330	2520.241686
575.884882	2520.917201
576.239380	2519.329237
576.593823	2520.768487
576.948211	2517.395955
577.302544	2517.393434
577.656823	2517.176665
578.011047	2517.428723
578.365216	2515.928979
578.719330	2516.685152
579.073389	2515.573578
579.427394	2516.145749
579.781344	2515.145080
580.135239	2511.502846
580.489080	2514.817405
580.842866	2513.466376
581.196597	2514.593073
581.550273	2515.026613
581.903895	2512.732888
582.257463	2510.285407
582.610975	2510.764317
582.964434	2514.434277
583.317837	2513.519308
583.671186	2511.601149
584.024481	2511.742301
584.377721	2509.584687
584.730906	2510.870181
585.084037	2509.975377
585.437113	2508.717609
585.790135	2508.576456
586.143103	2507.134686
586.496016	2509.846827
586.848874	2502.690909
587.201679	2507.021260
587.554428	2503.978924
587.907124	2504.367093
588.259765	2498.136227
588.612352	2506.073523
588.964884	2504.924140
589.317362	2504.760303
589.669786	2504.130159
590.022155	2504.246105
590.374470	2503.943636
590.726731	2504.261229
591.078937	2505.617299
591.431090	2502.499345
591.783188	2499.399036
592.135232	2500.354334
592.487222	2501.410456
592.839157	2498.741165
593.191038	2500.603872
593.542866	2501.723008
593.894639	2498.589931
594.246358	2498.360558
594.598022	2496.139930
594.949633	2496.870897
595.301190	2495.814775
595.652692	2495.378716
596.004141	2494.325114
596.355535	2494.360403
596.706876	2492.414517
597.058162	2492.679178
597.409395	2492.152377
597.760573	2492.505258
598.111698	2489.709938
598.462768	2493.798314
598.813785	2492.275885
599.164748	2491.013076
599.515657	2492.837974
599.866511	2489.357057
600.217312	2493.546256
600.568060	2490.922336
600.918753	2493.367295
601.269392	2493.531133
601.619978	2489.160452
601.970510	2490.037613
602.320988	2491.965854
602.671412	2488.605925
603.021783	2490.854280
603.372100	2485.999649
603.722363	2488.923518
604.072572	2491.123982
604.422728	2490.345123
604.772830	2485.145173
605.122878	2485.561068
605.472872	2485.903867
605.822813	2486.816316
606.172701	2490.231698
606.522534	2489.934269
606.872314	2490.529126
607.222041	2488.946203
607.571714	2488.152222
607.921333	2487.968219
608.270899	2490.027531
608.620411	2487.312869
608.969870	2489.563745
609.319276	2488.033754
609.668627	2488.830257
610.017926	2488.235401
610.367171	2491.388642
610.716362	2487.436378
611.065500	2486.586943
611.414585	2489.629280
611.763616	2490.256903
612.112594	2488.842860
612.461518	2488.956286
612.810389	2486.707931
613.159207	2487.602736
613.507971	2485.916470
613.856682	2488.749598
614.205340	2489.052067
614.553945	2491.436533
614.902496	2486.251707
615.250994	2487.317911
615.599439	2489.891420
615.947830	2489.198261
616.296169	2490.710607
616.644454	2488.537870
616.992686	2489.223467
617.340864	2488.187510
617.688990	2489.117603
618.037063	2488.114413
618.385082	2488.779845
618.733048	2489.231028
619.080961	2486.070225
619.428821	2490.080463
619.776628	2488.926039
620.124382	2489.122644
620.472083	2489.684732
620.819731	2488.056440
621.167326	2485.843373
621.514868	2489.563745
621.862357	2487.645586
622.209793	2486.181130
622.557176	2483.446304
622.904506	2483.302632
623.251783	2478.873978
623.599007	2481.434884
623.946179	2478.074955
624.293297	2480.587970
624.640363	2480.938330
624.987376	2482.120481
625.334336	2482.672487
625.681243	2480.666108
626.028097	2480.799699
626.374899	2480.572847
626.721647	2478.752990
627.068343	2480.116622
627.414987	2476.005561
627.761577	2479.211735
628.108115	2475.788792
628.454600	2477.200315
628.801032	2476.827269
629.147412	2475.761065
629.493739	2477.860706
629.840014	2475.211580
630.186236	2474.367186
630.532405	2475.128401
630.878521	2474.220993
631.224585	2475.745942
631.570597	2473.926085
631.916556	2474.944398
632.262462	2474.074799
632.608316	2473.933647
632.954117	2477.568319
633.299866	2473.638740
633.645562	2473.684110
633.991206	2472.380972
634.336797	2473.429532
634.682336	2473.661425
635.027823	2470.614047
635.373257	2471.244192
635.718639	2467.995168
636.063968	2469.424335
636.409245	2466.737400
636.754470	2466.775209
637.099642	2467.619602
637.444762	2466.013994
637.789829	2469.512555
638.134845	2464.610033
638.479808	2462.943932
638.824719	2465.313274
639.169577	2463.301854
639.514383	2464.668006
639.859137	2464.063068
640.203839	2463.337142
640.548489	2463.624487
640.893086	2460.110803
641.237632	2455.901440
641.582125	2461.161884
641.926566	2459.284054
642.270955	2463.054837
642.615292	2458.714404
642.959576	2461.870166
643.303809	2460.254476
