Dividing Wavelength (nm)	Counts (n)	Blue Motor Position (mm): 0.000000	Red Motor Position (mm): 8.400000	
326.493990	1978.264716
326.888308	1978.264716
327.282561	1978.264716
327.676750	1951.365119
328.070874	1955.118258
328.464933	1959.977930
328.858929	1971.786833
329.252859	1981.279326
329.646726	1998.247850
330.040528	2012.138749
330.434265	2031.680782
330.827938	2046.395910
331.221547	2071.228634
331.615091	2090.011973
332.008571	2109.576691
332.401986	2131.871194
332.795338	2151.869451
333.188625	2170.738490
333.581847	2190.164577
333.975006	2208.451362
334.368100	2222.806048
334.761129	2242.786661
335.154095	2256.977509
335.546996	2271.735487
335.939833	2288.346089
336.332606	2301.821093
336.725315	2310.943061
337.117960	2318.923208
337.510540	2323.210709
337.903056	2338.467761
338.295508	2341.452124
338.687896	2346.498319
339.080220	2354.092817
339.472480	2358.604650
339.864676	2366.078161
340.256807	2369.165867
340.648875	2370.572349
341.040879	2367.671165
341.432818	2373.211393
341.824694	2373.786085
342.216506	2370.514376
342.608253	2372.941692
342.999937	2370.206866
343.391557	2371.386496
343.783113	2367.971114
344.174605	2368.661752
344.566033	2365.937008
344.957397	2364.853160
345.348697	2362.312419
345.739934	2361.813344
346.131106	2358.498786
346.522215	2356.502489
346.913260	2354.228928
347.304241	2355.506861
347.695159	2352.371263
348.086012	2351.141222
348.476802	2350.165758
348.867528	2345.336333
349.258191	2344.827177
349.648789	2346.233658
350.039324	2348.691221
350.429796	2345.328771
350.820203	2343.133349
351.210548	2342.687207
351.600828	2343.551765
351.991045	2343.476147
352.381198	2342.588904
352.771288	2342.541013
353.161314	2340.345591
353.551276	2343.786178
353.941175	2343.035046
354.331010	2343.874398
354.720782	2341.754593
355.110490	2342.213338
355.500135	2342.052021
355.889717	2344.733915
356.279235	2343.463544
356.668689	2347.622496
357.058080	2343.715602
357.447408	2343.816425
357.836672	2341.507577
358.225873	2342.992197
358.615010	2341.578153
359.004084	2347.027640
359.393095	2349.369256
359.782043	2347.811540
360.170927	2350.102744
360.559748	2350.221211
360.948505	2351.680625
361.337199	2351.448732
361.725830	2350.080059
362.114398	2353.258506
362.502903	2347.761128
362.891344	2351.763804
363.279722	2353.109792
363.668037	2353.981912
364.056289	2354.019721
364.444478	2355.781604
364.832603	2355.373270
365.220665	2358.065247
365.608665	2356.699094
365.996601	2355.539628
366.384474	2359.275123
366.772284	2361.047089
367.160031	2358.861749
367.547715	2359.612881
367.935336	2359.098683
368.322893	2362.594723
368.710388	2362.133458
369.097820	2362.632532
369.485189	2360.154805
369.872495	2362.188910
370.259738	2363.726462
370.646918	2367.981196
371.034035	2366.844416
371.421090	2370.940353
371.808081	2373.483616
372.195010	2379.394368
372.581875	2381.594832
372.968678	2386.618342
373.355418	2395.994888
373.742096	2404.884963
374.128710	2413.820408
374.515262	2424.613518
374.901751	2435.482246
375.288177	2453.975719
375.674540	2472.953143
376.060841	2493.062305
376.447079	2516.027282
376.833254	2539.418236
377.219367	2565.917061
377.605417	2601.840323
377.991404	2627.701442
378.377329	2668.786846
378.763191	2697.859180
379.148991	2742.985069
379.534727	2791.032306
379.920402	2837.544512
380.306013	2883.784496
380.691563	2945.130297
381.077049	2996.479490
381.462474	3051.765824
381.847835	3122.586474
382.233134	3189.618697
382.618371	3252.421392
383.003545	3330.211437
383.388657	3406.552150
383.773706	3491.440139
384.158693	3558.898340
384.543618	3643.720794
384.928480	3712.104046
385.313280	3805.377995
385.698017	3894.891243
386.082692	3998.479393
386.467305	4048.457392
386.851856	4150.437414
387.236344	4276.960293
387.620770	4315.315913
388.005133	4402.739602
388.389435	4507.729193
388.773674	4560.610897
389.157851	4648.059793
389.541965	4728.136001
389.926018	4718.383889
390.310008	4830.980581
390.693936	4897.957351
391.077802	4945.394608
391.461606	5004.449205
391.845348	5048.309764
392.229027	5090.645374
392.612645	5198.856262
392.996200	5236.864041
393.379694	5305.610256
393.763125	5399.854627
394.146494	5398.087703
394.529801	5425.317496
394.913047	5510.520557
395.296230	5434.570533
395.679351	5394.677362
396.062410	5473.825998
396.445408	5326.500798
396.828343	5333.732333
397.211217	5322.861085
397.594028	5176.062685
397.976778	5194.225962
398.359466	5193.885684
398.742092	5084.540537
399.124656	5064.272578
399.507158	5061.885591
399.889598	4978.580524
400.271977	4975.240760
400.654294	4890.504005
401.036549	4870.853587
401.418742	4785.557264
401.800874	4799.359943
402.182944	4729.038367
402.564952	4753.114918
402.946898	4596.660188
403.328783	4513.241695
403.710606	4468.211588
404.092367	4444.301395
404.474067	4444.709729
404.855705	4288.048311
405.237282	4179.608051
405.618797	4184.044266
406.000250	4146.283503
406.381642	4128.032006
406.762972	4019.022095
407.144240	3892.779000
407.525447	3845.702185
407.906593	3750.651229
408.287677	3704.159188
408.668700	3641.129641
409.049661	3563.720203
409.430560	3510.036956
409.811399	3431.831016
410.192176	3376.695916
410.572891	3317.439673
410.953545	3289.587298
411.334138	3184.370856
411.714669	3166.409225
412.095139	3059.191444
412.475547	3040.173691
412.855894	2981.673621
413.236180	2951.290587
413.616405	2889.067625
413.996568	2859.526464
414.376670	2818.849393
414.756711	2778.512601
415.136691	2756.961668
415.516609	2729.850343
415.896466	2700.440251
416.276262	2681.072138
416.655997	2662.329128
417.035670	2639.333905
417.415283	2630.680764
417.794834	2608.981117
418.174324	2586.842890
418.553753	2566.443861
418.933121	2556.752243
419.312428	2538.455375
419.691674	2524.655217
420.070859	2516.773372
420.449983	2505.508914
420.829045	2498.390805
421.208047	2487.469145
421.586988	2482.682570
421.965867	2478.808443
422.344686	2473.396764
422.723444	2469.162195
423.102141	2457.963272
423.480777	2461.860084
423.859352	2451.646706
424.237866	2455.092335
424.616319	2449.365584
424.994712	2450.610749
425.373044	2446.519853
425.751314	2445.982970
426.129524	2439.396702
426.507673	2443.480037
426.885762	2437.838986
427.263789	2438.716146
427.641756	2436.286310
428.019662	2433.170877
428.397508	2434.970569
428.775292	2435.136927
429.153016	2430.768767
429.530679	2431.872780
429.908282	2429.508479
430.285824	2425.654517
430.663305	2428.744744
431.040726	2424.018662
431.418086	2424.477407
431.795385	2427.555032
432.172624	2425.835998
432.549802	2425.049578
432.926920	2426.839188
433.303977	2423.133940
433.680974	2422.861718
434.057910	2425.218457
434.434786	2424.525298
434.811601	2425.107552
435.188355	2423.915319
435.565050	2423.741399
435.941683	2423.121337
436.318257	2422.087900
436.694770	2417.692014
437.071222	2420.560431
437.447614	2420.351223
437.823946	2421.278795
438.200218	2422.801224
438.576429	2423.012952
438.952580	2420.542787
439.328670	2422.344999
439.704700	2420.326017
440.080670	2421.361974
440.456580	2424.747109
440.832429	2421.500606
441.208218	2422.400452
441.583947	2423.176790
441.959616	2422.254258
442.335224	2421.752664
442.710773	2420.308373
443.086261	2425.125196
443.461689	2421.253589
443.837057	2422.317273
444.212365	2423.121337
444.587612	2424.026224
444.962800	2422.460946
445.337927	2424.089238
445.712995	2420.638569
446.088002	2423.138981
446.462949	2425.825916
446.837837	2425.198292
447.212664	2421.220822
447.587431	2429.939498
447.962139	2433.722883
448.336786	2439.840324
448.711374	2438.922834
449.085901	2432.971752
449.460369	2429.029569
449.834776	2430.630136
450.209124	2435.641042
450.583412	2436.916454
450.957640	2434.484098
451.331808	2432.510486
451.705917	2427.154260
452.079965	2430.438572
452.453954	2430.801535
452.827883	2428.888417
453.201752	2430.519230
453.575562	2429.271545
453.949311	2431.585434
454.323001	2432.475198
454.696632	2429.611822
455.070202	2435.807401
455.443713	2432.651638
455.817164	2432.941505
456.190556	2431.182142
456.563888	2432.853284
456.937160	2431.217430
457.310373	2433.158274
457.683526	2435.141968
458.056619	2436.344283
458.429653	2436.477874
458.802628	2434.032914
459.175542	2434.935281
459.548398	2436.384613
459.921194	2440.939295
460.293930	2440.762855
460.666607	2445.786365
461.039224	2445.912393
461.411782	2449.163938
461.784280	2444.352156
462.156719	2445.630089
462.529099	2445.297373
462.901419	2439.311002
463.273680	2438.338060
463.645882	2440.059614
464.018024	2442.557506
464.390106	2440.878801
464.762130	2447.863320
465.134094	2454.331120
465.505999	2463.279168
465.877845	2468.103553
466.249631	2471.869295
466.621358	2468.721094
466.993026	2465.154478
467.364634	2462.838067
467.736184	2458.739609
468.107674	2457.345730
468.479105	2456.639969
468.850477	2450.847683
469.221790	2452.342385
469.593043	2445.819132
469.964238	2446.555141
470.335373	2444.329471
470.706449	2450.525049
471.077467	2449.789041
471.448425	2462.606174
471.819324	2465.053655
472.190164	2463.420321
472.560945	2455.636779
472.931667	2448.538835
473.302330	2449.383228
473.672934	2448.218721
474.043479	2448.100254
474.413965	2444.510953
474.784393	2442.391148
475.154761	2445.856941
475.525070	2445.451128
475.895321	2445.282249
476.265513	2442.943154
476.635645	2449.736109
477.005719	2447.487754
477.375734	2447.311314
477.745691	2449.499174
478.115588	2451.762653
478.485427	2453.738785
478.855207	2460.433437
479.224928	2462.202882
479.594591	2468.524489
479.964194	2465.714046
480.333739	2465.648511
480.703226	2464.930146
481.072653	2465.058696
481.442022	2466.508027
481.811333	2468.242184
482.180584	2465.950980
482.549777	2462.041565
482.918912	2462.780094
483.287988	2464.055506
483.657005	2458.734568
484.025964	2459.999898
484.394864	2460.138530
484.763706	2461.358489
485.132489	2459.818416
485.501213	2458.301029
485.869879	2457.486883
486.238487	2456.841615
486.607036	2454.537808
486.975527	2455.188117
487.343959	2455.122582
487.712333	2455.213322
488.080648	2455.790534
488.448905	2454.948662
488.817104	2457.486883
489.185244	2458.464867
489.553326	2460.589713
489.921350	2461.056020
490.289315	2468.693368
490.657222	2470.336784
491.025070	2472.023050
491.392861	2469.217648
491.760593	2466.762606
492.128267	2467.123048
492.495883	2460.829168
492.863440	2459.021914
493.230939	2456.589557
493.598380	2455.301542
493.965763	2452.203753
494.333088	2452.851542
494.700354	2450.532611
495.067563	2448.921962
495.434713	2448.876592
495.801805	2452.405400
496.168839	2454.610904
496.535815	2454.076542
496.902733	2453.428754
497.269593	2453.678291
497.636395	2454.109310
498.003139	2451.578650
498.369825	2453.736264
498.736453	2455.724999
499.103023	2452.770883
499.469535	2456.871862
499.835989	2454.714248
500.202385	2456.972685
500.568723	2456.397993
500.935003	2457.993519
501.301226	2459.420165
501.667390	2461.396298
502.033497	2466.311423
502.399546	2461.532409
502.765537	2465.088943
503.131470	2466.132462
503.497345	2469.255456
503.863163	2467.289406
504.228923	2466.815538
504.594625	2470.969449
504.960269	2471.138327
505.325856	2472.998513
505.691385	2474.538586
506.056856	2477.470017
506.422270	2479.115953
506.787625	2479.539410
507.152924	2480.693834
507.518164	2485.772797
507.883347	2484.903198
508.248472	2485.215749
508.613540	2489.462922
508.978550	2492.192706
509.343503	2490.261944
509.708398	2495.852584
510.073236	2497.896772
510.438016	2503.623523
510.802738	2500.384581
511.167403	2505.350118
511.532010	2505.322392
511.896561	2507.532938
512.261053	2511.288597
512.625488	2507.424553
512.989866	2508.470592
513.354186	2509.877074
513.718449	2504.117556
514.082655	2514.391427
514.446803	2510.986128
514.810894	2518.036182
515.174927	2517.927797
515.538904	2512.034688
515.902822	2516.155831
516.266684	2518.389062
516.630488	2519.578775
516.994235	2515.016530
517.357925	2516.876716
517.721558	2518.028620
518.085133	2516.269257
518.448651	2516.415451
518.812112	2511.638957
519.175516	2513.390758
519.538863	2510.681138
519.902152	2513.967970
520.265385	2509.370438
520.628560	2508.992352
520.991678	2507.485047
521.354739	2507.313647
521.717743	2502.630415
522.080690	2502.849706
522.443580	2500.840806
522.806413	2499.595641
523.169189	2496.215547
523.531908	2494.030207
523.894569	2490.244300
524.257174	2491.567603
524.619722	2488.245483
524.982213	2487.406131
525.344647	2483.665595
525.707025	2482.649802
526.069345	2478.964719
526.431608	2477.618731
526.793815	2477.109574
527.155964	2476.441621
527.518057	2472.078503
527.880093	2469.363841
528.242072	2467.148254
528.603995	2464.962914
528.965860	2462.190279
529.327669	2464.705815
529.689421	2459.498303
530.051117	2461.073664
530.412755	2455.646862
530.774337	2456.937397
531.135862	2453.827005
531.497331	2448.155707
531.858743	2450.091510
532.220098	2447.086982
532.581396	2446.741663
532.942638	2446.587908
533.303824	2444.463062
533.664953	2442.938113
534.026025	2442.623041
534.387040	2443.313679
534.747999	2442.005499
535.108902	2445.052877
535.469748	2440.362083
535.830537	2443.041456
536.191270	2438.403595
536.551947	2439.749583
536.912567	2439.389140
537.273131	2438.212031
537.633638	2435.391505
537.994089	2436.205652
538.354483	2438.416198
538.714821	2435.557863
539.075103	2437.864191
539.435328	2435.134407
539.795497	2437.579366
540.155609	2437.060127
540.515665	2433.059972
540.875665	2433.798501
541.235609	2434.940322
541.595496	2434.642894
541.955328	2434.723552
542.315102	2431.792122
542.674821	2432.765064
543.034483	2432.225661
543.394090	2430.675506
543.753640	2433.790939
544.113134	2433.637184
544.472571	2433.201124
544.831953	2432.621391
545.191278	2433.647266
545.550548	2429.626946
545.909761	2434.758841
546.268918	2429.536205
546.628019	2434.766402
546.987064	2430.587286
547.346053	2433.133068
547.704986	2430.128541
548.063863	2430.705753
548.422684	2430.342790
548.781449	2431.973603
549.140158	2429.158119
549.498811	2431.161977
549.857408	2432.439910
550.215949	2428.190217
550.574434	2425.352047
550.932864	2426.965217
551.291237	2427.363468
551.649555	2429.546288
552.007817	2429.594178
552.366022	2429.402615
552.724173	2428.984199
553.082267	2431.449323
553.440305	2432.235743
553.798288	2430.320105
554.156215	2427.635690
554.514086	2430.675506
554.871902	2428.406987
555.229661	2430.186514
555.587365	2427.149219
555.945014	2428.865732
556.302606	2427.696184
556.660143	2427.219795
557.017625	2427.870104
557.375050	2429.667275
557.732421	2429.011925
558.089735	2429.755495
558.446994	2430.952769
558.804197	2429.190886
559.161345	2428.197779
559.518437	2427.492017
559.875474	2427.096287
560.232455	2430.236926
560.589381	2428.684250
560.946251	2430.647780
561.303065	2428.797676
561.659825	2427.713828
562.016528	2428.457398
562.373177	2428.598551
562.729770	2429.667275
563.086307	2428.122162
563.442789	2426.632501
563.799216	2428.454878
564.155587	2429.069898
564.511904	2429.614343
564.868164	2426.183838
565.224370	2429.200968
565.580520	2427.887748
565.936615	2430.108376
566.292654	2425.722572
566.648638	2430.831782
567.004567	2426.745927
567.360441	2429.037131
567.716260	2428.003694
568.072023	2428.840526
568.427732	2424.116965
568.783385	2427.212233
569.138982	2421.183013
569.494525	2428.830444
569.850013	2422.085380
570.205445	2427.000505
570.560823	2427.217274
570.916145	2424.868097
571.271412	2426.771132
571.626625	2428.477563
571.981782	2429.034610
572.336884	2425.135278
572.691931	2429.284148
573.046923	2427.557552
573.401860	2426.067891
573.756743	2427.287851
574.111570	2427.754157
574.466342	2425.838519
574.821059	2428.127203
575.175722	2428.462439
575.530330	2425.788107
575.884882	2425.709969
576.239380	2426.876997
576.593823	2428.364137
576.948211	2425.354568
577.302544	2423.756522
577.656823	2423.292736
578.011047	2427.078643
578.365216	2426.171235
578.719330	2423.534712
579.073389	2428.633839
579.427394	2429.190886
579.781344	2424.540422
580.135239	2425.599064
580.489080	2424.195103
580.842866	2423.136460
581.196597	2424.396749
581.550273	2425.263827
581.903895	2424.724424
582.257463	2422.644948
582.610975	2423.108734
582.964434	2424.898344
583.317837	2421.740061
583.671186	2423.789290
584.024481	2422.140832
584.377721	2425.692325
584.730906	2424.343817
585.084037	2424.321132
585.437113	2425.067222
585.790135	2421.679567
586.143103	2421.765267
586.496016	2425.455391
586.848874	2419.055646
587.201679	2419.763928
587.554428	2418.803589
587.907124	2424.749630
588.259765	2420.106727
588.612352	2422.690318
588.964884	2422.534042
589.317362	2422.944897
589.669786	2423.827098
590.022155	2425.125196
590.374470	2423.506985
590.726731	2421.863569
591.078937	2422.040009
591.431090	2422.707962
591.783188	2420.666295
592.135232	2421.286357
592.487222	2418.816192
592.839157	2425.049578
593.191038	2419.481624
593.542866	2420.053795
593.894639	2422.097983
594.246358	2421.004052
594.598022	2418.576737
594.949633	2422.224012
595.301190	2421.223342
595.652692	2422.029927
596.004141	2417.949113
596.355535	2419.416089
596.706876	2419.000194
597.058162	2419.416089
597.409395	2420.391552
597.760573	2421.266192
598.111698	2418.783424
598.462768	2419.463980
598.813785	2421.049423
599.164748	2420.260482
599.515657	2417.986922
599.866511	2420.573034
600.217312	2419.436253
600.568060	2418.052457
600.918753	2421.830802
601.269392	2419.983219
601.619978	2419.695873
601.970510	2416.814853
602.320988	2418.518763
602.671412	2420.197468
603.021783	2420.583116
603.372100	2420.928435
603.722363	2420.283167
604.072572	2419.942889
604.422728	2420.197468
604.772830	2416.461973
605.122878	2414.816036
605.472872	2419.494227
605.822813	2415.703279
606.172701	2419.627817
606.522534	2416.492220
606.872314	2420.247879
607.222041	2419.199319
607.571714	2419.126222
607.921333	2418.274267
608.270899	2421.407345
608.620411	2418.596901
608.969870	2420.376429
609.319276	2421.916501
609.668627	2419.663105
610.017926	2420.547828
610.367171	2417.482806
610.716362	2420.986408
611.065500	2419.900040
611.414585	2417.918866
611.763616	2420.303332
612.112594	2419.975657
612.461518	2419.108578
612.810389	2421.059505
613.159207	2421.233425
613.507971	2420.502458
613.856682	2420.079001
614.205340	2419.055646
614.553945	2420.875503
614.902496	2419.713517
615.250994	2421.480441
615.599439	2418.561613
615.947830	2420.434402
616.296169	2417.132446
616.644454	2419.900040
616.992686	2418.579257
617.340864	2419.040523
617.688990	2419.264854
618.037063	2420.825091
618.385082	2419.272416
618.733048	2420.996491
619.080961	2421.087231
619.428821	2419.171593
619.776628	2424.154773
620.124382	2420.368867
620.472083	2419.128743
620.819731	2420.245359
621.167326	2420.966244
621.514868	2420.285688
621.862357	2419.471542
622.209793	2421.790472
622.557176	2417.679411
622.904506	2415.761252
623.251783	2415.045408
623.599007	2418.191088
623.946179	2413.570871
624.293297	2415.955337
624.640363	2416.260327
624.987376	2416.963567
625.334336	2417.132446
625.681243	2418.143198
626.028097	2418.145718
626.374899	2417.024061
626.721647	2416.441808
627.068343	2417.601273
627.414987	2414.453073
627.761577	2416.494740
628.108115	2416.197312
628.454600	2416.827456
628.801032	2416.661098
629.147412	2417.245872
629.493739	2418.385173
629.840014	2414.987435
630.186236	2414.127918
630.532405	2415.862075
630.878521	2417.011458
631.224585	2416.444329
631.570597	2415.360481
631.916556	2416.076324
632.262462	2416.698907
632.608316	2416.557755
632.954117	2417.351736
633.299866	2414.412744
633.645562	2415.163876
633.991206	2415.037847
634.336797	2412.693710
634.682336	2417.555903
635.027823	2416.139339
635.373257	2413.701941
635.718639	2413.928793
636.063968	2413.437280
636.409245	2414.097672
636.754470	2415.720923
637.099642	2414.657240
637.444762	2418.221335
637.789829	2413.918711
638.134845	2413.177661
638.479808	2414.054822
638.824719	2413.107085
639.169577	2414.211098
639.514383	2414.145562
639.859137	2413.485171
640.203839	2412.960891
640.548489	2412.267733
640.893086	2410.823442
641.237632	2409.346384
641.582125	2412.333268
641.926566	2405.704150
642.270955	2414.160686
642.615292	2412.335788
642.959576	2417.011458
643.303809	2414.256468
643.647990	2411.899728
643.992118	2414.246386
644.336195	2414.175809
