Dividing Wavelength (nm)	Counts (n)	Blue Motor Position (mm): 0.000000	Red Motor Position (mm): 0.400000	
326.493990	1973.757924
326.888308	1973.757924
327.282561	1973.757924
327.676750	1947.599377
328.070874	1949.083997
328.464933	1956.023145
328.858929	1963.657972
329.252859	1978.146249
329.646726	1991.588485
330.040528	2006.049035
330.434265	2027.073167
330.827938	2043.759387
331.221547	2065.542212
331.615091	2084.728844
332.008571	2106.625096
332.401986	2126.152005
332.795338	2148.373411
333.188625	2168.033911
333.581847	2185.388083
333.975006	2201.431555
334.368100	2223.521892
334.761129	2238.937740
335.154095	2254.124216
335.546996	2270.777668
335.939833	2282.163114
336.332606	2295.146605
336.725315	2305.914510
337.117960	2315.122178
337.510540	2321.201809
337.903056	2328.942501
338.295508	2333.262770
338.687896	2342.276353
339.080220	2348.953361
339.472480	2354.833867
339.864676	2357.145236
340.256807	2361.523478
340.648875	2360.542974
341.040879	2364.901051
341.432818	2367.093953
341.824694	2366.688140
342.216506	2366.259642
342.608253	2367.245188
342.999937	2362.536750
343.391557	2362.438447
343.783113	2359.640607
344.174605	2359.864938
344.566033	2361.450381
344.957397	2358.697911
345.348697	2356.174814
345.739934	2352.313290
346.131106	2351.378156
346.522215	2351.289936
346.913260	2349.563341
347.304241	2347.904801
347.695159	2342.757783
348.086012	2344.191991
348.476802	2340.141424
348.867528	2341.568071
349.258191	2337.585559
349.648789	2340.953050
350.039324	2340.078410
350.429796	2338.777792
350.820203	2337.817452
351.210548	2336.957935
351.600828	2337.913234
351.991045	2336.025322
352.381198	2335.493480
352.771288	2331.851247
353.161314	2332.743531
353.551276	2334.008860
353.941175	2334.926350
354.331010	2332.988027
354.720782	2337.961125
355.110490	2336.998265
355.500135	2334.606237
355.889717	2332.919971
356.279235	2336.063131
356.668689	2335.448110
357.058080	2336.877277
357.447408	2334.644046
357.836672	2333.350990
358.225873	2336.060610
358.615010	2331.531133
359.004084	2338.976918
359.393095	2337.522545
359.782043	2340.214521
360.170927	2338.790395
360.559748	2341.673935
360.948505	2340.605210
361.337199	2340.464058
361.725830	2342.417505
362.114398	2344.643174
362.502903	2342.387258
362.891344	2343.070334
363.279722	2346.001765
363.668037	2344.363390
364.056289	2342.467917
364.444478	2343.808863
364.832603	2345.439677
365.220665	2344.307938
365.608665	2344.781806
365.996601	2344.718792
366.384474	2344.827177
366.772284	2348.960923
367.160031	2345.550582
367.547715	2344.549913
367.935336	2348.033350
368.322893	2349.109637
368.710388	2348.809688
369.097820	2351.852024
369.485189	2349.714575
369.872495	2348.093844
370.259738	2348.388752
370.646918	2350.085100
371.034035	2351.171469
371.421090	2349.044102
371.808081	2351.110975
372.195010	2350.926973
372.581875	2349.734740
372.968678	2350.614421
373.355418	2350.163238
373.742096	2349.147445
374.128710	2349.470079
374.515262	2351.138701
374.901751	2352.288084
375.288177	2352.797241
375.674540	2354.798579
376.060841	2353.361850
376.447079	2351.829339
376.833254	2349.918742
377.219367	2346.410099
377.605417	2354.065091
377.991404	2348.759277
378.377329	2351.093331
378.763191	2349.807837
379.148991	2354.987622
379.534727	2354.034844
379.920402	2355.998373
380.306013	2355.738754
380.691563	2356.706656
381.077049	2354.894361
381.462474	2354.231449
381.847835	2354.433095
382.233134	2356.525174
382.618371	2357.137674
383.003545	2356.978878
383.388657	2353.820595
383.773706	2356.114320
384.158693	2355.801768
384.543618	2356.280678
384.928480	2357.732530
385.313280	2356.260513
385.698017	2356.729341
386.082692	2356.353775
386.467305	2358.791173
386.851856	2357.793024
387.236344	2358.329907
387.620770	2358.592047
388.005133	2358.612212
388.389435	2357.989629
388.773674	2358.554238
389.157851	2361.417614
389.541965	2357.908971
389.926018	2359.713704
390.310008	2358.655062
390.693936	2360.371574
391.077802	2362.624970
391.461606	2359.315453
391.845348	2358.400483
392.229027	2360.283354
392.612645	2360.033817
392.996200	2363.534898
393.379694	2361.352079
393.763125	2361.946935
394.146494	2360.545494
394.529801	2363.265197
394.913047	2363.469363
395.296230	2361.044568
395.679351	2362.239322
396.062410	2361.737727
396.445408	2363.376102
396.828343	2361.112624
397.211217	2359.665813
397.594028	2360.053982
397.976778	2359.648169
398.359466	2361.180680
398.742092	2359.975844
399.124656	2362.856863
399.507158	2365.599251
399.889598	2364.190248
400.271977	2366.136134
400.654294	2366.536906
401.036549	2365.921885
401.418742	2366.007584
401.800874	2368.223172
402.182944	2362.680423
402.564952	2365.309385
402.946898	2366.496576
403.328783	2366.494056
403.710606	2365.697553
404.092367	2364.686802
404.474067	2367.076309
404.855705	2365.695033
405.237282	2364.868284
405.618797	2366.025228
406.000250	2364.119672
406.381642	2367.020856
406.762972	2367.277955
407.144240	2366.194107
407.525447	2366.506659
407.906593	2368.150075
408.287677	2367.522451
408.668700	2368.296268
409.049661	2369.468337
409.430560	2367.429190
409.811399	2368.744931
410.192176	2369.788450
410.572891	2370.138810
410.953545	2369.904396
411.334138	2367.530013
411.714669	2366.884745
412.095139	2369.796012
412.475547	2369.750641
412.855894	2368.598738
413.236180	2369.833820
413.616405	2371.988913
413.996568	2368.734849
414.376670	2369.732997
414.756711	2370.148892
415.136691	2371.482278
415.516609	2370.993286
415.896466	2371.681403
416.276262	2370.935312
416.655997	2367.993799
417.035670	2368.323995
417.415283	2370.448841
417.794834	2364.989271
418.174324	2373.995293
418.553753	2371.714171
418.933121	2371.084026
419.312428	2371.958667
419.691674	2371.827597
420.070859	2372.682072
420.449983	2370.917668
420.829045	2372.631661
421.208047	2373.289531
421.586988	2372.712319
421.965867	2374.186857
422.344686	2373.723070
422.723444	2375.366487
423.102141	2374.443955
423.480777	2372.861033
423.859352	2371.767103
424.237866	2374.212062
424.616319	2374.738863
424.994712	2372.568646
425.373044	2376.324306
425.751314	2375.540406
426.129524	2374.514532
426.507673	2372.729963
426.885762	2374.524614
427.263789	2374.605272
427.641756	2373.113091
428.019662	2372.677031
428.397508	2374.070910
428.775292	2374.990921
429.153016	2375.449666
429.530679	2376.987217
429.908282	2374.005375
430.285824	2375.888246
430.663305	2376.142824
431.040726	2373.145858
431.418086	2372.961856
431.795385	2379.288504
432.172624	2376.117618
432.549802	2375.391692
432.926920	2375.389172
433.303977	2379.258257
433.680974	2377.382948
434.057910	2375.709285
434.434786	2375.079141
434.811601	2378.890253
435.188355	2379.119626
435.565050	2377.130890
435.941683	2377.387989
436.318257	2375.888246
436.694770	2373.793647
437.071222	2376.563761
437.447614	2373.390354
437.823946	2377.133411
438.200218	2377.753473
438.576429	2376.843545
438.952580	2376.704913
439.328670	2380.067363
439.704700	2378.469317
440.080670	2377.967722
440.456580	2376.417567
440.832429	2379.278422
441.208218	2378.388658
441.583947	2377.387989
441.959616	2379.283463
442.335224	2379.033926
442.710773	2378.865047
443.086261	2379.480068
443.461689	2379.754811
443.837057	2378.552496
444.212365	2379.318751
444.587612	2378.300438
444.962800	2380.604245
445.337927	2380.727754
445.712995	2379.285984
446.088002	2379.638864
446.462949	2379.374204
446.837837	2377.564430
447.212664	2377.932434
447.587431	2378.658360
447.962139	2378.101312
448.336786	2378.827239
448.711374	2381.476365
449.085901	2381.589791
449.460369	2381.090717
449.834776	2380.642054
450.209124	2379.792620
450.583412	2378.557537
450.957640	2378.764224
451.331808	2382.146838
451.705917	2379.399410
452.079965	2380.629451
452.453954	2379.742208
452.827883	2381.811602
453.201752	2382.746736
453.575562	2380.768083
453.949311	2381.509133
454.323001	2380.843700
454.696632	2380.717671
455.070202	2380.763042
455.443713	2381.448639
455.817164	2380.700027
456.190556	2376.488143
456.563888	2377.829090
456.937160	2375.900849
457.310373	2382.716489
457.683526	2382.136756
458.056619	2383.676829
458.429653	2382.703886
458.802628	2382.945861
459.175542	2384.574154
459.548398	2382.963505
459.921194	2381.279760
460.293930	2382.928217
460.666607	2383.069370
461.039224	2381.998124
461.411782	2380.997455
461.784280	2383.525594
462.156719	2383.830584
462.529099	2381.781355
462.901419	2382.368649
463.273680	2383.568444
463.645882	2384.617004
464.018024	2384.685059
464.390106	2382.676160
464.762130	2384.254041
465.134094	2382.923176
465.505999	2382.860162
465.877845	2383.480224
466.249631	2383.742364
466.621358	2385.723537
466.993026	2383.570964
467.364634	2390.449619
467.736184	2383.646582
468.107674	2384.261602
468.479105	2386.202447
468.850477	2385.499206
469.221790	2386.257899
469.593043	2385.090872
469.964238	2386.837632
470.335373	2384.216232
470.706449	2385.128681
471.077467	2381.362939
471.448425	2383.150028
471.819324	2384.402755
472.190164	2383.223125
472.560945	2384.737992
472.931667	2384.334699
473.302330	2385.617673
473.672934	2383.545759
474.043479	2383.767569
474.413965	2384.932076
474.784393	2380.634492
475.154761	2382.711448
475.525070	2382.668598
475.895321	2381.733464
476.265513	2379.056611
476.635645	2381.786396
477.005719	2385.007693
477.375734	2385.358053
477.745691	2384.337220
478.115588	2384.538866
478.485427	2387.314021
478.855207	2387.447612
479.224928	2385.257230
479.594591	2383.192878
479.964194	2388.932232
480.333739	2385.615152
480.703226	2386.295708
481.072653	2386.172200
481.442022	2383.250851
481.811333	2384.629607
482.180584	2385.083311
482.549777	2387.298898
482.918912	2385.637837
483.287988	2384.296891
483.657005	2388.120606
484.025964	2388.024824
484.394864	2387.198075
484.763706	2387.606408
485.132489	2387.104813
485.501213	2385.836963
485.869879	2385.196737
486.238487	2387.520708
486.607036	2386.688918
486.975527	2386.658671
487.343959	2387.528270
487.712333	2387.135060
488.080648	2385.894936
488.448905	2385.065667
488.817104	2388.274361
489.185244	2388.838970
489.553326	2388.140770
489.921350	2386.963661
490.289315	2389.375853
490.657222	2388.503733
491.025070	2389.093548
491.392861	2389.234701
491.760593	2387.964330
492.128267	2388.909546
492.495883	2388.571789
492.863440	2389.310318
493.230939	2388.622201
493.598380	2389.547252
493.965763	2384.299411
494.333088	2385.511809
494.700354	2383.941489
495.067563	2386.870400
495.434713	2380.752959
495.801805	2388.975081
496.168839	2387.563558
496.535815	2388.319731
496.902733	2386.794782
497.269593	2386.225132
497.636395	2388.044988
498.003139	2387.979453
498.369825	2386.726727
498.736453	2387.994577
499.103023	2387.467776
499.469535	2389.900133
499.835989	2386.613301
500.202385	2389.716131
500.568723	2386.641027
500.935003	2385.826881
501.301226	2387.440050
501.667390	2388.919629
502.033497	2387.213198
502.399546	2387.067005
502.765537	2387.419885
503.131470	2389.632952
503.497345	2389.819475
503.863163	2391.404918
504.228923	2389.343086
504.594625	2388.276882
504.960269	2387.326624
505.325856	2390.316028
505.691385	2387.971892
506.056856	2388.826367
506.422270	2389.549773
506.787625	2387.676984
507.152924	2387.679505
507.518164	2388.803682
507.883347	2389.164125
508.248472	2387.752602
508.613540	2390.462222
508.978550	2387.182951
509.343503	2388.647406
509.708398	2388.720503
510.073236	2387.435009
510.438016	2389.643034
510.802738	2389.474156
511.167403	2390.338713
511.532010	2390.928528
511.896561	2390.058929
512.261053	2391.228477
512.625488	2389.794269
512.989866	2385.811757
513.354186	2389.012890
513.718449	2383.152549
514.082655	2386.963661
514.446803	2389.375853
514.810894	2390.295864
515.174927	2392.176214
515.538904	2389.844680
515.902822	2390.399207
516.266684	2391.425082
516.630488	2392.299722
516.994235	2387.893754
517.357925	2390.048847
517.721558	2389.191851
518.085133	2389.733775
518.448651	2390.210164
518.812112	2389.549773
519.175516	2391.029352
519.538863	2390.777294
519.902152	2390.888199
520.265385	2390.346275
520.628560	2389.990874
520.991678	2388.591954
521.354739	2390.724362
521.717743	2391.082284
522.080690	2390.764691
522.443580	2389.582540
522.806413	2391.372150
523.169189	2391.669578
523.531908	2389.002808
523.894569	2389.670761
524.257174	2392.062788
524.619722	2390.394166
524.982213	2390.283261
525.344647	2393.076060
525.707025	2390.038765
526.069345	2389.920298
526.431608	2388.060112
526.793815	2390.968858
527.155964	2392.309805
527.518057	2390.406769
527.880093	2392.529095
528.242072	2391.838457
528.603995	2389.537170
528.965860	2388.183620
529.327669	2390.147150
529.689421	2392.463560
530.051117	2389.295195
530.412755	2386.872920
530.774337	2391.374671
531.135862	2390.220246
531.497331	2389.325442
531.858743	2384.614483
532.220098	2389.017931
532.581396	2387.853425
532.942638	2387.447612
533.303824	2390.313508
533.664953	2390.951214
534.026025	2390.016080
534.387040	2392.597150
534.747999	2391.470453
535.108902	2391.316697
535.469748	2390.653786
535.830537	2391.364588
536.191270	2393.486914
536.551947	2390.673950
536.912567	2392.360216
537.273131	2389.842160
537.633638	2391.137736
537.994089	2389.111193
538.354483	2389.459032
538.714821	2390.827705
539.075103	2391.692263
539.435328	2392.201420
539.795497	2391.785525
540.155609	2391.112531
540.515665	2391.019269
540.875665	2389.582540
541.235609	2391.725031
541.595496	2392.786194
541.955328	2391.641852
542.315102	2390.983981
542.674821	2390.162273
543.034483	2392.188817
543.394090	2388.864176
543.753640	2392.556821
544.113134	2390.119423
544.472571	2390.681512
544.831953	2392.786194
545.191278	2392.118241
545.550548	2390.263096
545.909761	2391.268806
546.268918	2393.302912
546.628019	2393.481873
546.987064	2392.763508
547.346053	2393.696122
547.704986	2392.385422
548.063863	2390.651265
548.422684	2391.863662
548.781449	2391.180586
549.140158	2389.524567
549.498811	2393.688560
549.857408	2394.404404
550.215949	2390.757129
550.574434	2386.197406
550.932864	2389.701008
551.291237	2389.206974
551.649555	2393.766698
552.007817	2394.308622
552.366022	2394.222923
552.724173	2393.159239
553.082267	2392.221584
553.440305	2389.693446
553.798288	2392.526574
554.156215	2390.530277
554.514086	2390.638662
554.871902	2391.435164
555.229661	2392.435833
555.587365	2392.055226
555.945014	2394.064126
556.302606	2392.423231
556.660143	2391.533467
557.017625	2389.141439
557.375050	2392.924825
557.732421	2390.885679
558.089735	2391.334341
558.446994	2392.455998
558.804197	2393.902809
559.161345	2388.803682
559.518437	2392.660165
559.875474	2392.677809
560.232455	2391.800648
560.589381	2391.092366
560.946251	2394.003632
561.303065	2389.781666
561.659825	2393.673437
562.016528	2391.954403
562.373177	2393.607902
562.729770	2391.218395
563.086307	2391.089845
563.442789	2388.302087
563.799216	2394.757285
564.155587	2391.072201
564.511904	2393.476832
564.868164	2391.798128
565.224370	2392.453477
565.580520	2391.142778
565.936615	2390.686553
566.292654	2390.227808
566.648638	2391.798128
567.004567	2390.646224
567.360441	2390.663868
567.716260	2390.444578
568.072023	2393.285268
568.427732	2388.896943
568.783385	2390.767212
569.138982	2386.504916
569.494525	2389.320400
569.850013	2386.867879
570.205445	2393.378529
570.560823	2389.592623
570.916145	2390.779814
571.271412	2391.460370
571.626625	2393.161760
571.981782	2391.500699
572.336884	2391.546070
572.691931	2390.711759
573.046923	2392.062788
573.401860	2389.769063
573.756743	2393.875083
574.111570	2393.416338
574.466342	2393.428941
574.821059	2392.148488
575.175722	2391.656975
575.530330	2391.541029
575.884882	2389.524567
576.239380	2392.640000
576.593823	2395.405073
576.948211	2390.948693
577.302544	2392.450957
577.656823	2391.888868
578.011047	2394.313663
578.365216	2394.119579
578.719330	2391.987171
579.073389	2391.868704
579.427394	2393.822151
579.781344	2390.293343
580.135239	2392.566903
580.489080	2392.214023
580.842866	2391.067160
581.196597	2390.673950
581.550273	2390.341234
581.903895	2389.776625
582.257463	2393.000443
582.610975	2391.233518
582.964434	2392.597150
583.317837	2392.841646
583.671186	2393.733931
584.024481	2392.985319
584.377721	2391.233518
584.730906	2392.428272
585.084037	2393.915412
585.437113	2392.856770
585.790135	2390.245452
586.143103	2390.278220
586.496016	2391.692263
586.848874	2386.865358
587.201679	2390.021121
587.554428	2388.654968
587.907124	2390.310987
588.259765	2387.228322
588.612352	2392.014897
588.964884	2391.041954
589.317362	2393.128992
589.669786	2391.210833
590.022155	2393.668396
590.374470	2392.808879
590.726731	2390.406769
591.078937	2394.026317
591.431090	2394.331307
591.783188	2393.020607
592.135232	2390.661347
592.487222	2391.886348
592.839157	2392.362737
593.191038	2391.558673
593.542866	2393.166801
593.894639	2393.814589
594.246358	2391.593961
594.598022	2391.530946
594.949633	2394.880793
595.301190	2390.769732
595.652692	2393.426420
596.004141	2391.835936
596.355535	2391.530946
596.706876	2391.992212
597.058162	2389.544732
597.409395	2390.845349
597.760573	2390.747047
598.111698	2391.667057
598.462768	2393.638149
598.813785	2392.496327
599.164748	2391.956924
599.515657	2393.033210
599.866511	2393.703684
600.217312	2391.064640
600.568060	2393.885165
600.918753	2394.462377
601.269392	2391.911553
601.619978	2392.703015
601.970510	2395.616802
602.320988	2389.212016
602.671412	2394.293499
603.021783	2392.282078
603.372100	2394.316184
603.722363	2393.655793
604.072572	2390.747047
604.422728	2393.895247
604.772830	2387.871069
605.122878	2386.688918
605.472872	2390.696635
605.822813	2384.995090
606.172701	2391.951883
606.522534	2390.348796
606.872314	2392.841646
607.222041	2389.179248
607.571714	2390.547921
607.921333	2389.985833
608.270899	2396.836761
608.620411	2393.870042
608.969870	2390.162273
609.319276	2392.826523
609.668627	2392.128323
610.017926	2394.233005
610.367171	2393.154198
610.716362	2392.367778
611.065500	2391.470453
611.414585	2389.363250
611.763616	2392.771070
612.112594	2390.184958
612.461518	2391.450288
612.810389	2389.174207
613.159207	2391.818292
613.507971	2391.556152
613.856682	2390.913405
614.205340	2391.982130
614.553945	2394.187634
614.902496	2390.747047
615.250994	2393.607902
615.599439	2388.869217
615.947830	2394.905999
616.296169	2391.840977
616.644454	2390.318549
616.992686	2394.812737
617.340864	2392.105638
617.688990	2389.368291
618.037063	2392.496327
618.385082	2390.295864
618.733048	2390.852911
619.080961	2391.462891
619.428821	2392.571945
619.776628	2391.513302
620.124382	2392.849208
620.472083	2393.476832
620.819731	2392.980278
621.167326	2394.104455
621.514868	2393.408776
621.862357	2393.960783
622.209793	2390.051368
622.557176	2393.701163
622.904506	2389.695966
623.251783	2387.651778
623.599007	2389.189330
623.946179	2388.183620
624.293297	2388.995246
624.640363	2393.537326
624.987376	2391.500699
625.334336	2390.915926
625.681243	2390.815103
626.028097	2390.328631
626.374899	2391.092366
626.721647	2391.205792
627.068343	2391.903992
627.414987	2389.663199
627.761577	2394.921122
628.108115	2388.899464
628.454600	2394.386760
628.801032	2393.267624
629.147412	2392.266955
629.493739	2391.001625
629.840014	2391.931718
630.186236	2393.055895
630.532405	2392.355175
630.878521	2390.363919
631.224585	2391.972047
631.570597	2392.778632
631.916556	2392.433313
632.262462	2391.707387
632.608316	2391.599002
632.954117	2392.098076
633.299866	2392.455998
633.645562	2391.198230
633.991206	2393.282747
634.336797	2390.734444
634.682336	2390.900802
635.027823	2391.924156
635.373257	2389.779145
635.718639	2392.697973
636.063968	2394.028838
636.409245	2392.576986
636.754470	2391.246121
637.099642	2392.327449
637.444762	2392.057747
637.789829	2391.767881
638.134845	2392.448436
638.479808	2394.709394
638.824719	2392.889537
639.169577	2390.333672
639.514383	2390.094218
639.859137	2391.772922
640.203839	2391.145298
640.548489	2394.364075
640.893086	2389.322921
641.237632	2385.521891
641.582125	2389.436347
641.926566	2385.098434
642.270955	2391.336862
642.615292	2390.704197
642.959576	2390.699156
643.303809	2391.208312
643.647990	2391.767881
643.992118	2392.793755
644.336195	2391.805689
