Dividing Wavelength (nm)	Counts (n)	Blue Motor Position (mm): 0.000000	Red Motor Position (mm): 22.000000	
326.493990	1985.282002
326.888308	1985.282002
327.282561	1985.282002
327.676750	1960.371140
328.070874	1961.702005
328.464933	1967.441358
328.858929	1977.831177
329.252859	1988.639410
329.646726	2001.932933
330.040528	2018.162928
330.434265	2039.728984
330.827938	2054.865048
331.221547	2078.659295
331.615091	2096.837695
332.008571	2118.663371
332.401986	2141.255302
332.795338	2159.083343
333.188625	2178.499347
333.581847	2199.120186
333.975006	2215.302290
334.368100	2233.210989
334.761129	2249.181365
335.154095	2263.798190
335.546996	2283.292332
335.939833	2303.792184
336.332606	2318.267858
336.725315	2327.946873
337.117960	2336.441217
337.510540	2340.504387
337.903056	2353.192971
338.295508	2358.458457
338.687896	2368.260980
339.080220	2373.332381
339.472480	2378.819677
339.864676	2382.739174
340.256807	2385.295039
340.648875	2389.070863
341.040879	2387.959289
341.432818	2389.433826
341.824694	2390.840308
342.216506	2392.040103
342.608253	2391.377191
342.999937	2388.856614
343.391557	2387.311501
343.783113	2382.040974
344.174605	2385.289998
344.566033	2383.018958
344.957397	2383.961654
345.348697	2379.464945
345.739934	2379.769934
346.131106	2376.762886
346.522215	2377.635006
346.913260	2374.365817
347.304241	2375.331198
347.695159	2371.666280
348.086012	2369.256608
348.476802	2369.856505
348.867528	2366.867101
349.258191	2365.004395
349.648789	2364.253263
350.039324	2363.721421
350.429796	2364.492718
350.820203	2362.806452
351.210548	2362.055320
351.600828	2361.152953
351.991045	2360.490042
352.381198	2361.372243
352.771288	2363.179497
353.161314	2360.885772
353.551276	2360.399301
353.941175	2361.813344
354.331010	2361.702439
354.720782	2361.528519
355.110490	2362.491380
355.500135	2361.357120
355.889717	2362.819055
356.279235	2365.455578
356.668689	2365.306864
357.058080	2364.976668
357.447408	2364.689323
357.836672	2361.284023
358.225873	2365.755527
358.615010	2362.587162
359.004084	2367.091433
359.393095	2369.533872
359.782043	2369.485981
360.170927	2368.931454
360.559748	2369.627133
360.948505	2371.507483
361.337199	2371.504963
361.725830	2373.085364
362.114398	2372.286342
362.502903	2374.433873
362.891344	2374.519573
363.279722	2375.099305
363.668037	2376.931765
364.056289	2377.854296
364.444478	2379.696838
364.832603	2378.270191
365.220665	2381.816643
365.608665	2380.639533
365.996601	2379.117105
366.384474	2381.420912
366.772284	2383.898639
367.160031	2382.459390
367.547715	2385.428630
367.935336	2382.456869
368.322893	2387.866027
368.710388	2387.621532
369.097820	2388.849053
369.485189	2390.061450
369.872495	2392.892058
370.259738	2392.279558
370.646918	2394.243087
371.034035	2396.806514
371.421090	2398.417163
371.808081	2400.869684
372.195010	2407.526527
372.581875	2411.998031
372.968678	2416.996335
373.355418	2425.331883
373.742096	2435.547781
374.128710	2446.361056
374.515262	2457.466718
374.901751	2469.547843
375.288177	2487.650627
375.674540	2507.394306
376.060841	2527.508510
376.447079	2550.158414
376.833254	2576.017012
377.219367	2597.182297
377.605417	2636.926754
377.991404	2663.148316
378.377329	2700.775488
378.763191	2736.849985
379.148991	2782.527880
379.534727	2832.662155
379.920402	2878.340050
380.306013	2931.821651
380.691563	2994.372288
381.077049	3048.305072
381.462474	3103.102415
381.847835	3177.257788
382.233134	3252.207142
382.618371	3307.642191
383.003545	3395.053278
383.388657	3476.573777
383.773706	3568.741192
384.158693	3644.058552
384.543618	3734.766553
384.928480	3811.205569
385.313280	3919.066097
385.698017	4022.190460
386.082692	4146.752331
386.467305	4208.970252
386.851856	4337.592771
387.236344	4489.412161
387.620770	4552.161923
388.005133	4677.611037
388.389435	4821.888860
388.773674	4912.271707
389.157851	5042.414135
389.541965	5177.837171
389.926018	5200.860121
390.310008	5379.211103
390.693936	5499.175441
391.077802	5616.798163
391.461606	5749.645169
391.845348	5863.234968
392.229027	5982.859029
392.612645	6209.247166
392.996200	6320.276058
393.379694	6497.911197
393.763125	6719.911009
394.146494	6820.411452
394.529801	6950.095135
394.913047	7194.137392
395.296230	7188.869387
395.679351	7241.483909
396.062410	7498.761717
396.445408	7394.992085
396.828343	7550.678039
397.211217	7680.399531
397.594028	7561.776140
397.976778	7770.366483
398.359466	7933.150382
398.742092	7906.321361
399.124656	8053.167652
399.507158	8240.388544
399.889598	8263.610619
400.271977	8466.731311
400.654294	8499.826486
401.036549	8693.434520
401.418742	8722.905105
401.800874	9026.853914
402.182944	9100.820244
402.564952	9466.104772
402.946898	9296.716962
403.328783	9342.810752
403.710606	9546.806084
404.092367	9796.983426
404.474067	10153.234206
404.855705	9948.928844
405.237282	9907.853522
405.618797	10323.819291
406.000250	10579.927550
406.381642	10928.949316
406.762972	10888.824252
407.144240	10686.850423
407.525447	10934.870151
407.906593	10876.773374
408.287677	11133.012703
408.668700	11293.225614
409.049661	11260.526169
409.430560	11420.875191
409.811399	11391.709595
410.192176	11560.479864
410.572891	11625.979576
410.953545	12101.075559
411.334138	11574.887482
411.714669	12179.921725
412.095139	11497.059628
412.475547	11989.807211
412.855894	11840.861279
413.236180	12160.830876
413.616405	11850.729338
413.996568	12122.061882
414.376670	12093.544075
414.756711	11973.481434
415.136691	12249.058630
415.516609	12420.858632
415.896466	12497.789161
416.276262	12786.682564
416.655997	13225.512486
417.035670	13266.799536
417.415283	13903.986258
417.794834	13983.583557
418.174324	13733.197007
418.553753	13635.035660
418.933121	14123.664620
419.312428	13931.853757
419.691674	13836.666690
420.070859	14287.008087
420.449983	13948.600470
420.829045	14495.381660
421.208047	14237.259460
421.586988	14688.820816
421.965867	14939.235092
422.344686	14931.832157
422.723444	15494.997097
423.102141	14195.702708
423.480777	15366.944228
423.859352	14871.300503
424.237866	15972.217926
424.616319	15659.794937
424.994712	16310.406253
425.373044	16103.650889
425.751314	16759.943585
426.129524	15892.471914
426.507673	16958.895242
426.885762	16659.657391
427.263789	16842.285792
427.641756	17008.086822
428.019662	17051.914613
428.397508	17076.686843
428.775292	17357.680758
429.153016	17301.565154
429.530679	17365.174434
429.908282	17371.783386
430.285824	17068.106799
430.663305	17743.089573
431.040726	17324.676324
431.418086	17118.944315
431.795385	17721.243733
432.172624	18106.488710
432.549802	17630.419784
432.926920	17760.237058
433.303977	17614.036034
433.680974	17817.933063
434.057910	18043.809523
434.434786	18019.859001
434.811601	17876.765849
435.188355	18810.740422
435.565050	18409.401562
435.941683	18289.780022
436.318257	19045.943017
436.694770	18785.050703
437.071222	19242.704293
437.447614	18288.108880
437.823946	18219.110607
438.200218	18266.305889
438.576429	17941.393442
438.952580	18084.342921
439.328670	17950.976675
439.704700	18208.463690
440.080670	17702.352009
440.456580	18097.641485
440.832429	18124.530999
441.208218	17125.918752
441.583947	17378.407463
441.959616	17324.320923
442.335224	17387.103453
442.710773	17347.416969
443.086261	17644.403945
443.461689	16976.388046
443.837057	16919.254129
444.212365	17274.867204
444.587612	17104.234228
444.962800	16614.334898
445.337927	16754.451248
445.712995	15636.678726
446.088002	16846.890886
446.462949	16800.570244
446.837837	16741.666882
447.212664	16523.110177
447.587431	18331.455241
447.962139	20170.926909
448.336786	21613.722784
448.711374	20284.627614
449.085901	17533.201133
449.460369	17224.269142
449.834776	16918.240857
450.209124	18283.329866
450.583412	17744.601919
450.957640	17831.052666
451.331808	16743.643014
451.705917	15671.281206
452.079965	15439.690599
452.453954	15409.506690
452.827883	15091.906436
453.201752	14747.638478
453.575562	14610.148569
453.949311	14951.381752
454.323001	14732.169698
454.696632	14367.900962
455.070202	14891.344130
455.443713	14716.632861
455.817164	14719.123191
456.190556	14710.016347
456.563888	14201.701681
456.937160	14122.507675
457.310373	13147.498109
457.683526	13059.870253
458.056619	12790.919654
458.429653	12506.149914
458.802628	12479.446922
459.175542	12284.661779
459.548398	12521.875794
459.921194	12864.258360
460.293930	12880.621945
460.666607	13347.478162
461.039224	13689.797714
461.411782	13527.328887
461.784280	12817.690701
462.156719	12338.564316
462.529099	11879.915098
462.901419	11210.084384
463.273680	10644.590431
463.645882	10413.617364
464.018024	10167.286423
464.390106	10152.457869
464.762130	10618.210072
465.134094	11444.442585
465.505999	12568.471179
465.877845	13475.200836
466.249631	13403.563519
466.621358	12574.087024
466.993026	11716.115407
467.364634	10920.742318
467.736184	10227.379497
468.107674	9719.374862
468.479105	9322.963730
468.850477	8948.952964
469.221790	8474.315727
469.593043	7959.994526
469.964238	7608.081658
470.335373	7393.066364
470.706449	7445.940507
471.077467	7621.985161
471.448425	8074.632885
471.819324	8298.694529
472.190164	7855.282199
472.560945	7200.905142
472.931667	6631.882381
473.302330	6327.147151
473.672934	6084.037507
474.043479	5973.608511
474.413965	5755.870994
474.784393	5578.550928
475.154761	5529.848341
475.525070	5402.420575
475.895321	5240.657510
476.265513	5157.503677
476.635645	5123.974963
477.005719	4993.983770
477.375734	4915.089712
477.745691	4853.932954
478.115588	4832.439995
478.485427	4853.121328
478.855207	4957.770641
479.224928	5018.771123
479.594591	4995.135673
479.964194	4818.700330
480.333739	4707.124472
480.703226	4603.596816
481.072653	4543.566756
481.442022	4481.379082
481.811333	4403.644490
482.180584	4261.307511
482.549777	4160.350843
482.918912	4062.005493
483.287988	3976.847802
483.657005	3886.724574
484.025964	3797.919608
484.394864	3737.607243
484.763706	3667.860359
485.132489	3592.759770
485.501213	3537.780946
485.869879	3497.237466
486.238487	3447.685445
486.607036	3414.890218
486.975527	3361.587578
487.343959	3333.331911
487.712333	3300.403094
488.080648	3269.904113
488.448905	3249.863006
488.817104	3217.544169
489.185244	3209.987479
489.553326	3214.882439
489.921350	3240.499063
490.289315	3267.121396
490.657222	3258.029675
491.025070	3241.492170
491.392861	3202.254349
491.760593	3162.585509
492.128267	3116.123715
492.495883	3076.442273
492.863440	3041.804504
493.230939	3012.951460
493.598380	2983.808550
493.965763	2963.971610
494.333088	2945.712550
494.700354	2925.505085
495.067563	2915.301790
495.434713	2901.612537
495.801805	2896.236146
496.168839	2885.253992
496.535815	2875.320399
496.902733	2865.863194
497.269593	2853.194774
497.636395	2846.795030
498.003139	2848.244361
498.369825	2834.134172
498.736453	2832.246260
499.103023	2822.063129
499.469535	2814.095585
499.835989	2808.482260
500.202385	2803.063020
500.568723	2800.169398
500.935003	2797.810138
501.301226	2788.917542
501.667390	2791.727986
502.033497	2793.068932
502.399546	2781.547375
502.765537	2775.253495
503.131470	2773.368103
503.497345	2773.743669
503.863163	2761.755805
504.228923	2765.115734
504.594625	2768.367279
504.960269	2759.875455
505.325856	2765.917278
505.691385	2756.419744
506.056856	2757.470825
506.422270	2764.069695
506.787625	2759.925867
507.152924	2755.698859
507.518164	2758.302615
507.883347	2751.527304
508.248472	2753.044692
508.613540	2755.986205
508.978550	2761.503748
509.343503	2757.445619
509.708398	2759.993922
510.073236	2765.403080
510.438016	2763.222781
510.802738	2758.408479
511.167403	2767.568256
511.532010	2769.166302
511.896561	2772.959770
512.261053	2780.937396
512.625488	2775.767692
512.989866	2772.816097
513.354186	2771.994389
513.718449	2768.944491
514.082655	2781.774227
514.446803	2779.911521
514.810894	2784.388066
515.174927	2786.843107
515.538904	2782.737088
515.902822	2790.243366
516.266684	2786.303704
516.630488	2792.579941
516.994235	2789.860238
517.357925	2796.025569
517.721558	2796.489355
518.085133	2800.519758
518.448651	2803.819193
518.812112	2801.059161
519.175516	2800.091260
519.538863	2803.531847
519.902152	2801.643935
520.265385	2812.273208
520.628560	2810.879329
520.991678	2807.980666
521.354739	2809.435038
521.717743	2812.502581
522.080690	2814.088023
522.443580	2815.779331
522.806413	2818.118426
523.169189	2818.400731
523.531908	2822.262254
523.894569	2819.010710
524.257174	2819.557675
524.619722	2823.537666
524.982213	2822.799137
525.344647	2822.423571
525.707025	2821.501040
526.069345	2828.326762
526.431608	2827.845332
526.793815	2827.147132
527.155964	2821.685042
527.518057	2825.763336
527.880093	2824.402224
528.242072	2827.822647
528.603995	2824.712255
528.965860	2827.573110
529.327669	2831.157370
529.689421	2826.101093
530.051117	2827.086639
530.412755	2825.891885
530.774337	2827.189982
531.135862	2823.593119
531.497331	2826.232163
531.858743	2819.482058
532.220098	2830.197031
532.581396	2821.760660
532.942638	2821.687563
533.303824	2822.166472
533.664953	2823.399035
534.026025	2818.592294
534.387040	2823.467090
534.747999	2822.925166
535.108902	2825.095383
535.469748	2822.209322
535.830537	2821.627069
536.191270	2823.784683
536.551947	2820.765032
536.912567	2824.860969
537.273131	2822.171514
537.633638	2817.780669
537.994089	2822.811740
538.354483	2816.827891
538.714821	2821.231338
539.075103	2823.983808
539.435328	2819.565237
539.795497	2819.214877
540.155609	2817.677325
540.515665	2823.278047
540.875665	2816.787561
541.235609	2818.040288
541.595496	2817.047181
541.955328	2822.274857
542.315102	2816.074238
542.674821	2818.917449
543.034483	2817.248827
543.394090	2815.754125
543.753640	2814.251861
544.113134	2821.720330
544.472571	2813.863692
544.831953	2820.548262
545.191278	2815.212201
545.550548	2809.803043
545.909761	2814.796306
546.268918	2817.692448
546.628019	2821.506081
546.987064	2814.861841
547.346053	2808.552837
547.704986	2814.904690
548.063863	2812.424443
548.422684	2810.324802
548.781449	2807.355562
549.140158	2811.058290
549.498811	2811.179278
549.857408	2801.079326
550.215949	2805.407157
550.574434	2805.281128
550.932864	2801.086888
551.291237	2805.530665
551.649555	2802.727783
552.007817	2805.195428
552.366022	2801.691826
552.724173	2802.503452
553.082267	2805.467650
553.440305	2803.796508
553.798288	2799.710653
554.156215	2799.957669
554.514086	2799.924902
554.871902	2796.091104
555.229661	2795.642442
555.587365	2790.538273
555.945014	2791.218829
556.302606	2787.377470
556.660143	2787.498457
557.017625	2787.072480
557.375050	2782.870678
557.732421	2781.517128
558.089735	2782.439660
558.446994	2777.126283
558.804197	2779.074689
559.161345	2777.537137
559.518437	2768.654624
559.875474	2767.558173
560.232455	2767.227978
560.589381	2762.736310
560.946251	2762.406114
561.303065	2761.687750
561.659825	2758.312697
562.016528	2755.106523
562.373177	2746.531521
562.729770	2749.137797
563.086307	2741.833165
563.442789	2742.811149
563.799216	2741.089595
564.155587	2735.614902
564.511904	2732.068450
564.868164	2728.370764
565.224370	2730.757750
565.580520	2725.310784
565.936615	2724.058057
566.292654	2716.594629
566.648638	2713.267467
567.004567	2712.470965
567.360441	2708.473330
567.716260	2705.322609
568.072023	2703.031404
568.427732	2697.753316
568.783385	2693.251566
569.138982	2691.683767
569.494525	2689.327027
569.850013	2683.491892
570.205445	2684.542972
570.560823	2681.823270
570.916145	2678.607014
571.271412	2675.794050
571.626625	2670.861281
571.981782	2668.844819
572.336884	2663.276865
572.691931	2662.949190
573.046923	2661.091525
573.401860	2657.159425
573.756743	2655.566420
574.111570	2650.863024
574.466342	2649.348157
574.821059	2646.593166
575.175722	2644.221303
575.530330	2640.556385
575.884882	2638.870119
576.239380	2635.946249
576.593823	2632.387195
576.948211	2630.605147
577.302544	2626.781432
577.656823	2624.328910
578.011047	2627.880403
578.365216	2620.762294
578.719330	2620.865638
579.073389	2618.897067
579.427394	2617.162910
579.781344	2614.218876
580.135239	2611.327775
580.489080	2611.305089
580.842866	2605.716970
581.196597	2609.167640
581.550273	2606.158071
581.903895	2604.164295
582.257463	2608.401385
582.610975	2604.325612
582.964434	2602.679675
583.317837	2600.781681
583.671186	2598.508120
584.024481	2597.134406
584.377721	2594.089549
584.730906	2594.386977
585.084037	2595.271700
585.437113	2591.684919
585.790135	2589.890268
586.143103	2590.487645
586.496016	2593.497213
586.848874	2583.339288
587.201679	2587.306677
587.554428	2584.783579
587.907124	2583.079669
588.259765	2581.292580
588.612352	2585.201995
588.964884	2581.164031
589.317362	2584.276943
589.669786	2582.507498
590.022155	2581.761407
590.374470	2581.869792
590.726731	2581.249730
591.078937	2577.882239
591.431090	2579.008937
591.783188	2575.616241
592.135232	2574.509707
592.487222	2575.462486
592.839157	2571.913513
593.191038	2572.788153
593.542866	2571.946281
593.894639	2572.258832
594.246358	2568.808163
594.598022	2567.855384
594.949633	2567.333625
595.301190	2568.682134
595.652692	2565.299519
596.004141	2566.259859
596.355535	2565.851526
596.706876	2559.252655
597.058162	2563.875393
597.409395	2563.262893
597.760573	2564.724828
598.111698	2561.730382
598.462768	2562.824313
598.813785	2559.996226
599.164748	2561.533777
599.515657	2560.212995
599.866511	2558.662840
600.217312	2562.501679
600.568060	2556.422047
600.918753	2562.441185
601.269392	2557.122768
601.619978	2556.290977
601.970510	2557.929353
602.320988	2556.946328
602.671412	2559.908005
603.021783	2558.415824
603.372100	2554.801317
603.722363	2556.021276
604.072572	2557.989846
604.422728	2559.335834
604.772830	2553.107489
605.122878	2554.692932
605.472872	2554.894578
605.822813	2550.710420
606.172701	2557.110165
606.522534	2554.826522
606.872314	2556.117058
607.222041	2552.109340
607.571714	2556.169990
607.921333	2552.336192
608.270899	2555.960782
608.620411	2554.627397
608.969870	2552.537838
609.319276	2553.349464
609.668627	2554.251831
610.017926	2555.527243
610.367171	2557.394990
610.716362	2552.525236
611.065500	2551.632951
611.414585	2553.475493
611.763616	2557.011862
612.112594	2553.790565
612.461518	2554.045143
612.810389	2556.056564
613.159207	2555.118909
613.507971	2556.820299
613.856682	2555.776780
614.205340	2553.089845
614.553945	2556.225443
614.902496	2550.924669
615.250994	2554.309804
615.599439	2556.268292
615.947830	2556.434650
616.296169	2556.888354
616.644454	2555.441543
616.992686	2557.165618
617.340864	2555.529763
617.688990	2555.068498
618.037063	2559.355999
618.385082	2555.136553
618.733048	2554.506409
619.080961	2555.867521
619.428821	2557.251317
619.776628	2555.708724
620.124382	2554.609753
620.472083	2555.575134
620.819731	2554.239228
621.167326	2553.709907
621.514868	2554.128322
621.862357	2551.088507
622.209793	2552.668908
622.557176	2549.097251
622.904506	2551.514484
623.251783	2544.540048
623.599007	2544.446787
623.946179	2541.475026
624.293297	2542.596683
624.640363	2542.092568
624.987376	2540.522248
625.334336	2539.345139
625.681243	2538.914120
626.028097	2540.655839
626.374899	2539.080478
626.721647	2537.061496
627.068343	2538.707433
627.414987	2537.986548
627.761577	2537.366486
628.108115	2535.229037
628.454600	2533.948584
628.801032	2534.603934
629.147412	2530.870959
629.493739	2534.036804
629.840014	2531.468336
630.186236	2532.504293
630.532405	2530.455064
630.878521	2533.207534
631.224585	2531.523789
631.570597	2528.282327
631.916556	2531.796011
632.262462	2527.634538
632.608316	2528.718387
632.954117	2529.661082
633.299866	2527.873993
633.645562	2523.977181
633.991206	2524.193951
634.336797	2524.198992
634.682336	2526.094466
635.027823	2523.188241
635.373257	2521.491892
635.718639	2520.531553
636.063968	2521.857376
636.409245	2517.794206
636.754470	2516.884278
637.099642	2518.290760
637.444762	2516.982580
637.789829	2515.707168
638.134845	2515.472755
638.479808	2514.073835
638.824719	2514.242713
639.169577	2511.694410
639.514383	2511.044101
639.859137	2511.772548
640.203839	2515.140039
640.548489	2509.045284
640.893086	2509.297341
641.237632	2508.132835
641.582125	2506.323061
641.926566	2503.351300
