Dividing Wavelength (nm)	Counts (n)	Blue Motor Position (mm): 0.000000	Red Motor Position (mm): 7.200000	
326.493990	1977.780765
326.888308	1977.780765
327.282561	1977.780765
327.676750	1953.260593
328.070874	1954.586416
328.464933	1958.735286
328.858929	1970.468571
329.252859	1982.317803
329.646726	1996.339773
330.040528	2010.558347
330.434265	2033.447706
330.827938	2047.620910
331.221547	2070.081771
331.615091	2090.725296
332.008571	2111.053749
332.401986	2130.709208
332.795338	2150.891468
333.188625	2173.178409
333.581847	2191.548373
333.975006	2210.687114
334.368100	2225.450133
334.761129	2239.693913
335.154095	2258.847777
335.546996	2271.271701
335.939833	2285.734771
336.332606	2298.493932
336.725315	2311.053966
337.117960	2318.333393
337.510540	2325.627942
337.903056	2335.506083
338.295508	2342.178050
338.687896	2347.430933
339.080220	2352.446881
339.472480	2361.994826
339.864676	2363.749148
340.256807	2367.083871
340.648875	2366.983048
341.040879	2370.458923
341.432818	2371.106712
341.824694	2372.379603
342.216506	2371.719212
342.608253	2374.340612
342.999937	2370.572349
343.391557	2369.410363
343.783113	2370.292565
344.174605	2364.696884
344.566033	2365.122862
344.957397	2364.288551
345.348697	2361.798221
345.739934	2362.181349
346.131106	2357.225894
346.522215	2357.205730
346.913260	2354.874196
347.304241	2353.452591
347.695159	2350.959740
348.086012	2351.773887
348.476802	2350.185923
348.867528	2344.441528
349.258191	2346.372290
349.648789	2344.005468
350.039324	2346.853720
350.429796	2346.064780
350.820203	2346.909173
351.210548	2344.103771
351.600828	2341.068996
351.991045	2341.802484
352.381198	2340.295179
352.771288	2340.338029
353.161314	2339.067658
353.551276	2343.849193
353.941175	2341.132011
354.331010	2341.815087
354.720782	2342.977073
355.110490	2342.498163
355.500135	2340.075889
355.889717	2342.596466
356.279235	2344.212156
356.668689	2345.124605
357.058080	2345.976560
357.447408	2342.699810
357.836672	2341.104284
358.225873	2344.106292
358.615010	2342.974553
359.004084	2348.814729
359.393095	2346.032012
359.782043	2348.666015
360.170927	2348.698783
360.559748	2348.960923
360.948505	2350.995028
361.337199	2350.437981
361.725830	2349.517970
362.114398	2352.232632
362.502903	2350.621983
362.891344	2351.874710
363.279722	2352.278002
363.668037	2354.138188
364.056289	2354.662468
364.444478	2356.232787
364.832603	2353.150122
365.220665	2355.053157
365.608665	2355.174145
365.996601	2352.772035
366.384474	2354.836388
366.772284	2355.771522
367.160031	2356.696573
367.547715	2358.939887
367.935336	2359.214630
368.322893	2358.261852
368.710388	2358.665144
369.097820	2362.309898
369.485189	2358.584485
369.872495	2359.375947
370.259738	2361.289064
370.646918	2365.851309
371.034035	2364.747296
371.421090	2367.479601
371.808081	2371.666280
372.195010	2375.671476
372.581875	2378.451673
372.968678	2383.787734
373.355418	2392.677809
373.742096	2401.779612
374.128710	2413.351581
374.515262	2421.119999
374.901751	2434.216917
375.288177	2452.140739
375.674540	2469.189921
376.060841	2490.254383
376.447079	2511.482682
376.833254	2537.931095
377.219367	2561.296843
377.605417	2598.573655
377.991404	2623.335803
378.377329	2660.816782
378.763191	2694.257276
379.148991	2739.083216
379.534727	2786.979219
379.920402	2827.295847
380.306013	2875.784185
380.691563	2933.044131
381.077049	2986.422388
381.462474	3034.716642
381.847835	3101.683330
382.233134	3163.402176
382.618371	3213.400340
383.003545	3288.919345
383.388657	3353.771269
383.773706	3428.007301
384.158693	3483.157524
384.543618	3552.405333
384.928480	3609.020012
385.313280	3688.032537
385.698017	3759.004421
386.082692	3840.149354
386.467305	3869.738406
386.851856	3950.764872
387.236344	4049.314389
387.620770	4068.208633
388.005133	4132.150629
388.389435	4215.808577
388.773674	4235.985795
389.157851	4301.276299
389.541965	4355.433415
389.926018	4329.806709
390.310008	4410.865943
390.693936	4448.253660
391.077802	4477.356241
391.461606	4512.556098
391.845348	4528.302142
392.229027	4547.917272
392.612645	4623.562306
392.996200	4627.630517
393.379694	4665.406403
393.763125	4724.249271
394.146494	4706.322928
394.529801	4704.750088
394.913047	4752.005864
395.296230	4679.365358
395.679351	4630.534221
396.062410	4670.200540
396.445408	4541.383936
396.828343	4527.525804
397.211217	4501.349613
397.594028	4376.613823
397.976778	4370.907237
398.359466	4349.830172
398.742092	4258.736522
399.124656	4223.597159
399.507158	4200.057492
399.889598	4125.957571
400.271977	4105.263635
400.654294	4030.150442
401.036549	3998.522243
401.418742	3922.559616
401.800874	3914.934871
402.182944	3852.671580
402.564952	3846.899459
402.946898	3728.762539
403.328783	3664.349196
403.710606	3621.511991
404.092367	3588.373966
404.474067	3569.971234
404.855705	3465.591623
405.237282	3388.242679
405.618797	3374.979403
406.000250	3336.840554
406.381642	3308.877273
406.762972	3237.048393
407.144240	3158.514778
407.525447	3116.917697
407.906593	3060.378636
408.287677	3026.436547
408.668700	2982.112202
409.049661	2932.595468
409.430560	2897.614902
409.811399	2853.194774
410.192176	2819.960968
410.572891	2790.434930
410.953545	2769.052876
411.334138	2716.362736
411.714669	2704.800849
412.095139	2654.376708
412.475547	2643.850779
412.855894	2615.388424
413.236180	2601.202617
413.616405	2572.347053
413.996568	2555.033210
414.376670	2541.215407
414.756711	2521.290246
415.136691	2513.922600
415.516609	2505.564367
415.896466	2492.076760
416.276262	2489.183138
416.655997	2477.817856
417.035670	2467.695219
417.415283	2472.459110
417.794834	2460.430917
418.174324	2456.750874
418.553753	2451.452622
418.933121	2450.998918
419.312428	2443.754780
419.691674	2438.988369
420.070859	2439.545416
420.449983	2433.707760
420.829045	2433.042328
421.208047	2429.526123
421.586988	2431.640887
421.965867	2427.779363
422.344686	2426.168714
422.723444	2427.005546
423.102141	2419.864752
423.480777	2421.740061
423.859352	2420.056315
424.237866	2423.096131
424.616319	2418.869124
424.994712	2421.155287
425.373044	2420.734351
425.751314	2419.590009
426.129524	2416.431726
426.507673	2419.733682
426.885762	2415.398289
427.263789	2416.996335
427.641756	2413.003741
428.019662	2415.002559
428.397508	2413.160017
428.775292	2414.258988
429.153016	2412.693710
429.530679	2413.404513
429.908282	2413.739750
430.285824	2411.854358
430.663305	2411.133473
431.040726	2410.843607
431.418086	2412.091292
431.795385	2416.620769
432.172624	2411.120870
432.549802	2410.513411
432.926920	2413.177661
433.303977	2410.573905
433.680974	2410.873854
434.057910	2414.269071
434.434786	2413.699420
434.811601	2413.061714
435.188355	2413.686817
435.565050	2414.642116
435.941683	2412.827301
436.318257	2412.769327
436.694770	2408.582649
437.071222	2412.726478
437.447614	2408.133987
437.823946	2413.560789
438.200218	2415.010120
438.576429	2410.722619
438.952580	2413.026426
439.328670	2415.673032
439.704700	2414.143042
440.080670	2413.394431
440.456580	2413.049112
440.832429	2412.232445
441.208218	2414.218659
441.583947	2413.197826
441.959616	2410.727660
442.335224	2415.728485
442.710773	2410.876374
443.086261	2417.273598
443.461689	2411.987949
443.837057	2416.280491
444.212365	2415.204205
444.587612	2414.843762
444.962800	2414.379976
445.337927	2413.875861
445.712995	2411.801426
446.088002	2416.267888
446.462949	2415.917528
446.837837	2415.607497
447.212664	2414.470717
447.587431	2420.668816
447.962139	2424.041348
448.336786	2431.504776
448.711374	2430.095773
449.085901	2420.288208
449.460369	2421.319124
449.834776	2419.907601
450.209124	2425.150401
450.583412	2424.237953
450.957640	2422.876841
451.331808	2421.969433
451.705917	2420.015986
452.079965	2420.434402
452.453954	2424.510175
452.827883	2422.347520
453.201752	2417.742426
453.575562	2421.364495
453.949311	2422.574372
454.323001	2422.624783
454.696632	2420.893147
455.070202	2423.852304
455.443713	2424.560586
455.817164	2423.607808
456.190556	2421.351892
456.563888	2424.759712
456.937160	2420.136974
457.310373	2425.941863
457.683526	2427.151739
458.056619	2425.087387
458.429653	2423.597726
458.802628	2427.739034
459.175542	2426.438416
459.548398	2427.678540
459.921194	2427.045875
460.293930	2430.327666
460.666607	2432.860846
461.039224	2437.526434
461.411782	2436.581218
461.784280	2435.850250
462.156719	2432.321443
462.529099	2433.922009
462.901419	2430.972934
463.273680	2428.412028
463.645882	2426.609815
464.018024	2431.799683
464.390106	2430.683068
464.762130	2437.355035
465.134094	2439.210179
465.505999	2446.746704
465.877845	2452.725513
466.249631	2452.768363
466.621358	2452.223918
466.993026	2449.897426
467.364634	2449.234514
467.736184	2443.036415
468.107674	2441.670262
468.479105	2441.110694
468.850477	2442.222269
469.221790	2439.253029
469.593043	2435.383944
469.964238	2432.482760
470.335373	2434.668100
470.706449	2438.277566
471.077467	2441.392999
471.448425	2442.986004
471.819324	2449.080759
472.190164	2446.582867
472.560945	2444.256374
472.931667	2436.054417
473.302330	2434.080805
473.672934	2438.227154
474.043479	2433.067533
474.413965	2434.441248
474.784393	2427.761719
475.154761	2435.028542
475.525070	2431.323294
475.895321	2433.044848
476.265513	2433.193562
476.635645	2434.899993
477.005719	2435.812442
477.375734	2436.477874
477.745691	2438.128852
478.115588	2437.932247
478.485427	2439.618513
478.855207	2446.461879
479.224928	2446.993721
479.594591	2450.681325
479.964194	2448.906839
480.333739	2448.995059
480.703226	2448.584205
481.072653	2449.229473
481.442022	2451.583692
481.811333	2448.216201
482.180584	2448.521191
482.549777	2448.531273
482.918912	2446.855089
483.287988	2444.652105
483.657005	2446.096396
484.025964	2442.444080
484.394864	2441.929882
484.763706	2442.945674
485.132489	2442.227310
485.501213	2440.888884
485.869879	2441.766044
486.238487	2443.233020
486.607036	2441.753442
486.975527	2443.049018
487.343959	2440.697320
487.712333	2442.643205
488.080648	2442.746549
488.448905	2440.861157
488.817104	2441.450972
489.185244	2443.487598
489.553326	2446.242589
489.921350	2450.267950
490.289315	2450.356171
490.657222	2452.039916
491.025070	2456.261882
491.392861	2452.286933
491.760593	2451.230811
492.128267	2447.001283
492.495883	2444.430294
492.863440	2445.196550
493.230939	2442.640685
493.598380	2442.391148
493.965763	2439.978955
494.333088	2438.075920
494.700354	2436.603903
495.067563	2441.070365
495.434713	2434.373192
495.801805	2442.244954
496.168839	2442.232351
496.535815	2440.697320
496.902733	2443.207814
497.269593	2440.755293
497.636395	2440.505756
498.003139	2439.711774
498.369825	2440.087340
498.736453	2443.679162
499.103023	2441.844182
499.469535	2446.018258
499.835989	2442.209666
500.202385	2444.248813
500.568723	2444.589091
500.935003	2447.323917
501.301226	2444.485747
501.667390	2448.279215
502.033497	2453.050667
502.399546	2447.084462
502.765537	2448.896757
503.131470	2450.194854
503.497345	2455.109979
503.863163	2453.741305
504.228923	2454.202571
504.594625	2456.375308
504.960269	2454.094186
505.325856	2456.382870
505.691385	2458.903447
506.056856	2463.024590
506.422270	2464.501648
506.787625	2465.998871
507.152924	2464.937708
507.518164	2470.031794
507.883347	2467.743110
508.248472	2471.334932
508.613540	2474.089923
508.978550	2476.459265
509.343503	2474.929275
509.708398	2480.252733
510.073236	2483.126191
510.438016	2484.424288
510.802738	2482.715337
511.167403	2485.150214
511.532010	2488.328662
511.896561	2487.441419
512.261053	2492.008704
512.625488	2486.881851
512.989866	2487.093579
513.354186	2487.403610
513.718449	2485.674494
514.082655	2493.200937
514.446803	2489.939311
514.810894	2492.107007
515.174927	2493.891575
515.538904	2492.396873
515.902822	2492.049033
516.266684	2491.464260
516.630488	2489.115082
516.994235	2487.874958
517.357925	2489.866214
517.721558	2488.744557
518.085133	2487.837149
518.448651	2485.387149
518.812112	2483.597539
519.175516	2481.989411
519.538863	2482.438074
519.902152	2477.321303
520.265385	2478.163175
520.628560	2478.316930
520.991678	2476.300469
521.354739	2472.391054
521.717743	2471.534058
522.080690	2472.108749
522.443580	2465.991309
522.806413	2464.736062
523.169189	2463.616926
523.531908	2461.053499
523.894569	2458.532922
524.257174	2458.462346
524.619722	2457.970833
524.982213	2456.382870
525.344647	2455.782973
525.707025	2453.164093
526.069345	2450.310800
526.431608	2448.853907
526.793815	2448.881633
527.155964	2448.296859
527.518057	2444.213525
527.880093	2444.858792
528.242072	2446.466920
528.603995	2442.255036
528.965860	2440.435180
529.327669	2437.876794
529.689421	2435.595672
530.051117	2438.146496
530.412755	2437.687751
530.774337	2436.266146
531.135862	2433.886721
531.497331	2431.875301
531.858743	2429.047213
532.220098	2428.684250
532.581396	2428.961514
532.942638	2427.136616
533.303824	2427.817172
533.664953	2429.863880
534.026025	2425.266348
534.387040	2430.660382
534.747999	2427.751637
535.108902	2427.802048
535.469748	2428.986719
535.830537	2428.419590
536.191270	2427.381112
536.551947	2428.195258
536.912567	2425.160484
537.273131	2427.834816
537.633638	2424.195103
537.994089	2425.410021
538.354483	2424.086718
538.714821	2427.078643
539.075103	2423.585123
539.435328	2422.375246
539.795497	2425.006728
540.155609	2426.171235
540.515665	2425.561255
540.875665	2425.556214
541.235609	2424.089238
541.595496	2422.355082
541.955328	2424.805082
542.315102	2422.541604
542.674821	2422.511357
543.034483	2423.746440
543.394090	2425.904054
543.753640	2425.084866
544.113134	2424.737027
544.472571	2425.193251
544.831953	2424.464804
545.191278	2419.411048
545.550548	2423.194434
545.909761	2423.229722
546.268918	2423.380956
546.628019	2420.192427
546.987064	2426.574527
547.346053	2423.184351
547.704986	2422.244176
548.063863	2422.329876
548.422684	2423.060843
548.781449	2420.898188
549.140158	2424.038827
549.498811	2425.031934
549.857408	2421.382139
550.215949	2422.244176
550.574434	2417.933990
550.932864	2420.086562
551.291237	2418.246541
551.649555	2418.687642
552.007817	2425.765422
552.366022	2423.121337
552.724173	2423.055802
553.082267	2421.833322
553.440305	2423.471697
553.798288	2422.143353
554.156215	2420.205029
554.514086	2423.965730
554.871902	2422.206367
555.229661	2421.850966
555.587365	2419.511871
555.945014	2422.718045
556.302606	2420.966244
556.660143	2422.944897
557.017625	2420.469690
557.375050	2421.840884
557.732421	2422.425658
558.089735	2421.256110
558.446994	2420.464649
558.804197	2424.487490
559.161345	2419.910122
559.518437	2419.045564
559.875474	2423.285174
560.232455	2419.148908
560.589381	2423.305339
560.946251	2425.591502
561.303065	2421.399783
561.659825	2422.849115
562.016528	2418.422982
562.373177	2421.664443
562.729770	2420.008424
563.086307	2420.487334
563.442789	2421.056984
563.799216	2422.518919
564.155587	2419.428692
564.511904	2419.859710
564.868164	2420.358785
565.224370	2419.106058
565.580520	2420.333579
565.936615	2420.429361
566.292654	2419.572365
566.648638	2421.442633
567.004567	2419.990780
567.360441	2419.821902
567.716260	2420.522622
568.072023	2420.550348
568.427732	2417.787796
568.783385	2420.205029
569.138982	2416.787127
569.494525	2414.790830
569.850013	2414.788310
570.205445	2419.645461
570.560823	2418.425502
570.916145	2421.465318
571.271412	2419.312745
571.626625	2418.039854
571.981782	2418.049936
572.336884	2419.907601
572.691931	2420.956161
573.046923	2423.201995
573.401860	2419.406007
573.756743	2419.511871
574.111570	2419.761408
574.466342	2418.811150
574.821059	2417.203022
575.175722	2421.304001
575.530330	2419.000194
575.884882	2420.530184
576.239380	2420.583116
576.593823	2418.317117
576.948211	2418.390214
577.302544	2417.281160
577.656823	2419.731161
578.011047	2419.239648
578.365216	2417.364339
578.719330	2418.460790
579.073389	2418.155800
579.427394	2422.317273
579.781344	2414.478279
580.135239	2415.715882
580.489080	2418.314597
580.842866	2417.893660
581.196597	2418.309556
581.550273	2419.670667
581.903895	2418.612025
582.257463	2416.003228
582.610975	2415.821746
582.964434	2418.826274
583.317837	2416.832497
583.671186	2420.167221
584.024481	2415.786458
584.377721	2417.805440
584.730906	2416.227559
585.084037	2419.511871
585.437113	2417.220666
585.790135	2415.330234
586.143103	2417.603794
586.496016	2417.147570
586.848874	2412.862589
587.201679	2414.926941
587.554428	2416.633372
587.907124	2414.122877
588.259765	2412.287897
588.612352	2418.480955
588.964884	2417.250913
589.317362	2418.962385
589.669786	2419.211922
590.022155	2416.933321
590.374470	2416.701428
590.726731	2418.158321
591.078937	2415.824267
591.431090	2417.172775
591.783188	2416.996335
592.135232	2417.530697
592.487222	2414.009451
592.839157	2416.083886
593.191038	2417.092117
593.542866	2415.423495
593.894639	2416.494740
594.246358	2414.957188
594.598022	2414.992476
594.949633	2416.033475
595.301190	2415.428536
595.652692	2416.991294
596.004141	2413.999369
596.355535	2412.476941
596.706876	2415.194122
597.058162	2415.287384
597.409395	2413.154976
597.760573	2411.582136
598.111698	2414.044739
598.462768	2415.816705
598.813785	2413.170099
599.164748	2414.866447
599.515657	2413.863258
599.866511	2414.594225
600.217312	2414.442991
600.568060	2413.971643
600.918753	2415.705800
601.269392	2416.096489
601.619978	2414.367373
601.970510	2414.064904
602.320988	2414.634554
602.671412	2414.609349
603.021783	2417.104720
603.372100	2414.614390
603.722363	2414.493402
604.072572	2416.106571
604.422728	2415.345357
604.772830	2413.061714
605.122878	2409.764800
605.472872	2412.189595
605.822813	2408.872516
606.172701	2414.178330
606.522534	2413.931313
606.872314	2413.769997
607.222041	2413.606159
607.571714	2413.873340
607.921333	2414.934503
608.270899	2418.153280
608.620411	2413.217990
608.969870	2411.032650
609.319276	2412.920562
609.668627	2412.613052
610.017926	2410.473082
610.367171	2417.913825
610.716362	2414.778227
611.065500	2415.352919
611.414585	2414.606828
611.763616	2413.432239
612.112594	2413.018865
612.461518	2415.917528
612.810389	2414.697569
613.159207	2412.192115
613.507971	2415.660429
613.856682	2414.427867
614.205340	2414.664801
614.553945	2415.194123
614.902496	2415.899884
615.250994	2412.915521
615.599439	2414.707651
615.947830	2412.686148
616.296169	2414.344688
616.644454	2414.339647
616.992686	2415.236972
617.340864	2414.838721
617.688990	2413.835532
618.037063	2414.619431
618.385082	2413.893505
618.733048	2414.566499
619.080961	2414.934503
619.428821	2413.286046
619.776628	2413.346540
620.124382	2416.497261
620.472083	2415.725964
620.819731	2413.079358
621.167326	2415.035326
621.514868	2415.345357
621.862357	2416.252765
622.209793	2414.548855
622.557176	2417.016500
622.904506	2410.639440
623.251783	2408.378482
623.599007	2410.722619
623.946179	2409.235479
624.293297	2414.581622
624.640363	2413.679256
624.987376	2414.722775
625.334336	2412.333268
625.681243	2415.239493
626.028097	2411.493916
626.374899	2413.215470
626.721647	2411.070459
627.068343	2412.587846
627.414987	2411.975346
627.761577	2413.270922
628.108115	2413.850655
628.454600	2412.136663
628.801032	2411.869482
629.147412	2412.360994
629.493739	2412.759245
629.840014	2412.240006
630.186236	2413.036509
630.532405	2412.335788
630.878521	2409.974008
631.224585	2411.781261
631.570597	2410.697413
631.916556	2411.826632
632.262462	2410.394944
632.608316	2412.240006
632.954117	2410.548699
633.299866	2411.478792
633.645562	2408.035684
633.991206	2410.815880
634.336797	2410.069790
634.682336	2410.316806
635.027823	2410.231107
635.373257	2413.948957
635.718639	2409.946281
636.063968	2410.241189
636.409245	2410.347053
636.754470	2411.267064
637.099642	2410.218504
637.444762	2411.932496
637.789829	2409.686662
638.134845	2409.832855
638.479808	2408.927968
638.824719	2408.386044
639.169577	2407.634912
639.514383	2406.225910
639.859137	2410.145407
640.203839	2410.583987
640.548489	2408.398647
640.893086	2407.539130
641.237632	2405.416805
641.582125	2409.520304
641.926566	2405.772206
642.270955	2408.504511
642.615292	2410.407547
642.959576	2410.924265
643.303809	2408.660787
643.647990	2409.525345
643.992118	2411.433422
644.336195	2410.447876
