Dividing Wavelength (nm)	Counts (n)	Blue Motor Position (mm): 0.000000	Red Motor Position (mm): 24.800000	
326.493990	1985.695377
326.888308	1985.695377
327.282561	1985.695377
327.676750	1961.510441
328.070874	1961.848198
328.464933	1968.752058
328.858929	1980.318986
329.252859	1988.193268
329.646726	2005.305465
330.040528	2020.638134
330.434265	2039.360980
330.827938	2061.426110
331.221547	2078.535786
331.615091	2097.868611
332.008571	2121.403238
332.401986	2140.478964
332.795338	2160.842705
333.188625	2178.292659
333.581847	2197.466688
333.975006	2215.738350
334.368100	2235.575290
334.761129	2251.293608
335.154095	2266.709457
335.546996	2285.979267
335.939833	2308.982052
336.332606	2319.513023
336.725315	2332.882163
337.117960	2342.094871
337.510540	2348.169462
337.903056	2359.305370
338.295508	2364.452388
338.687896	2371.701568
339.080220	2377.070397
339.472480	2379.991745
339.864676	2386.406613
340.256807	2390.868035
340.648875	2392.655124
341.040879	2396.652759
341.432818	2394.658982
341.824694	2395.339538
342.216506	2393.905330
342.608253	2394.979096
342.999937	2394.785011
343.391557	2394.369116
343.783113	2391.891389
344.174605	2394.495145
344.566033	2388.329814
344.957397	2387.916439
345.348697	2386.940976
345.739934	2383.933927
346.131106	2383.182796
346.522215	2383.308824
346.913260	2378.673483
347.304241	2380.059801
347.695159	2377.312372
348.086012	2375.474871
348.476802	2371.782226
348.867528	2376.863709
349.258191	2368.873480
349.648789	2368.583614
350.039324	2369.579242
350.429796	2370.121166
350.820203	2369.977493
351.210548	2364.757378
351.600828	2366.055475
351.991045	2368.752493
352.381198	2368.946577
352.771288	2368.790301
353.161314	2364.427183
353.551276	2367.288038
353.941175	2366.204189
354.331010	2367.421628
354.720782	2368.868439
355.110490	2365.906761
355.500135	2367.046062
355.889717	2367.882894
356.279235	2369.566639
356.668689	2371.149561
357.058080	2371.706609
357.447408	2371.630992
357.836672	2366.173943
358.225873	2370.524458
358.615010	2366.000023
359.004084	2372.949253
359.393095	2374.496888
359.782043	2373.735673
360.170927	2373.166023
360.559748	2376.006713
360.948505	2379.333875
361.337199	2376.135263
361.725830	2379.222969
362.114398	2381.355377
362.502903	2379.943854
362.891344	2379.848072
363.279722	2378.262629
363.668037	2384.375028
364.056289	2382.416540
364.444478	2386.202447
364.832603	2385.327807
365.220665	2384.480893
365.608665	2386.197406
365.996601	2386.943496
366.384474	2389.688405
366.772284	2392.801317
367.160031	2391.422562
367.547715	2391.130175
367.935336	2390.973899
368.322893	2394.994219
368.710388	2390.847870
369.097820	2396.955228
369.485189	2395.221071
369.872495	2395.400032
370.259738	2399.992523
370.646918	2400.481515
371.034035	2400.559653
371.421090	2405.931002
371.808081	2407.803791
372.195010	2412.066087
372.581875	2419.751326
372.968678	2427.174425
373.355418	2430.219282
373.742096	2443.908535
374.128710	2453.282560
374.515262	2462.580969
374.901751	2477.167547
375.288177	2493.072388
375.674540	2514.792199
376.060841	2535.614685
376.447079	2559.890361
376.833254	2586.089238
377.219367	2609.860799
377.605417	2645.514359
377.991404	2671.428411
378.377329	2712.095399
378.763191	2747.769124
379.148991	2795.614715
379.534727	2841.090964
379.920402	2886.105947
380.306013	2938.768361
380.691563	3000.386384
381.077049	3055.869324
381.462474	3114.583643
381.847835	3186.982173
382.233134	3259.030344
382.618371	3318.112667
383.003545	3407.222623
383.388657	3484.281701
383.773706	3578.014395
384.158693	3651.242196
384.543618	3744.866505
384.928480	3822.039009
385.313280	3929.634876
385.698017	4037.964231
386.082692	4151.793485
386.467305	4219.448290
386.851856	4344.864636
387.236344	4500.122092
387.620770	4564.041402
388.005133	4682.846275
388.389435	4832.361857
388.773674	4915.271193
389.157851	5052.567018
389.541965	5183.563922
389.926018	5205.293815
390.310008	5383.486001
390.693936	5506.742212
391.077802	5625.431139
391.461606	5761.880050
391.845348	5871.948603
392.229027	5998.660525
392.612645	6215.447785
392.996200	6334.771896
393.379694	6505.067114
393.763125	6729.431228
394.146494	6818.382388
394.529801	6961.871270
394.913047	7203.403033
395.296230	7197.245264
395.679351	7252.874397
396.062410	7509.640527
396.445408	7407.983139
396.828343	7562.796973
397.211217	7695.520472
397.594028	7573.368273
397.976778	7785.739482
398.359466	7939.046011
398.742092	7917.971467
399.124656	8063.975886
399.507158	8249.502950
399.889598	8272.583873
400.271977	8477.809246
400.654294	8512.288218
401.036549	8711.844813
401.418742	8734.056137
401.800874	9034.380357
402.182944	9115.280794
402.564952	9480.169592
402.946898	9302.037900
403.328783	9360.956386
403.710606	9549.578718
404.092367	9814.735849
404.474067	10167.793059
404.855705	9965.138674
405.237282	9918.921376
405.618797	10337.866466
406.000250	10590.950033
406.381642	10955.856475
406.762972	10900.539894
407.144240	10704.940604
407.525447	10947.999837
407.906593	10895.634851
408.287677	11148.236988
408.668700	11309.077522
409.049661	11277.661051
409.430560	11432.101840
409.811399	11406.891030
410.192176	11571.091493
410.572891	11638.670681
410.953545	12121.421656
411.334138	11604.784045
411.714669	12200.555168
412.095139	11510.711073
412.475547	12008.252793
412.855894	11855.785615
413.236180	12175.059532
413.616405	11869.416895
413.996568	12142.274388
414.376670	12111.324224
414.756711	11995.526400
415.136691	12270.390272
415.516609	12446.029113
415.896466	12518.956966
416.276262	12812.531080
416.655997	13251.255138
417.035670	13281.181948
417.415283	13925.176749
417.794834	14022.143343
418.174324	13761.165329
418.553753	13656.818485
418.933121	14142.843689
419.312428	13953.034165
419.691674	13864.778684
420.070859	14324.748685
420.449983	13983.792765
420.829045	14518.608777
421.208047	14267.387916
421.586988	14716.837028
421.965867	14972.037880
422.344686	14972.655421
422.723444	15521.218659
423.102141	14227.512389
423.480777	15412.153296
423.859352	14915.677780
424.237866	16014.447672
424.616319	15713.145468
424.994712	16364.132350
425.373044	16161.457801
425.751314	16833.307497
426.129524	15968.444623
426.507673	17045.759364
426.885762	16740.807365
427.263789	16934.848938
427.641756	17099.213239
428.019662	17157.221796
428.397508	17196.409206
428.775292	17497.766862
429.153016	17452.260366
429.530679	17544.770581
429.908282	17563.652222
430.285824	17270.113396
430.663305	17974.743195
431.040726	17577.752330
431.418086	17411.598419
431.795385	18046.695584
432.172624	18472.242065
432.549802	18021.981327
432.926920	18205.471765
433.303977	18093.729549
433.680974	18344.431171
434.057910	18623.834602
434.434786	18645.688004
434.811601	18567.540037
435.188355	19591.955431
435.565050	19237.436287
435.941683	19192.733855
436.318257	20058.715866
436.694770	19884.972498
437.071222	20453.211360
437.447614	19536.331340
437.823946	19553.751047
438.200218	19701.688748
438.576429	19474.178954
438.952580	19741.382793
439.328670	19696.458550
439.704700	20102.392423
440.080670	19679.086734
440.456580	20256.871021
440.832429	20419.601987
441.208218	19408.275950
441.583947	19835.178501
441.959616	19926.932543
442.335224	20156.436112
442.710773	20270.819893
443.086261	20769.117786
443.461689	20132.021804
443.837057	20236.716487
444.212365	20845.367759
444.587612	20818.377421
444.962800	20385.932121
445.337927	20772.752458
445.712995	19499.273818
446.088002	21278.838934
446.462949	21424.538363
446.837837	21553.493598
447.212664	21480.951395
447.587431	24168.221631
447.962139	26943.107122
448.336786	29181.986889
448.711374	27584.505729
449.085901	23997.767617
449.460369	23861.056566
449.834776	23722.560946
450.209124	25994.424983
450.583412	25481.971529
450.957640	25880.053805
451.331808	24530.940212
451.705917	23143.624756
452.079965	23083.357762
452.453954	23318.605727
452.827883	23103.242593
453.201752	22829.976767
453.575562	22857.975335
453.949311	23760.525876
454.323001	23677.072094
454.696632	23342.704963
455.070202	24584.200003
455.443713	24570.762807
455.817164	24928.657004
456.190556	25243.325827
456.563888	24595.676189
456.937160	24807.019003
457.310373	23229.964598
457.683526	23441.740951
458.056619	23257.305296
458.429653	23018.455427
458.802628	23333.527542
459.175542	23245.309870
459.548398	24096.561629
459.921194	25181.675036
460.293930	25501.896690
460.666607	26870.506945
461.039224	28039.716880
461.411782	28089.871319
461.784280	26904.602789
462.156719	26275.544927
462.529099	25591.130154
462.901419	24371.813671
463.273680	23331.372449
463.645882	23142.692143
464.018024	22884.756465
464.390106	23243.006063
464.762130	24900.487036
465.134094	27474.006157
465.505999	30938.962595
465.877845	33904.204575
466.249631	34369.782859
466.621358	32696.568445
466.993026	30797.215431
467.364634	28990.423043
467.736184	27291.314742
468.107674	26123.672605
468.479105	25299.257429
468.850477	24497.804708
469.221790	23309.786228
469.593043	21950.365997
469.964238	21111.780137
470.335373	20760.494893
470.706449	21418.599883
471.077467	22527.860417
471.448425	24789.196003
471.819324	26060.128861
472.190164	24679.182903
472.560945	22389.251371
472.931667	20420.670712
473.302330	19520.723927
473.672934	18802.581315
474.043479	18736.522035
474.413965	18059.900886
474.784393	17589.737673
475.154761	17707.380560
475.525070	17443.158563
475.895321	16949.032225
476.265513	16914.245743
476.635645	17044.889765
477.005719	16685.604210
477.375734	16591.405209
477.745691	16586.311123
478.115588	16816.591031
478.485427	17306.563458
478.855207	18351.881997
479.224928	19085.712680
479.594591	19374.210353
479.964194	18601.003217
480.333739	18277.898023
480.703226	17929.713088
481.072653	17815.004153
481.442022	17661.170823
481.811333	17405.445691
482.180584	16631.245448
482.549777	16129.118799
482.918912	15638.977493
483.287988	15250.070117
483.657005	14694.955900
484.025964	14206.374831
484.394864	13913.428340
484.763706	13511.151824
485.132489	13004.092406
485.501213	12684.778160
485.869879	12453.777367
486.238487	12095.500042
486.607036	11891.466902
486.975527	11532.403158
487.343959	11334.139618
487.712333	11115.545105
488.080648	10863.704183
488.448905	10725.357277
488.817104	10465.662237
489.185244	10421.867213
489.553326	10523.809426
489.921350	10825.588018
490.289315	11175.209682
490.657222	11069.320245
491.025070	10882.623633
491.392861	10452.222520
491.760593	9980.546961
492.128267	9468.085946
492.495883	9002.921037
492.863440	8591.336031
493.230939	8204.697175
493.598380	7872.220476
493.965763	7646.641444
494.333088	7383.314252
494.700354	7154.334962
495.067563	6972.175389
495.434713	6803.460572
495.801805	6668.440828
496.168839	6485.575493
496.535815	6316.739689
496.902733	6178.894378
497.269593	6012.906826
497.636395	5881.385643
498.003139	5791.310306
498.369825	5629.191839
498.736453	5533.828332
499.103023	5389.421960
499.469535	5263.352784
499.835989	5168.992467
500.202385	5042.640987
500.568723	4947.509372
500.935003	4866.987022
501.301226	4757.094909
501.667390	4714.456830
502.033497	4641.770953
502.399546	4528.077811
502.765537	4410.782763
503.131470	4353.767313
503.497345	4295.768838
503.863163	4171.940456
504.228923	4129.509064
504.594625	4082.873350
504.960269	3995.084176
505.325856	3962.447746
505.691385	3884.572002
506.056856	3833.520237
506.422270	3797.150832
506.787625	3736.961976
507.152924	3699.453271
507.518164	3661.342147
507.883347	3596.497786
508.248472	3564.287333
508.613540	3540.115000
508.978550	3512.791947
509.343503	3474.761482
509.708398	3448.885239
510.073236	3432.725821
510.438016	3404.545771
510.802738	3362.989019
511.167403	3352.838656
511.532010	3335.552539
511.896561	3319.516629
512.261053	3314.525886
512.625488	3282.348201
512.989866	3261.089656
513.354186	3240.063003
513.718449	3224.480796
514.082655	3220.687328
514.446803	3200.132023
514.810894	3198.652445
515.174927	3180.395906
515.538904	3164.765808
515.902822	3168.251766
516.266684	3142.501552
516.630488	3139.728918
516.994235	3123.733337
517.357925	3124.451701
517.721558	3121.729478
518.085133	3113.726646
518.448651	3105.877570
518.812112	3092.193358
519.175516	3084.263623
519.538863	3083.991400
519.902152	3076.437231
520.265385	3076.147365
520.628560	3068.046231
520.991678	3054.268757
521.354739	3049.761966
521.717743	3045.345915
522.080690	3046.633930
522.443580	3043.037067
522.806413	3041.935574
523.169189	3034.126827
523.531908	3030.512320
523.894569	3021.256761
524.257174	3019.389014
524.619722	3016.684435
524.982213	3010.254443
525.344647	3004.837723
525.707025	3000.769512
526.069345	2999.491580
526.431608	2996.605519
526.793815	2995.806496
527.155964	2985.751915
527.518057	2982.243272
527.880093	2976.239258
528.242072	2977.159268
528.603995	2970.293217
528.965860	2967.966724
529.327669	2964.672330
529.689421	2961.501444
530.051117	2959.139664
530.412755	2955.875517
530.774337	2955.268058
531.135862	2947.078703
531.497331	2942.816408
531.858743	2938.932198
532.220098	2941.909000
532.581396	2933.936415
532.942638	2931.620005
533.303824	2932.991199
533.664953	2931.078081
534.026025	2927.105652
534.387040	2929.384253
534.747999	2924.935435
535.108902	2925.898295
535.469748	2915.052253
535.830537	2915.962181
536.191270	2915.700041
536.551947	2908.914648
536.912567	2915.329516
537.273131	2911.639392
537.633638	2905.171591
537.994089	2906.850295
538.354483	2900.942063
538.714821	2904.070099
539.075103	2907.573701
539.435328	2901.010119
539.795497	2898.464336
540.155609	2901.504152
540.515665	2900.329563
540.875665	2895.933677
541.235609	2895.235477
541.595496	2895.497617
541.955328	2899.815365
542.315102	2892.490569
542.674821	2888.986967
543.034483	2889.541494
543.394090	2888.802965
543.753640	2887.038561
544.113134	2894.267575
544.472571	2884.863303
544.831953	2893.357647
545.191278	2885.805999
545.550548	2880.517828
545.909761	2884.160062
546.268918	2884.276008
546.628019	2887.958571
546.987064	2881.682335
547.346053	2872.855274
547.704986	2880.303579
548.063863	2875.091026
548.422684	2876.033722
548.781449	2872.131869
549.140158	2877.493136
549.498811	2875.713609
549.857408	2868.910572
550.215949	2869.961652
550.574434	2866.115252
550.932864	2867.473843
551.291237	2871.766385
551.649555	2867.315046
552.007817	2870.743031
552.366022	2864.880169
552.724173	2865.893441
553.082267	2871.191694
553.440305	2869.505428
553.798288	2864.774305
554.156215	2865.611136
554.514086	2867.060468
554.871902	2860.706094
555.229661	2863.574510
555.587365	2860.504447
555.945014	2857.958665
556.302606	2855.291894
556.660143	2858.460260
557.017625	2855.261647
557.375050	2853.164527
557.732421	2856.700897
558.089735	2855.632172
558.446994	2852.698221
558.804197	2855.002028
559.161345	2853.313242
559.518437	2847.405009
559.875474	2846.807632
560.232455	2849.451718
560.589381	2846.976511
560.946251	2849.229907
561.303065	2849.731502
561.659825	2845.010461
562.016528	2839.273628
562.373177	2841.083402
562.729770	2843.140193
563.086307	2834.262721
563.442789	2837.693226
563.799216	2836.914368
564.155587	2834.534943
564.511904	2831.543019
564.868164	2827.079077
565.224370	2835.563339
565.580520	2828.147802
565.936615	2827.923470
566.292654	2823.698983
566.648638	2825.128150
567.004567	2821.070022
567.360441	2818.609938
567.716260	2814.282108
568.072023	2813.271357
568.427732	2811.360759
568.783385	2805.313895
569.138982	2807.723567
569.494525	2805.946560
569.850013	2799.635035
570.205445	2803.463792
570.560823	2799.211578
570.916145	2792.038017
571.271412	2792.242183
571.626625	2788.751184
571.981782	2787.279167
572.336884	2780.786161
572.691931	2782.661470
573.046923	2776.072682
573.401860	2772.264091
573.756743	2767.611106
574.111570	2766.890221
574.466342	2761.589447
574.821059	2761.178593
575.175722	2756.782707
575.530330	2753.959661
575.884882	2749.092427
576.239380	2745.886253
576.593823	2743.219483
576.948211	2740.706467
577.302544	2734.851167
577.656823	2730.115003
578.011047	2731.952504
578.365216	2724.330279
578.719330	2720.367932
579.073389	2720.236862
579.427394	2719.405072
579.781344	2714.333671
580.135239	2708.019626
580.489080	2709.025336
580.842866	2702.799511
581.196597	2702.691126
581.550273	2699.192566
581.903895	2697.145857
582.257463	2698.839685
582.610975	2689.047243
582.964434	2690.368026
583.317837	2688.777542
583.671186	2681.810667
584.024481	2681.644309
584.377721	2676.512414
584.730906	2676.124246
585.084037	2673.364214
585.437113	2673.896056
585.790135	2671.113339
586.143103	2667.067813
586.496016	2666.117555
586.848874	2662.460198
587.201679	2659.838798
587.554428	2653.970895
587.907124	2656.539363
588.259765	2648.586943
588.612352	2653.905360
588.964884	2649.383445
589.317362	2650.464772
589.669786	2647.309010
590.022155	2644.523773
590.374470	2646.139462
590.726731	2639.964049
591.078937	2640.516055
591.431090	2637.771147
591.783188	2635.008595
592.135232	2632.329222
592.487222	2631.764612
592.839157	2630.693367
593.191038	2629.823768
593.542866	2627.409055
593.894639	2625.190948
594.246358	2625.710187
594.598022	2623.645834
594.949633	2618.380349
595.301190	2618.529063
595.652692	2619.088631
596.004141	2617.372118
596.355535	2610.450614
596.706876	2610.130501
597.058162	2612.555296
597.409395	2609.787702
597.760573	2607.829214
598.111698	2607.017588
598.462768	2610.869030
598.813785	2608.751745
599.164748	2603.302258
599.515657	2604.905345
599.866511	2603.322422
600.217312	2605.346446
600.568060	2598.452668
600.918753	2605.414501
601.269392	2600.796804
601.619978	2600.461567
601.970510	2598.921495
602.320988	2600.068357
602.671412	2601.689088
603.021783	2600.073399
603.372100	2598.634149
603.722363	2598.427462
604.072572	2599.070209
604.422728	2597.872935
604.772830	2593.393870
605.122878	2590.338931
605.472872	2592.582244
605.822813	2591.442943
606.172701	2594.230701
606.522534	2593.285485
606.872314	2594.893613
607.222041	2595.896803
607.571714	2596.214395
607.921333	2594.008891
608.270899	2595.538881
608.620411	2593.512337
608.969870	2592.516709
609.319276	2594.623911
609.668627	2591.868921
610.017926	2594.744899
610.367171	2595.501072
610.716362	2594.951586
611.065500	2592.955289
611.414585	2594.344127
611.763616	2597.449478
612.112594	2595.256576
612.461518	2595.979982
612.810389	2593.749271
613.159207	2592.945207
613.507971	2594.999477
613.856682	2596.950404
614.205340	2594.543253
614.553945	2600.330497
614.902496	2595.934611
615.250994	2596.355548
615.599439	2595.697677
615.947830	2596.027873
616.296169	2596.889910
616.644454	2597.126844
616.992686	2597.063830
617.340864	2599.481063
617.688990	2598.321598
618.037063	2597.898141
618.385082	2597.215064
618.733048	2600.786722
619.080961	2599.675147
619.428821	2598.006526
619.776628	2597.295723
620.124382	2597.966196
620.472083	2595.518716
620.819731	2597.431834
621.167326	2594.765064
621.514868	2595.422934
621.862357	2593.260279
622.209793	2591.377408
622.557176	2589.865062
622.904506	2585.837180
623.251783	2582.119329
623.599007	2582.061356
623.946179	2582.709144
624.293297	2580.115471
624.640363	2582.832652
624.987376	2581.332909
625.334336	2578.772003
625.681243	2576.863926
626.028097	2575.840572
626.374899	2579.926427
626.721647	2577.332754
627.068343	2575.661611
627.414987	2573.521641
627.761577	2571.563153
628.108115	2573.637588
628.454600	2571.013667
628.801032	2573.574573
629.147412	2567.696588
629.493739	2572.150447
629.840014	2570.121383
630.186236	2569.292113
630.532405	2566.161557
630.878521	2567.895714
631.224585	2570.106260
631.570597	2564.024107
631.916556	2567.356310
632.262462	2567.545353
632.608316	2566.118707
632.954117	2564.190466
633.299866	2566.219530
633.645562	2562.950342
633.991206	2562.489076
634.336797	2557.649568
634.682336	2559.981102
635.027823	2558.655279
635.373257	2556.638817
635.718639	2556.356513
636.063968	2555.625545
636.409245	2554.715617
636.754470	2553.150339
637.099642	2551.844680
637.444762	2550.763352
637.789829	2551.179247
638.134845	2548.091541
638.479808	2548.225131
638.824719	2546.213711
639.169577	2545.092054
639.514383	2546.271684
639.859137	2544.885367
640.203839	2546.904349
640.548489	2540.600386
640.893086	2543.584749
