Dividing Wavelength (nm)	Counts (n)	Blue Motor Position (mm): 0.000000	Red Motor Position (mm): 24.200000	
326.493990	1985.173617
326.888308	1985.173617
327.282561	1985.173617
327.676750	1961.165122
328.070874	1962.311984
328.464933	1969.112501
328.858929	1977.614407
329.252859	1987.225367
329.646726	2005.781854
330.040528	2020.953207
330.434265	2037.770496
330.827938	2058.219936
331.221547	2075.342215
331.615091	2099.975814
332.008571	2115.298401
332.401986	2140.030302
332.795338	2157.492858
333.188625	2181.851714
333.581847	2200.009950
333.975006	2214.876313
334.368100	2233.904148
334.761129	2251.938876
335.154095	2266.734662
335.546996	2283.569596
335.939833	2307.270580
336.332606	2321.746254
336.725315	2332.962821
337.117960	2338.903821
337.510540	2345.457321
337.903056	2355.716069
338.295508	2360.545494
338.687896	2369.861547
339.080220	2377.934954
339.472480	2382.681201
339.864676	2386.542725
340.256807	2388.743188
340.648875	2389.277551
341.040879	2392.027500
341.432818	2393.597819
341.824694	2394.260731
342.216506	2393.368447
342.608253	2391.921636
342.999937	2390.532798
343.391557	2392.299722
343.783113	2390.328631
344.174605	2391.024310
344.566033	2388.044988
344.957397	2385.980636
345.348697	2385.423588
345.739934	2383.875954
346.131106	2380.269009
346.522215	2376.054604
346.913260	2377.755993
347.304241	2376.344470
347.695159	2373.337422
348.086012	2373.400437
348.476802	2371.126876
348.867528	2370.073275
349.258191	2370.090919
349.648789	2367.719056
350.039324	2367.169570
350.429796	2367.802235
350.820203	2365.369878
351.210548	2367.217461
351.600828	2365.306864
351.991045	2365.188397
352.381198	2363.933150
352.771288	2365.357276
353.161314	2369.175950
353.551276	2365.478263
353.941175	2366.368027
354.331010	2367.845085
354.720782	2364.482635
355.110490	2366.466329
355.500135	2369.977493
355.889717	2368.039169
356.279235	2368.969262
356.668689	2367.935826
357.058080	2367.411546
357.447408	2366.894828
357.836672	2363.940711
358.225873	2367.764427
358.615010	2366.806607
359.004084	2371.499922
359.393095	2372.876157
359.782043	2372.924048
360.170927	2373.788605
360.559748	2372.770292
360.948505	2374.648122
361.337199	2373.677700
361.725830	2378.008051
362.114398	2379.018803
362.502903	2379.018803
362.891344	2380.165665
363.279722	2381.670449
363.668037	2380.339585
364.056289	2381.022661
364.444478	2383.273536
364.832603	2382.033412
365.220665	2383.059287
365.608665	2382.693804
365.996601	2385.305121
366.384474	2385.960471
366.772284	2388.831408
367.160031	2386.837632
367.547715	2388.707900
367.935336	2387.293857
368.322893	2389.282592
368.710388	2390.061450
369.097820	2395.526061
369.485189	2394.613612
369.872495	2396.534292
370.259738	2395.228633
370.646918	2400.647873
371.034035	2399.667369
371.421090	2400.365568
371.808081	2406.142731
372.195010	2411.430901
372.581875	2416.013310
372.968678	2423.005390
373.355418	2427.330700
373.742096	2441.652618
374.128710	2449.032868
374.515262	2462.306226
374.901751	2476.953298
375.288177	2493.568941
375.674540	2510.595438
376.060841	2533.552853
376.447079	2555.885165
376.833254	2584.700400
377.219367	2607.448607
377.605417	2642.598052
377.991404	2667.458502
378.377329	2710.835110
378.763191	2742.614544
379.148991	2789.850156
379.534727	2838.706498
379.920402	2883.303066
380.306013	2932.635797
380.691563	2998.727845
381.077049	3050.906308
381.462474	3108.158692
381.847835	3182.571164
382.233134	3251.604725
382.618371	3311.448262
383.003545	3398.776170
383.388657	3479.684169
383.773706	3570.656831
384.158693	3645.102070
384.543618	3733.748240
384.928480	3813.700940
385.313280	3917.737753
385.698017	4023.720451
386.082692	4142.976507
386.467305	4205.353224
386.851856	4329.441226
387.236344	4481.948732
387.620770	4552.098909
388.005133	4669.043596
388.389435	4816.273014
388.773674	4899.285695
389.157851	5034.060943
389.541965	5164.465510
389.926018	5188.012740
390.310008	5368.513774
390.693936	5488.828472
391.077802	5603.030772
391.461606	5738.284929
391.845348	5850.125448
392.229027	5975.075487
392.612645	6194.867274
392.996200	6308.227701
393.379694	6486.669423
393.763125	6704.926179
394.146494	6801.403782
394.529801	6934.094512
394.913047	7180.284302
395.296230	7176.299270
395.679351	7221.614202
396.062410	7486.289902
396.445408	7386.031434
396.828343	7536.575412
397.211217	7674.211514
397.594028	7556.424955
397.976778	7760.886593
398.359466	7925.707118
398.742092	7896.405411
399.124656	8045.273205
399.507158	8231.347235
399.889598	8247.184019
400.271977	8450.771018
400.654294	8487.662181
401.036549	8682.328858
401.418742	8710.037560
401.800874	9007.974793
402.182944	9089.260878
402.564952	9454.704203
402.946898	9274.419939
403.328783	9329.494544
403.710606	9525.159369
404.092367	9782.971539
404.474067	10143.272886
404.855705	9937.878635
405.237282	9887.013392
405.618797	10317.414505
406.000250	10559.778058
406.381642	10919.507235
406.762972	10862.630417
407.144240	10672.102528
407.525447	10922.657956
407.906593	10861.871723
408.287677	11121.223965
408.668700	11266.804926
409.049661	11242.622511
409.430560	11409.000753
409.811399	11377.314580
410.192176	11541.167204
410.572891	11611.531629
410.953545	12089.465781
411.334138	11571.540156
411.714669	12165.884633
412.095139	11482.946918
412.475547	11971.948923
412.855894	11826.138590
413.236180	12146.019966
413.616405	11834.045639
413.996568	12105.418513
414.376670	12085.044689
414.756711	11963.636061
415.136691	12236.811147
415.516609	12413.128023
415.896466	12472.595994
416.276262	12768.110953
416.655997	13205.090772
417.035670	13249.243717
417.415283	13884.494637
417.794834	13975.341271
418.174324	13721.791397
418.553753	13620.121406
418.933121	14110.474441
419.312428	13913.577054
419.691674	13827.824506
420.070859	14274.412764
420.449983	13940.945478
420.829045	14483.900432
421.208047	14230.786618
421.586988	14680.495350
421.965867	14929.364512
422.344686	14931.897692
422.723444	15487.914276
423.102141	14185.824567
423.480777	15361.676222
423.859352	14872.326377
424.237866	15966.196268
424.616319	15664.460525
424.994712	16320.768344
425.373044	16112.014164
425.751314	16779.515865
426.129524	15916.210707
426.507673	16995.191550
426.885762	16688.880960
427.263789	16887.915796
427.641756	17057.056590
428.019662	17112.461391
428.397508	17146.789128
428.775292	17439.488603
429.153016	17399.330772
429.530679	17486.482239
429.908282	17503.730547
430.285824	17227.061942
430.663305	17917.039628
431.040726	17522.161006
431.418086	17346.534767
431.795385	17988.117376
432.172624	18405.930727
432.549802	17964.875136
432.926920	18153.091656
433.303977	18026.362090
433.680974	18278.505482
434.057910	18565.982321
434.434786	18585.534436
434.811601	18494.297113
435.188355	19515.642444
435.565050	19176.556792
435.941683	19123.914543
436.318257	19980.656119
436.694770	19788.898188
437.071222	20354.752584
437.447614	19430.842675
437.823946	19459.584813
438.200218	19595.315360
438.576429	19361.294916
438.952580	19616.614235
439.328670	19570.480116
439.704700	19961.474529
440.080670	19517.616056
440.456580	20082.258054
440.832429	20231.130889
441.208218	19224.442713
441.583947	19635.374889
441.959616	19718.649710
442.335224	19921.167983
442.710773	20014.078969
443.086261	20498.097794
443.461689	19851.476552
443.837057	19936.344377
444.212365	20503.534678
444.587612	20458.078594
444.962800	20000.266207
445.337927	20354.051864
445.712995	19098.098795
446.088002	20810.286369
446.462949	20918.961043
446.837837	21017.134994
447.212664	20904.946636
447.587431	23457.751655
447.962139	26106.078978
448.336786	28229.831394
448.711374	26668.802818
449.085901	23174.884951
449.460369	23013.200024
449.834776	22821.948729
450.209124	24936.916934
450.583412	24405.206274
450.957640	24754.563276
451.331808	23416.386467
451.705917	22055.363149
452.079965	21956.397737
452.453954	22121.664404
452.827883	21885.014999
453.201752	21580.020150
453.575562	21568.790980
453.949311	22355.689889
454.323001	22237.510120
454.696632	21882.507025
455.070202	23002.694259
455.443713	22941.169497
455.817164	23216.141754
456.190556	23455.808290
456.563888	22806.726965
456.937160	22950.334315
457.310373	21453.492230
457.683526	21591.766038
458.056619	21370.348479
458.429653	21107.918613
458.802628	21320.221766
459.175542	21202.379754
459.548398	21931.567534
459.921194	22824.973422
460.293930	23073.585485
460.666607	24257.359314
461.039224	25239.945733
461.411782	25213.361208
461.784280	24095.883594
462.156719	23478.884172
462.529099	22795.943937
462.901419	21658.485710
463.273680	20689.165086
463.645882	20474.106943
464.018024	20192.167811
464.390106	20424.723800
464.762130	21798.312194
465.134094	23992.582790
465.505999	26916.172237
465.877845	29426.467727
466.249631	29733.806712
466.621358	28189.217338
466.993026	26464.683978
467.364634	24833.976573
467.736184	23336.937883
468.107674	22274.003032
468.479105	21503.974344
468.850477	20789.037906
469.221790	19722.659947
469.593043	18534.404533
469.964238	17770.952030
470.335373	17429.441583
470.706449	17900.388696
471.077467	18765.624616
471.448425	20533.194307
471.819324	21529.167511
472.190164	20353.872903
472.560945	18443.779711
472.931667	16784.753624
473.302330	16019.103178
473.672934	15394.650410
474.043479	15303.503828
474.413965	14736.290841
474.784393	14328.348069
475.154761	14381.292787
475.525070	14125.897851
475.895321	13710.801681
476.265513	13639.648315
476.635645	13694.997664
477.005719	13382.509140
477.375734	13275.495526
477.745691	13216.768604
478.115588	13353.646014
478.485427	13672.498994
478.855207	14383.258837
479.224928	14884.997318
479.594591	15055.804213
479.964194	14441.242188
480.333739	14149.059432
480.703226	13849.398124
481.072653	13727.321543
481.442022	13572.548037
481.811333	13355.969986
482.180584	12737.506108
482.549777	12311.082466
482.918912	11928.743714
483.287988	11603.332192
483.657005	11172.285812
484.025964	10787.055959
484.394864	10546.658455
484.763706	10212.810562
485.132489	9830.902829
485.501213	9575.732225
485.869879	9389.995952
486.238487	9112.225855
486.607036	8933.229605
486.975527	8659.212647
487.343959	8494.011515
487.712333	8312.240110
488.080648	8114.639482
488.448905	7987.310018
488.817104	7781.704038
489.185244	7727.360399
489.553326	7762.303157
489.921350	7933.314219
490.289315	8135.514900
490.657222	8037.930764
491.025070	7886.910398
491.392861	7584.345385
491.760593	7249.572441
492.128267	6890.927112
492.495883	6573.137815
492.863440	6288.700791
493.230939	6032.645464
493.598380	5802.484023
493.965763	5647.763450
494.333088	5468.356347
494.700354	5312.461184
495.067563	5189.255384
495.434713	5072.401438
495.801805	4976.092715
496.168839	4857.159292
496.535815	4745.540585
496.902733	4650.610617
497.269593	4548.302920
497.636395	4457.116008
498.003139	4398.343716
498.369825	4296.446874
498.736453	4234.455805
499.103023	4148.168895
499.469535	4070.066298
499.835989	4014.112011
500.202385	3937.960341
500.568723	3881.479254
500.935003	3831.521419
501.301226	3773.686782
501.667390	3743.830548
502.033497	3706.876370
502.399546	3637.789877
502.765537	3572.869898
503.131470	3546.779406
503.497345	3519.181609
503.863163	3448.373562
504.228923	3427.772887
504.594625	3405.735483
504.960269	3356.410313
505.325856	3346.554857
505.691385	3305.429124
506.056856	3280.563633
506.422270	3269.853702
506.787625	3240.022674
507.152924	3222.141701
507.518164	3204.215358
507.883347	3169.393588
508.248472	3158.517298
508.613540	3150.486740
508.978550	3141.001809
509.343503	3122.215949
509.708398	3113.865278
510.073236	3101.784153
510.438016	3097.650407
510.802738	3073.606623
511.167403	3076.601069
511.532010	3069.225861
511.896561	3065.339131
512.261053	3071.277610
512.625488	3052.630382
512.989866	3041.088661
513.354186	3033.554656
513.718449	3022.421268
514.082655	3023.464787
514.446803	3017.513705
514.810894	3015.973632
515.174927	3010.037673
515.538904	3003.073319
515.902822	3005.649349
516.266684	2991.234170
516.630488	2993.497648
516.994235	2982.477685
517.357925	2985.840135
517.721558	2983.700165
518.085133	2983.644713
518.448651	2978.807725
518.812112	2972.985193
519.175516	2970.734318
519.538863	2966.812300
519.902152	2964.359778
520.265385	2966.028400
520.628560	2959.943728
520.991678	2955.268058
521.354739	2953.486010
521.717743	2952.848304
522.080690	2946.307407
522.443580	2951.101544
522.806413	2948.696913
523.169189	2948.805298
523.531908	2945.286573
523.894569	2936.336004
524.257174	2935.826848
524.619722	2937.976900
524.982213	2934.458174
525.344647	2930.185797
525.707025	2927.884510
526.069345	2929.774943
526.431608	2928.668409
526.793815	2927.708069
527.155964	2920.789086
527.518057	2920.650454
527.880093	2917.547624
528.242072	2921.704055
528.603995	2911.213414
528.965860	2908.823907
529.327669	2909.249885
529.689421	2905.668145
530.051117	2904.927095
530.412755	2907.515728
530.774337	2904.503638
531.135862	2899.684295
531.497331	2897.627504
531.858743	2896.314284
532.220098	2900.143040
532.581396	2891.928480
532.942638	2889.239024
533.303824	2894.025600
533.664953	2889.574261
534.026025	2883.615617
534.387040	2890.521998
534.747999	2885.551420
535.108902	2886.970505
535.469748	2882.650236
535.830537	2884.722151
536.191270	2882.998076
536.551947	2879.708723
536.912567	2879.297869
537.273131	2882.342726
537.633638	2874.924668
537.994089	2878.246788
538.354483	2868.184645
538.714821	2878.110677
539.075103	2880.021275
539.435328	2879.096223
539.795497	2874.539020
540.155609	2874.390306
540.515665	2878.229144
540.875665	2870.092722
541.235609	2871.892414
541.595496	2870.891745
541.955328	2878.093033
542.315102	2872.706560
542.674821	2867.821682
543.034483	2868.751775
543.394090	2864.391177
543.753640	2864.880169
544.113134	2872.167157
544.472571	2861.603419
544.831953	2873.130017
545.191278	2866.364789
545.550548	2863.274562
545.909761	2863.766074
546.268918	2865.989223
546.628019	2868.638349
546.987064	2862.513347
547.346053	2855.669981
547.704986	2860.645600
548.063863	2856.983202
548.422684	2858.072091
548.781449	2854.523118
549.140158	2856.471524
549.498811	2858.089735
549.857408	2850.091944
550.215949	2855.135619
550.574434	2850.933817
550.932864	2850.172603
551.291237	2854.596215
551.649555	2854.747450
552.007817	2856.073273
552.366022	2853.308200
552.724173	2849.923066
553.082267	2853.807275
553.440305	2855.533870
553.798288	2848.486337
554.156215	2847.901563
554.514086	2852.582274
554.871902	2847.130266
555.229661	2846.553054
555.587365	2843.157837
555.945014	2842.394102
556.302606	2841.650532
556.660143	2841.126252
557.017625	2841.564833
557.375050	2838.877897
557.732421	2841.537106
558.089735	2838.794718
558.446994	2837.395798
558.804197	2844.677745
559.161345	2842.540296
559.518437	2829.889520
559.875474	2833.267093
560.232455	2832.712566
560.589381	2832.422700
560.946251	2829.818944
561.303065	2835.031497
561.659825	2831.565704
562.016528	2828.709890
562.373177	2821.561534
562.729770	2822.874755
563.086307	2818.945175
563.442789	2820.155052
563.799216	2821.264106
564.155587	2816.964002
564.511904	2814.703044
564.868164	2814.730771
565.224370	2813.473003
565.580520	2809.891263
565.936615	2808.928402
566.292654	2805.069399
566.648638	2805.034111
567.004567	2800.870118
567.360441	2799.761064
567.716260	2797.459777
568.072023	2793.613377
568.427732	2786.152469
568.783385	2783.468055
569.138982	2782.873199
569.494525	2782.006120
569.850013	2775.089657
570.205445	2775.140069
570.560823	2774.988834
570.916145	2768.712598
571.271412	2769.030190
571.626625	2765.781167
571.981782	2762.501896
572.336884	2758.002666
572.691931	2754.683067
573.046923	2752.593508
573.401860	2748.626120
573.756743	2745.997158
574.111570	2744.767117
574.466342	2738.216137
574.821059	2735.887124
575.175722	2730.868656
575.530330	2725.260372
575.884882	2721.913046
576.239380	2720.935062
576.593823	2717.965822
576.948211	2712.642364
577.302544	2710.484750
577.656823	2708.314533
578.011047	2707.830583
578.365216	2700.455375
578.719330	2694.889941
579.073389	2693.186031
579.427394	2693.869107
579.781344	2689.511030
580.135239	2687.653364
580.489080	2685.026923
580.842866	2677.273629
581.196597	2679.968125
581.550273	2676.530058
581.903895	2673.462516
582.257463	2673.132321
582.610975	2666.218378
582.964434	2666.861125
583.317837	2665.308450
583.671186	2659.924498
584.024481	2658.717141
584.377721	2655.100113
584.730906	2654.812768
585.084037	2656.733447
585.437113	2652.173724
585.790135	2651.397386
586.143103	2647.621562
586.496016	2645.345481
586.848874	2643.323978
587.201679	2640.866416
587.554428	2636.150416
587.907124	2637.524131
588.259765	2633.322329
588.612352	2636.591517
588.964884	2632.019191
589.317362	2627.411576
589.669786	2632.167905
590.022155	2628.538274
590.374470	2626.610032
590.726731	2625.536267
591.078937	2625.574075
591.431090	2624.291102
591.783188	2619.970833
592.135232	2617.044443
592.487222	2616.147118
592.839157	2619.325565
593.191038	2614.778444
593.542866	2612.792230
593.894639	2609.822990
594.246358	2611.562188
594.598022	2608.290479
594.949633	2606.553802
595.301190	2606.805860
595.652692	2605.018771
596.004141	2602.750251
596.355535	2598.228336
596.706876	2598.679520
597.058162	2596.151381
597.409395	2599.181114
597.760573	2600.012905
598.111698	2595.927050
598.462768	2594.054261
598.813785	2594.727255
599.164748	2592.922522
599.515657	2594.268510
599.866511	2592.685588
600.217312	2591.982347
600.568060	2589.116451
600.918753	2594.139961
601.269392	2590.515371
601.619978	2588.975298
601.970510	2588.743405
602.320988	2589.050916
602.671412	2590.338931
603.021783	2588.357757
603.372100	2585.466655
603.722363	2586.800041
604.072572	2586.386666
604.422728	2590.495206
604.772830	2584.019844
605.122878	2582.623445
605.472872	2583.866089
605.822813	2581.315265
606.172701	2584.443301
606.522534	2584.778538
606.872314	2585.678384
607.222041	2583.407344
607.571714	2587.830957
607.921333	2583.861048
608.270899	2584.534042
608.620411	2586.391707
608.969870	2584.019844
609.319276	2584.760894
609.668627	2585.701069
610.017926	2583.341809
610.367171	2587.359609
610.716362	2585.842221
611.065500	2584.347519
611.414585	2584.937334
611.763616	2585.653178
612.112594	2584.849114
612.461518	2586.830287
612.810389	2588.367839
613.159207	2588.128385
613.507971	2585.227201
613.856682	2587.362129
614.205340	2586.852973
614.553945	2588.564444
614.902496	2585.191912
615.250994	2585.015472
615.599439	2585.469176
615.947830	2589.139136
616.296169	2587.278950
616.644454	2590.101996
616.992686	2585.708631
617.340864	2591.899168
617.688990	2589.633169
618.037063	2591.493355
618.385082	2587.715010
618.733048	2590.026379
619.080961	2588.851790
619.428821	2588.655185
619.776628	2585.706110
620.124382	2588.781214
620.472083	2587.082345
620.819731	2587.470514
621.167326	2583.666963
621.514868	2584.481110
621.862357	2583.792992
622.209793	2585.219639
622.557176	2581.703434
622.904506	2578.406519
623.251783	2573.216652
623.599007	2575.157496
623.946179	2569.864284
624.293297	2574.240006
624.640363	2572.397464
624.987376	2573.869481
625.334336	2570.716239
625.681243	2571.001064
626.028097	2567.706670
626.374899	2569.037535
626.721647	2567.999057
627.068343	2567.719273
627.414987	2566.375806
627.761577	2566.663152
628.108115	2566.305230
628.454600	2561.722821
628.801032	2562.536967
629.147412	2560.457491
629.493739	2563.343552
629.840014	2560.074363
630.186236	2562.438665
630.532405	2559.366081
630.878521	2559.373643
631.224585	2560.565876
631.570597	2558.221739
631.916556	2558.365412
632.262462	2558.630073
632.608316	2560.086966
632.954117	2555.804506
633.299866	2554.050185
633.645562	2555.761656
633.991206	2554.902140
634.336797	2553.210832
634.682336	2552.958775
635.027823	2550.596994
635.373257	2547.577343
635.718639	2548.855276
636.063968	2549.886192
636.409245	2544.736653
636.754470	2545.263453
637.099642	2543.078113
637.444762	2540.139121
637.789829	2540.287835
638.134845	2540.131559
638.479808	2539.007382
638.824719	2538.586445
639.169577	2540.418905
639.514383	2537.696682
639.859137	2535.957483
640.203839	2536.229706
640.548489	2537.863040
640.893086	2533.000847
641.237632	2528.667975
