Dividing Wavelength (nm)	Counts (n)	Blue Motor Position (mm): 0.000000	Red Motor Position (mm): 19.200000	
326.493990	1984.992136
326.888308	1984.992136
327.282561	1984.992136
327.676750	1958.843671
328.070874	1959.781325
328.464933	1965.253498
328.858929	1974.635085
329.252859	1989.448516
329.646726	2003.215907
330.040528	2017.668895
330.434265	2037.631864
330.827938	2056.490821
331.221547	2076.852041
331.615091	2099.600248
332.008571	2115.714296
332.401986	2139.616927
332.795338	2158.801038
333.188625	2177.332319
333.581847	2197.252439
333.975006	2213.767259
334.368100	2233.019425
334.761129	2247.243041
335.154095	2264.534199
335.546996	2281.094389
335.939833	2297.465536
336.332606	2312.447845
336.725315	2322.452015
337.117960	2329.297902
337.510540	2337.681341
337.903056	2345.739625
338.295508	2353.631552
338.687896	2362.020032
339.080220	2370.083357
339.472480	2374.549820
339.864676	2375.285828
340.256807	2381.892260
340.648875	2382.408978
341.040879	2385.209339
341.432818	2383.394524
341.824694	2385.831922
342.216506	2386.048692
342.608253	2385.970554
342.999937	2383.671788
343.391557	2383.192878
343.783113	2383.838146
344.174605	2380.773124
344.566033	2379.976622
344.957397	2375.943699
345.348697	2374.242309
345.739934	2375.197608
346.131106	2370.650487
346.522215	2372.157792
346.913260	2367.013295
347.304241	2370.189222
347.695159	2363.933150
348.086012	2362.882069
348.476802	2361.984744
348.867528	2361.122706
349.258191	2357.666995
349.648789	2359.141533
350.039324	2357.914012
350.429796	2359.340658
350.820203	2356.595750
351.210548	2358.715555
351.600828	2355.315297
351.991045	2355.708507
352.381198	2355.544670
352.771288	2358.876872
353.161314	2353.019052
353.551276	2355.166583
353.941175	2353.757581
354.331010	2357.334279
354.720782	2355.993332
355.110490	2355.743795
355.500135	2356.701614
355.889717	2358.042561
356.279235	2356.817561
356.668689	2357.472911
357.058080	2357.825792
357.447408	2357.735051
357.836672	2356.510051
358.225873	2357.631707
358.615010	2356.822602
359.004084	2360.469877
359.393095	2361.649507
359.782043	2362.551873
360.170927	2365.342152
360.559748	2364.739734
360.948505	2363.262676
361.337199	2366.315095
361.725830	2364.540609
362.114398	2369.160826
362.502903	2367.797194
362.891344	2369.806094
363.279722	2368.439941
363.668037	2371.681403
364.056289	2370.499253
364.444478	2372.873636
364.832603	2370.905065
365.220665	2373.012268
365.608665	2376.475540
365.996601	2375.593338
366.384474	2377.826570
366.772284	2377.400592
367.160031	2377.811446
367.547715	2375.938657
367.935336	2378.512167
368.322893	2381.120964
368.710388	2379.946375
369.097820	2383.775131
369.485189	2382.378732
369.872495	2383.966695
370.259738	2386.978784
370.646918	2389.002808
371.034035	2388.609598
371.421090	2394.046482
371.808081	2394.795093
372.195010	2398.185269
372.581875	2405.152144
372.968678	2410.531055
373.355418	2416.230080
373.742096	2429.112748
374.128710	2435.998964
374.515262	2449.844493
374.901751	2461.671040
375.288177	2481.994452
375.674540	2498.264776
376.060841	2519.455266
376.447079	2545.003834
376.833254	2567.850343
377.219367	2594.162646
377.605417	2628.029117
377.991404	2654.941317
378.377329	2692.860876
378.763191	2727.191134
379.148991	2772.009512
379.534727	2824.785352
379.920402	2866.178266
380.306013	2917.073755
380.691563	2976.758496
381.077049	3037.421221
381.462474	3090.865014
381.847835	3161.441167
382.233134	3232.644945
382.618371	3294.066363
383.003545	3377.063920
383.388657	3457.200623
383.773706	3550.015827
384.158693	3620.959985
384.543618	3718.655026
384.928480	3790.373001
385.313280	3896.713621
385.698017	3997.501409
386.082692	4117.001961
386.467305	4180.094522
386.851856	4305.485663
387.236344	4456.095175
387.620770	4521.549516
388.005133	4640.944204
388.389435	4789.849806
388.773674	4870.425089
389.157851	5005.394421
389.541965	5132.766735
389.926018	5156.850848
390.310008	5332.451880
390.693936	5453.646260
391.077802	5569.691101
391.461606	5702.943920
391.845348	5812.573893
392.229027	5935.802378
392.612645	6155.203476
392.996200	6272.102792
393.379694	6443.880110
393.763125	6660.984962
394.146494	6754.591627
394.529801	6890.876701
394.913047	7129.610623
395.296230	7126.341435
395.679351	7176.384969
396.062410	7432.982221
396.445408	7327.070099
396.828343	7483.466856
397.211217	7619.489789
397.594028	7492.803073
397.976778	7704.690331
398.359466	7858.642128
398.742092	7836.753438
399.124656	7976.315262
399.507158	8162.434662
399.889598	8183.746139
400.271977	8388.911019
400.654294	8424.335207
401.036549	8616.761090
401.418742	8640.666242
401.800874	8944.645298
402.182944	9017.593315
402.564952	9374.449034
402.946898	9201.731541
403.328783	9256.264223
403.710606	9450.756980
404.092367	9705.660403
404.474067	10058.609228
404.855705	9856.907622
405.237282	9810.549171
405.618797	10228.657430
406.000250	10473.032403
406.381642	10827.609521
406.762972	10779.075812
407.144240	10578.884031
407.525447	10831.834008
407.906593	10768.411251
408.287677	11020.421053
408.668700	11165.936479
409.049661	11143.316822
409.430560	11303.950668
409.811399	11272.635021
410.192176	11431.948085
410.572891	11501.800833
410.953545	11977.002680
411.334138	11465.794392
411.714669	12045.935418
412.095139	11364.283198
412.475547	11860.095802
412.855894	11698.143693
413.236180	12021.362313
413.616405	11705.879344
413.996568	11975.835653
414.376670	11947.716097
414.756711	11819.471664
415.136691	12084.285996
415.516609	12257.497521
415.896466	12307.699852
416.276262	12586.110176
416.655997	13022.689222
417.035670	13046.485989
417.415283	13659.908713
417.794834	13739.377462
418.174324	13461.970328
418.553753	13341.136390
418.933121	13811.839007
419.312428	13591.926233
419.691674	13481.330879
420.070859	13895.433941
420.449983	13521.733206
420.829045	14015.967929
421.208047	13731.132655
421.586988	14126.069250
421.965867	14314.222756
422.344686	14257.653448
422.723444	14734.798659
423.102141	13456.634266
423.480777	14490.096010
423.859352	13967.759375
424.237866	14899.813269
424.616319	14554.418613
424.994712	15057.664398
425.373044	14780.486637
425.751314	15274.834786
426.129524	14416.134722
426.507673	15260.522950
426.885762	14888.185847
427.263789	14934.665286
427.641756	14940.129897
428.019662	14885.085538
428.397508	14788.504592
428.775292	14894.552825
429.153016	14721.255599
429.530679	14640.060255
429.908282	14520.849569
430.285824	14163.267924
430.663305	14531.385581
431.040726	14082.760697
431.418086	13794.378971
431.795385	14099.920785
432.172624	14240.143000
432.549802	13760.295730
432.926920	13708.225652
433.303977	13460.135348
433.680974	13446.625055
434.057910	13457.950007
434.434786	13294.931695
434.811601	13040.620607
435.188355	13510.047812
435.565050	13091.208586
435.941683	12852.313346
436.318257	13193.541488
436.694770	12871.147097
437.071222	13002.149041
437.447614	12250.006367
437.823946	12055.196018
438.200218	11921.716346
438.576429	11597.786923
438.952580	11534.848118
439.328670	11320.110087
439.704700	11318.088584
440.080670	10911.892572
440.456580	10976.142078
440.832429	10842.493528
441.208218	10197.813130
441.583947	10181.986427
441.959616	10034.124344
442.335224	9920.761397
442.710773	9776.450806
443.086261	9785.545048
443.461689	9352.552782
443.837057	9195.674595
444.212365	9224.520077
444.587612	9024.479531
444.962800	8694.926701
445.337927	8641.961818
445.712995	8064.825320
446.088002	8436.199562
446.462949	8307.042680
446.837837	8173.464706
447.212664	7963.646842
447.587431	8522.569651
447.962139	9079.203777
448.336786	9485.510694
448.711374	8899.204337
449.085901	7823.101993
449.460369	7570.623365
449.834776	7354.340221
450.209124	7676.432143
450.583412	7412.961278
450.957640	7333.537899
451.331808	6907.126860
451.705917	6478.911088
452.079965	6313.097455
452.453954	6207.898657
452.827883	6035.213932
453.201752	5858.864288
453.575562	5736.276029
453.949311	5742.761474
454.323001	5612.634170
454.696632	5443.236277
455.070202	5497.809288
455.443713	5382.480291
455.817164	5312.017563
456.190556	5234.577878
456.563888	5054.618768
456.937160	4963.222649
457.310373	4698.020148
457.683526	4613.744658
458.056619	4501.495806
458.429653	4393.690731
458.802628	4334.167307
459.175542	4248.127414
459.548398	4241.369747
459.921194	4255.968929
460.293930	4222.425091
460.666607	4261.554527
461.039224	4275.604223
461.411782	4194.935679
461.784280	4036.640928
462.156719	3914.708019
462.529099	3798.050678
462.901419	3658.327537
463.273680	3548.304355
463.645882	3484.430415
464.018024	3422.169644
464.390106	3395.885068
464.762130	3435.178342
465.134094	3520.956095
465.505999	3639.398005
465.877845	3710.909293
466.249631	3670.305319
466.621358	3546.068603
466.993026	3428.181220
467.364634	3326.707835
467.736184	3237.043352
468.107674	3174.228054
468.479105	3123.133439
468.850477	3072.396747
469.221790	3020.246010
469.593043	2967.066878
469.964238	2927.067843
470.335373	2902.590520
470.706449	2906.688978
471.077467	2922.745053
471.448425	2967.618884
471.819324	2982.896101
472.190164	2949.967284
472.560945	2889.312121
472.931667	2839.031653
473.302330	2813.805719
473.672934	2791.186062
474.043479	2781.900256
474.413965	2766.242432
474.784393	2750.824063
475.154761	2754.602408
475.525070	2743.176633
475.895321	2733.467371
476.265513	2728.020404
476.635645	2736.683627
477.005719	2728.325394
477.375734	2727.481000
477.745691	2725.845146
478.115588	2730.649366
478.485427	2739.216807
478.855207	2764.261259
479.224928	2778.585697
479.594591	2784.650206
479.964194	2771.303751
480.333739	2768.687392
480.703226	2762.348141
481.072653	2763.414345
481.442022	2764.034407
481.811333	2761.251690
482.180584	2747.312900
482.549777	2740.472054
482.918912	2732.721280
483.287988	2728.040568
483.657005	2714.426932
484.025964	2708.561550
484.394864	2706.035932
484.763706	2701.851774
485.132489	2692.439940
485.501213	2688.074301
485.869879	2682.564320
486.238487	2683.940555
486.607036	2678.057528
486.975527	2675.599966
487.343959	2675.879750
487.712333	2669.777433
488.080648	2669.366579
488.448905	2668.643173
488.817104	2667.022442
489.185244	2668.963287
489.553326	2678.763290
489.921350	2693.112934
490.289315	2706.540047
490.657222	2714.232848
491.025070	2712.622199
491.392861	2709.630275
491.760593	2697.186186
492.128267	2685.717561
492.495883	2678.546520
492.863440	2667.181239
493.230939	2661.204951
493.598380	2652.715648
493.965763	2647.145173
494.333088	2642.567805
494.700354	2637.566980
495.067563	2640.614358
495.434713	2635.747124
495.801805	2639.953967
496.168839	2637.897176
496.535815	2633.521454
496.902733	2631.323511
497.269593	2633.216465
497.636395	2631.308388
498.003139	2631.817544
498.369825	2628.971813
498.736453	2632.304016
499.103023	2630.998357
499.469535	2631.426855
499.835989	2631.721762
500.202385	2630.499283
500.568723	2630.610188
500.935003	2633.448358
501.301226	2631.978861
501.667390	2638.005561
502.033497	2640.261477
502.399546	2638.670993
502.765537	2634.668317
503.131470	2638.728966
503.497345	2641.801550
503.863163	2637.418266
504.228923	2638.998668
504.594625	2644.591828
504.960269	2642.673669
505.325856	2649.007879
505.691385	2645.315234
506.056856	2649.055770
506.422270	2651.914104
506.787625	2652.143477
507.152924	2655.899136
507.518164	2654.061636
507.883347	2656.050371
508.248472	2658.240752
508.613540	2660.247132
508.978550	2663.728048
509.343503	2666.596465
509.708398	2671.700633
510.073236	2674.788340
510.438016	2678.896880
510.802738	2674.816066
511.167403	2680.235307
511.532010	2687.192099
511.896561	2691.020855
512.261053	2696.878676
512.625488	2695.704087
512.989866	2694.524457
513.354186	2698.416228
513.718449	2695.280630
514.082655	2705.451158
514.446803	2704.707588
514.810894	2710.212528
515.174927	2712.370142
515.538904	2711.656818
515.902822	2716.642520
516.266684	2717.602859
516.630488	2717.817108
516.994235	2719.233673
517.357925	2726.036710
517.721558	2727.889334
518.085133	2727.995198
518.448651	2735.052813
518.812112	2733.182545
519.175516	2733.442165
519.538863	2734.460478
519.902152	2736.940726
520.265385	2741.351735
520.628560	2740.449369
520.991678	2740.724112
521.354739	2743.295100
521.717743	2748.321130
522.080690	2747.910276
522.443580	2752.343971
522.806413	2753.437902
523.169189	2753.500916
523.531908	2754.862027
523.894569	2752.830442
524.257174	2756.366812
524.619722	2759.547780
524.982213	2758.327821
525.344647	2757.743047
525.707025	2758.474014
526.069345	2759.966196
526.431608	2762.610281
526.793815	2763.908378
527.155964	2762.015425
527.518057	2761.203799
527.880093	2761.717997
528.242072	2765.662700
528.603995	2763.686567
528.965860	2760.014087
529.327669	2762.675816
529.689421	2762.428799
530.051117	2761.849067
530.412755	2764.326794
530.774337	2763.283275
531.135862	2763.676485
531.497331	2765.629932
531.858743	2759.580547
532.220098	2765.009870
532.581396	2761.501227
532.942638	2759.822523
533.303824	2763.449633
533.664953	2761.438213
534.026025	2758.095928
534.387040	2764.757812
534.747999	2763.147164
535.108902	2763.769746
535.469748	2757.475866
535.830537	2759.983840
536.191270	2762.585075
536.551947	2761.415527
536.912567	2762.149015
537.273131	2762.640528
537.633638	2757.669950
537.994089	2758.952924
538.354483	2755.255237
538.714821	2759.575506
539.075103	2764.878800
539.435328	2757.201123
539.795497	2756.006369
540.155609	2762.675816
540.515665	2761.710435
540.875665	2755.822367
541.235609	2758.143819
541.595496	2758.128695
541.955328	2759.676329
542.315102	2756.273551
542.674821	2753.120309
543.034483	2751.015627
543.394090	2750.970257
543.753640	2751.418919
544.113134	2755.645927
544.472571	2746.332395
544.831953	2754.367994
545.191278	2748.240472
545.550548	2742.997672
545.909761	2744.172261
546.268918	2745.987076
546.628019	2744.721747
546.987064	2740.277969
547.346053	2733.318657
547.704986	2735.698081
548.063863	2732.194479
548.422684	2728.769015
548.781449	2725.593088
549.140158	2726.941597
549.498811	2724.231977
549.857408	2716.846686
550.215949	2718.613611
550.574434	2710.625902
550.932864	2706.963504
551.291237	2710.567929
551.649555	2708.150696
552.007817	2705.332691
552.366022	2700.939325
552.724173	2698.317925
553.082267	2697.657534
553.440305	2695.194931
553.798288	2687.885257
554.156215	2687.625638
554.514086	2686.965247
554.871902	2681.246058
555.229661	2679.685821
555.587365	2673.550737
555.945014	2672.852537
556.302606	2665.018584
556.660143	2668.905313
557.017625	2662.959272
557.375050	2659.783345
557.732421	2656.723365
558.089735	2654.444763
558.446994	2649.872437
558.804197	2649.874958
559.161345	2644.836324
559.518437	2639.165026
559.875474	2637.645118
560.232455	2635.837865
560.589381	2633.370220
560.946251	2633.168574
561.303065	2627.698922
561.659825	2626.010135
562.016528	2618.148456
562.373177	2621.473097
562.729770	2618.894547
563.086307	2611.428598
563.442789	2612.951026
563.799216	2608.781992
564.155587	2605.658997
564.511904	2604.055910
564.868164	2601.908379
565.224370	2600.108687
565.580520	2598.828234
565.936615	2597.494848
566.292654	2591.500917
566.648638	2589.880186
567.004567	2592.110896
567.360441	2589.519743
567.716260	2587.160483
568.072023	2585.012952
568.427732	2579.525656
568.783385	2580.324678
569.138982	2576.329564
569.494525	2576.745459
569.850013	2571.041394
570.205445	2576.523648
570.560823	2570.577607
570.916145	2572.384861
571.271412	2574.222362
571.626625	2569.677762
571.981782	2565.365054
572.336884	2566.146433
572.691931	2565.435631
573.046923	2561.495969
573.401860	2560.432285
573.756743	2562.642831
574.111570	2558.902295
574.466342	2562.060578
574.821059	2557.735268
575.175722	2555.502037
575.530330	2556.069167
575.884882	2554.040102
576.239380	2552.570606
576.593823	2553.919115
576.948211	2551.088507
577.302544	2551.340564
577.656823	2548.678835
578.011047	2552.237890
578.365216	2551.476676
578.719330	2547.912580
579.073389	2545.835624
579.427394	2551.234700
579.781344	2545.139945
580.135239	2541.633823
580.489080	2544.933258
580.842866	2541.429656
581.196597	2544.666077
581.550273	2543.574667
581.903895	2542.044677
582.257463	2542.752959
582.610975	2540.945705
582.964434	2538.591486
583.317837	2540.345808
583.671186	2536.950591
584.024481	2540.633154
584.377721	2538.475540
584.730906	2538.808256
585.084037	2536.355735
585.437113	2538.102494
585.790135	2538.462937
586.143103	2535.634850
586.496016	2534.792977
586.848874	2530.654190
587.201679	2534.319108
587.554428	2531.223840
587.907124	2531.790970
588.259765	2529.282996
588.612352	2533.522606
588.964884	2532.239633
589.317362	2531.594365
589.669786	2532.363141
590.022155	2530.560928
590.374470	2532.335414
590.726731	2526.807789
591.078937	2529.351051
591.431090	2531.407842
591.783188	2528.264683
592.135232	2528.420958
592.487222	2525.020700
592.839157	2526.951462
593.191038	2524.579599
593.542866	2525.948273
593.894639	2524.705628
594.246358	2523.946934
594.598022	2520.481141
594.949633	2525.401307
595.301190	2519.054495
595.652692	2521.481810
596.004141	2520.062725
596.355535	2517.244720
596.706876	2519.387211
597.058162	2514.898063
597.409395	2519.230935
597.760573	2518.610873
598.111698	2515.233300
598.462768	2519.130112
598.813785	2516.549041
599.164748	2519.246058
599.515657	2516.271778
599.866511	2512.412774
600.217312	2514.598115
600.568060	2515.371932
600.918753	2516.785975
601.269392	2513.484020
601.619978	2512.942096
601.970510	2516.163393
602.320988	2508.742814
602.671412	2517.053157
603.021783	2512.392610
603.372100	2513.965450
603.722363	2514.396468
604.072572	2513.509225
604.422728	2514.162055
604.772830	2510.048473
605.122878	2508.553771
605.472872	2512.450583
605.822813	2509.408247
606.172701	2509.935047
606.522534	2510.050994
606.872314	2509.269615
607.222041	2511.018895
607.571714	2512.569050
607.921333	2508.155520
608.270899	2516.274298
608.620411	2509.952691
608.969870	2511.865809
609.319276	2509.017557
609.668627	2510.345901
610.017926	2513.854544
610.367171	2511.459996
610.716362	2512.788340
611.065500	2509.204080
611.414585	2511.492764
611.763616	2508.193329
612.112594	2513.070645
612.461518	2511.550737
612.810389	2512.006962
613.159207	2511.898577
613.507971	2511.502846
613.856682	2510.933196
614.205340	2509.657784
614.553945	2510.547548
614.902496	2510.499657
615.250994	2512.372445
615.599439	2511.981756
615.947830	2509.251971
616.296169	2511.331447
616.644454	2511.497805
616.992686	2510.754235
617.340864	2511.190295
617.688990	2510.814729
618.037063	2513.562157
618.385082	2510.910511
618.733048	2511.661643
619.080961	2510.608041
619.428821	2511.767507
619.776628	2510.933196
620.124382	2513.541993
620.472083	2510.497136
620.819731	2513.995697
621.167326	2509.564522
621.514868	2510.171982
621.862357	2507.371621
622.209793	2510.275325
622.557176	2507.389265
622.904506	2503.530261
623.251783	2501.165960
623.599007	2501.423059
623.946179	2499.678820
624.293297	2500.009015
624.640363	2497.438027
624.987376	2501.939777
625.334336	2500.066989
625.681243	2502.035559
626.028097	2499.315857
626.374899	2496.268479
626.721647	2498.874756
627.068343	2498.199241
627.414987	2496.190341
627.761577	2496.954076
628.108115	2495.320742
628.454600	2496.770074
628.801032	2497.705208
629.147412	2496.220588
629.493739	2494.746051
629.840014	2496.621360
630.186236	2495.471977
630.532405	2495.734117
630.878521	2494.257059
631.224585	2493.649600
631.570597	2492.553149
631.916556	2496.412152
632.262462	2493.518530
632.608316	2491.678509
632.954117	2493.079949
633.299866	2493.203458
633.645562	2488.593323
633.991206	2490.050216
634.336797	2489.654485
634.682336	2489.737664
635.027823	2486.536532
635.373257	2486.458394
635.718639	2485.450163
636.063968	2486.241624
636.409245	2483.912611
636.754470	2487.892602
637.099642	2484.762046
637.444762	2481.754997
637.789829	2479.811633
638.134845	2483.574854
638.479808	2480.555203
638.824719	2481.349184
639.169577	2480.146869
639.514383	2480.386324
639.859137	2482.269195
640.203839	2478.092599
640.548489	2477.661580
640.893086	2476.055973
641.237632	2475.141003
641.582125	2477.459934
641.926566	2472.620427
642.270955	2479.052939
642.615292	2476.925572
642.959576	2478.195943
