Dividing Wavelength (nm)	Counts (n)	Blue Motor Position (mm): 0.000000	Red Motor Position (mm): 25.600000	
326.493990	1985.226549
326.888308	1985.226549
327.282561	1985.226549
327.676750	1962.122941
328.070874	1964.477160
328.464933	1972.638788
328.858929	1981.271764
329.252859	1992.800883
329.646726	2007.498367
330.040528	2022.087466
330.434265	2040.744777
330.827938	2059.971737
331.221547	2079.125601
331.615091	2099.058324
332.008571	2117.357712
332.401986	2139.750518
332.795338	2157.825575
333.188625	2181.163596
333.581847	2199.326874
333.975006	2220.318238
334.368100	2236.001268
334.761129	2251.994328
335.154095	2265.998654
335.546996	2286.344751
335.939833	2308.913997
336.332606	2324.571820
336.725315	2335.334684
337.117960	2340.882474
337.510540	2347.884636
337.903056	2360.885772
338.295508	2365.798377
338.687896	2371.840199
339.080220	2381.443598
339.472480	2386.794782
339.864676	2391.344424
340.256807	2391.157901
340.648875	2396.824158
341.040879	2395.697460
341.432818	2397.882800
341.824694	2397.083777
342.216506	2397.350958
342.608253	2399.758109
342.999937	2396.962790
343.391557	2397.892882
343.783113	2396.078067
344.174605	2398.013870
344.566033	2390.661347
344.957397	2392.491286
345.348697	2388.690256
345.739934	2383.303783
346.131106	2384.261602
346.522215	2382.366129
346.913260	2383.177754
347.304241	2380.936962
347.695159	2380.150542
348.086012	2376.374717
348.476802	2375.089223
348.867528	2375.154758
349.258191	2373.932278
349.648789	2373.332381
350.039324	2371.252905
350.429796	2375.152238
350.820203	2370.123687
351.210548	2370.017822
351.600828	2371.131917
351.991045	2373.594521
352.381198	2372.740045
352.771288	2370.292565
353.161314	2366.849457
353.551276	2368.139993
353.941175	2370.695858
354.331010	2371.769623
354.720782	2369.294417
355.110490	2369.027236
355.500135	2370.925230
355.889717	2370.403471
356.279235	2372.006558
356.668689	2371.381454
357.058080	2373.203832
357.447408	2369.911958
357.836672	2371.724253
358.225873	2369.370034
358.615010	2369.251567
359.004084	2374.469161
359.393095	2377.183823
359.782043	2378.522249
360.170927	2378.207177
360.559748	2378.766745
360.948505	2378.295397
361.337199	2382.149359
361.725830	2381.788917
362.114398	2383.197919
362.502903	2383.679349
362.891344	2383.603732
363.279722	2382.116592
363.668037	2385.075749
364.056289	2384.090203
364.444478	2388.004659
364.832603	2390.142108
365.220665	2389.131357
365.608665	2390.512633
365.996601	2389.227139
366.384474	2389.693446
366.772284	2391.742675
367.160031	2393.948180
367.547715	2391.712428
367.935336	2394.936246
368.322893	2392.576986
368.710388	2397.066133
369.097820	2399.317008
369.485189	2397.199724
369.872495	2396.614950
370.259738	2399.858933
370.646918	2407.360169
371.034035	2403.881773
371.421090	2407.786147
371.808081	2412.023237
372.195010	2414.707651
372.581875	2420.820050
372.968678	2429.029569
373.355418	2436.147678
373.742096	2446.436673
374.128710	2455.830864
374.515262	2471.105560
374.901751	2482.372539
375.288177	2499.827534
375.674540	2519.919053
376.060841	2539.231713
376.447079	2562.657955
376.833254	2593.517378
377.219367	2615.522015
377.605417	2653.582726
377.991404	2678.032322
378.377329	2719.357181
378.763191	2749.533528
379.148991	2797.928605
379.534727	2848.884588
379.920402	2896.649521
380.306013	2942.808846
380.691563	3007.191942
381.077049	3061.475087
381.462474	3118.818212
381.847835	3192.381249
382.233134	3266.463526
382.618371	3323.448729
383.003545	3410.534661
383.388657	3493.023062
383.773706	3581.404571
384.158693	3654.730674
384.543618	3752.014861
384.928480	3830.745081
385.313280	3931.840381
385.698017	4036.066236
386.082692	4160.275226
386.467305	4218.533320
386.851856	4347.090305
387.236344	4505.977392
387.620770	4565.684818
388.005133	4684.663611
388.389435	4833.977547
388.773674	4922.159930
389.157851	5051.442841
389.541965	5185.592986
389.926018	5208.588209
390.310008	5382.255959
390.693936	5505.842367
391.077802	5627.838290
391.461606	5759.712354
391.845348	5872.656885
392.229027	6001.629765
392.612645	6218.633794
392.996200	6335.659139
393.379694	6508.593402
393.763125	6736.214101
394.146494	6828.285734
394.529801	6968.633978
394.913047	7212.063736
395.296230	7205.674073
395.679351	7261.015860
396.062410	7524.680809
396.445408	7415.328100
396.828343	7575.541010
397.211217	7707.193263
397.594028	7587.269255
397.976778	7791.037734
398.359466	7961.433775
398.742092	7929.586286
399.124656	8085.279802
399.507158	8269.667566
399.889598	8288.715565
400.271977	8501.290941
400.654294	8525.861525
401.036549	8729.887103
401.418742	8756.007842
401.800874	9050.655722
402.182944	9133.587744
402.564952	9498.622735
402.946898	9323.311569
403.328783	9388.665088
403.710606	9573.677954
404.092367	9834.504734
404.474067	10198.753305
404.855705	9980.040325
405.237282	9945.034552
405.618797	10366.550631
406.000250	10614.333425
406.381642	10979.958231
406.762972	10928.122567
407.144240	10725.037164
407.525447	10983.378654
407.906593	10921.969839
408.287677	11170.428147
408.668700	11331.893784
409.049661	11300.550410
409.430560	11467.989815
409.811399	11438.567120
410.192176	11598.258271
410.572891	11674.893892
410.953545	12152.868373
411.334138	11625.445214
411.714669	12229.980383
412.095139	11534.202850
412.475547	12042.913246
412.855894	11884.409287
413.236180	12213.011859
413.616405	11900.210784
413.996568	12171.656754
414.376670	12147.426448
414.756711	12031.313551
415.136691	12301.910087
415.516609	12474.980460
415.896466	12549.455946
416.276262	12838.424967
416.655997	13284.388122
417.035670	13318.436075
417.415283	13960.784939
417.794834	14053.766501
418.174324	13800.902224
418.553753	13704.414539
418.933121	14189.184496
419.312428	13996.360362
419.691674	13910.504470
420.070859	14364.762843
420.449983	14015.083207
420.829045	14569.363113
421.208047	14315.999762
421.586988	14772.388023
421.965867	15013.052707
422.344686	15012.528427
422.723444	15574.201186
423.102141	14275.173978
423.480777	15454.685511
423.859352	14952.027020
424.237866	16059.490382
424.616319	15766.097748
424.994712	16423.166782
425.373044	16220.187243
425.751314	16884.964201
426.129524	16012.259811
426.507673	17093.017661
426.885762	16797.958926
427.263789	16990.132752
427.641756	17152.019326
428.019662	17221.380561
428.397508	17258.909431
428.775292	17562.628868
429.153016	17514.919388
429.530679	17592.981655
429.908282	17624.007437
430.285824	17343.391608
430.663305	18044.565696
431.040726	17641.081825
431.418086	17464.724619
431.795385	18120.147716
432.172624	18536.398310
432.549802	18083.743023
432.926920	18275.145553
433.303977	18157.353952
433.680974	18410.853414
434.057910	18703.666315
434.434786	18718.446978
434.811601	18640.649371
435.188355	19666.972842
435.565050	19322.173042
435.941683	19277.972205
436.318257	20150.162397
436.694770	19949.889957
437.071222	20547.377593
437.447614	19612.994687
437.823946	19642.941661
438.200218	19781.117168
438.576429	19563.011646
438.952580	19835.511218
439.328670	19796.278438
439.704700	20210.799916
440.080670	19778.468041
440.456580	20362.941939
440.832429	20531.697084
441.208218	19541.304438
441.583947	19972.376024
441.959616	20071.026363
442.335224	20300.330808
442.710773	20431.471384
443.086261	20951.877257
443.461689	20313.851183
443.837057	20439.895152
444.212365	21065.787170
444.587612	21045.430990
444.962800	20623.040271
445.337927	21034.000174
445.712995	19776.983421
446.088002	21599.239549
446.462949	21769.622987
446.837837	21928.363881
447.212664	21874.365561
447.587431	24657.813452
447.962139	27504.167380
448.336786	29828.504787
448.711374	28245.421163
449.085901	24605.324958
449.460369	24524.066599
449.834776	24410.121399
450.209124	26803.426831
450.583412	26315.659908
450.957640	26788.134491
451.331808	25416.373515
451.705917	24044.761253
452.079965	24035.616600
452.453954	24340.682025
452.827883	24158.890456
453.201752	23901.899994
453.575562	24008.033927
453.949311	25013.870148
454.323001	24995.326263
454.696632	24693.030953
455.070202	26090.065753
455.443713	26123.854087
455.817164	26576.567346
456.190556	26966.921533
456.563888	26353.453439
456.937160	26649.696845
457.310373	25004.443190
457.683526	25310.116074
458.056619	25181.838873
458.429653	25001.267263
458.802628	25395.490535
459.175542	25370.569591
459.548398	26396.550263
459.921194	27655.351584
460.293930	28092.981711
460.666607	29719.094105
461.039224	31079.114233
461.411782	31233.164333
461.784280	29996.995272
462.156719	29396.586287
462.529099	28729.157683
462.901419	27423.796265
463.273680	26347.767017
463.645882	26226.713790
464.018024	26033.970314
464.390106	26527.521961
464.762130	28535.607622
465.134094	31621.673457
465.505999	35697.925251
465.877845	39226.427954
466.249631	39918.074262
466.621358	38139.615678
466.993026	36079.671668
467.364634	34095.329841
467.736184	32246.564806
468.107674	30994.246408
468.479105	30109.715472
468.850477	29300.295208
469.221790	27945.215410
469.593043	26417.105568
469.964238	25509.334913
470.335373	25199.016605
470.706449	26116.877130
471.077467	27631.474159
471.448425	30554.327597
471.819324	32250.045722
472.190164	30657.827527
472.560945	27886.586791
472.931667	25502.355435
473.302330	24476.160514
473.672934	23668.721423
474.043479	23701.307442
474.413965	22923.767434
474.784393	22420.756062
475.154761	22686.429911
475.525070	22434.273916
475.895321	21884.493239
476.265513	21953.206687
476.635645	22229.086352
477.005719	21845.399091
477.375734	21832.929797
477.745691	21926.791041
478.115588	22351.646884
478.485427	23131.142859
478.855207	24653.135261
479.224928	25762.544508
479.594591	26302.449565
479.964194	25369.742842
480.333739	25070.038684
480.703226	24686.658934
481.072653	24659.227495
481.442022	24559.581528
481.811333	24328.590818
482.180584	23307.048882
482.549777	22686.245909
482.918912	22077.745872
483.287988	21591.642530
483.657005	20872.889938
484.025964	20246.705534
484.394864	19917.863507
484.763706	19407.300486
485.132489	18723.364623
485.501213	18343.236418
485.869879	18081.376202
486.238487	17606.476824
486.607036	17385.039100
486.975527	16893.483751
487.343959	16665.774831
487.712333	16405.308494
488.080648	16088.073724
488.448905	15953.681604
488.817104	15614.459841
489.185244	15639.211906
489.553326	15895.156328
489.921350	16489.972153
490.289315	17183.786157
490.657222	17078.610043
491.025070	16865.759925
491.392861	16236.923874
491.760593	15512.303379
492.128267	14711.173292
492.495883	13991.818282
492.863440	13352.025283
493.230939	12730.425808
493.598380	12209.329296
493.965763	11879.771425
494.333088	11475.344858
494.700354	11142.759774
495.067563	10858.690755
495.434713	10623.790630
495.801805	10428.990363
496.168839	10148.291355
496.535815	9884.457527
496.902733	9687.608031
497.269593	9423.416282
497.636395	9210.099857
498.003139	9096.701622
498.369825	8821.242893
498.736453	8687.029734
499.103023	8444.703989
499.469535	8247.098320
499.835989	8090.492355
500.202385	7879.789768
500.568723	7713.900519
500.935003	7575.465393
501.301226	7399.554329
501.667390	7318.865621
502.033497	7202.276335
502.399546	6984.069991
502.765537	6756.550115
503.131470	6657.987996
503.497345	6560.040897
503.863163	6293.898221
504.228923	6221.363579
504.594625	6128.513087
504.960269	5942.718841
505.325856	5880.705087
505.691385	5707.445671
506.056856	5605.695021
506.422270	5529.578639
506.787625	5394.110233
507.152924	5298.857631
507.518164	5205.618970
507.883347	5054.994334
508.248472	4972.415193
508.613540	4912.826234
508.978550	4844.359803
509.343503	4740.539760
509.708398	4668.940252
510.073236	4616.630719
510.438016	4538.689439
510.802738	4433.815795
511.167403	4393.289960
511.532010	4337.048327
511.896561	4283.932209
512.261053	4256.362139
512.625488	4173.354500
512.989866	4102.261627
513.354186	4037.402142
513.718449	3982.718226
514.082655	3960.348106
514.446803	3895.551635
514.810894	3863.683981
515.174927	3816.559274
515.538904	3766.538425
515.902822	3748.559150
516.266684	3692.279709
516.630488	3666.569824
516.994235	3624.554327
517.357925	3605.309722
517.721558	3577.480033
518.085133	3555.682083
518.448651	3525.861138
518.812112	3492.834018
519.175516	3467.030873
519.538863	3449.646453
519.902152	3427.455294
520.265385	3407.976276
520.628560	3389.276116
520.991678	3362.437013
521.354739	3346.653160
521.717743	3334.521623
522.080690	3314.634271
522.443580	3306.016419
522.806413	3294.678864
523.169189	3275.444341
523.531908	3269.072323
523.894569	3247.057604
524.257174	3240.488980
524.619722	3231.246025
524.982213	3217.846638
525.344647	3201.404915
525.707025	3192.116589
526.069345	3190.722710
526.431608	3178.175278
526.793815	3173.713857
527.155964	3158.986126
527.518057	3149.801143
527.880093	3136.676499
528.242072	3136.507621
528.603995	3123.642596
528.965860	3114.603807
529.327669	3107.505863
529.689421	3099.944132
530.051117	3094.141764
530.412755	3090.544900
530.774337	3079.976121
531.135862	3071.464133
531.497331	3065.513051
531.858743	3057.517781
532.220098	3055.145918
532.581396	3046.926317
532.942638	3038.038763
533.303824	3039.276366
533.664953	3035.072043
534.026025	3026.146681
534.387040	3027.036444
534.747999	3019.507481
535.108902	3016.008920
535.469748	3005.044411
535.830537	3004.341170
536.191270	2998.851353
536.551947	2996.602998
536.912567	2995.143584
537.273131	2991.158552
537.633638	2983.495998
537.994089	2983.198570
538.354483	2974.333701
538.714821	2976.423260
539.075103	2978.674135
539.435328	2969.957980
539.795497	2968.458237
540.155609	2966.174594
540.515665	2964.526137
540.875665	2955.482307
541.235609	2956.379632
541.595496	2952.903756
541.955328	2959.923563
542.315102	2946.105760
542.674821	2942.493774
543.034483	2942.778599
543.394090	2939.388423
543.753640	2935.058072
544.113134	2944.278342
544.472571	2930.016918
544.831953	2943.804474
545.191278	2933.840633
545.550548	2925.865528
545.909761	2928.418872
546.268918	2924.406114
546.628019	2931.582196
546.987064	2925.434509
547.346053	2916.070566
547.704986	2919.730443
548.063863	2915.931934
548.422684	2916.486461
548.781449	2910.429515
549.140158	2911.745256
549.498811	2911.163003
549.857408	2900.795870
550.215949	2908.110584
550.574434	2901.058010
550.932864	2902.953483
551.291237	2905.239647
551.649555	2903.140006
552.007817	2904.322157
552.366022	2897.932494
552.724173	2896.077350
553.082267	2899.759913
553.440305	2902.088926
553.798288	2894.287740
554.156215	2893.035013
554.514086	2897.998029
554.871902	2891.227760
555.229661	2889.753222
555.587365	2885.838766
555.945014	2887.351112
556.302606	2883.603014
556.660143	2884.502860
557.017625	2881.606718
557.375050	2880.621172
557.732421	2881.720143
558.089735	2881.831049
558.446994	2879.635626
558.804197	2884.195350
559.161345	2880.230483
559.518437	2872.096581
559.875474	2874.080275
560.232455	2870.264121
560.589381	2870.680017
560.946251	2869.586086
561.303065	2871.680686
561.659825	2873.866026
562.016528	2865.916126
562.373177	2865.414531
562.729770	2863.909747
563.086307	2862.503265
563.442789	2861.731968
563.799216	2863.007380
564.155587	2858.908922
564.511904	2860.159128
564.868164	2856.148891
565.224370	2857.308356
565.580520	2852.602439
565.936615	2852.272243
566.292654	2852.383149
566.648638	2850.984228
567.004567	2848.325020
567.360441	2846.147241
567.716260	2844.287056
568.072023	2843.286387
568.427732	2839.187928
568.783385	2836.029646
569.138982	2833.723318
569.494525	2834.958400
569.850013	2827.568069
570.205445	2829.811382
570.560823	2825.692760
570.916145	2825.768377
571.271412	2819.862665
571.626625	2817.702531
571.981782	2816.089362
572.336884	2811.133907
572.691931	2814.226655
573.046923	2807.330357
573.401860	2805.084523
573.756743	2799.629994
574.111570	2799.962710
574.466342	2798.778039
574.821059	2797.043882
575.175722	2792.153963
575.530330	2787.584157
575.884882	2783.369752
576.239380	2778.167282
576.593823	2778.326078
576.948211	2773.446241
577.302544	2768.904162
577.656823	2766.441558
578.011047	2767.916095
578.365216	2759.462080
578.719330	2754.279774
579.073389	2753.732809
579.427394	2752.812798
579.781344	2751.829773
580.135239	2745.031777
580.489080	2744.215111
580.842866	2739.058010
581.196597	2738.707650
581.550273	2733.966445
581.903895	2730.861094
582.257463	2732.310426
582.610975	2725.378839
582.964434	2723.871534
583.317837	2721.005638
583.671186	2717.416337
584.024481	2718.480020
584.377721	2711.624051
584.730906	2709.778989
585.084037	2711.523228
585.437113	2703.028884
585.790135	2702.890252
586.143103	2697.602082
586.496016	2697.055116
586.848874	2690.330217
587.201679	2689.949610
587.554428	2685.619259
587.907124	2687.585309
588.259765	2679.380831
588.612352	2684.729495
588.964884	2681.094823
589.317362	2676.479647
589.669786	2675.531910
590.022155	2674.357321
590.374470	2674.672393
590.726731	2669.177536
591.078937	2665.568069
591.431090	2668.285251
591.783188	2662.175373
592.135232	2660.131185
592.487222	2658.084477
592.839157	2657.540032
593.191038	2650.865544
593.542866	2650.500061
593.894639	2648.357570
594.246358	2649.106182
594.598022	2642.777013
594.949633	2644.337250
595.301190	2641.864564
595.652692	2639.268370
596.004141	2640.886580
596.355535	2633.360137
596.706876	2632.271248
597.058162	2629.881741
597.409395	2632.241001
597.760573	2631.444499
598.111698	2630.884931
598.462768	2626.040382
598.813785	2630.330404
599.164748	2623.350927
599.515657	2624.006277
599.866511	2621.367232
600.217312	2625.284209
600.568060	2617.999742
600.918753	2621.349588
601.269392	2619.179372
601.619978	2617.309104
601.970510	2617.790534
602.320988	2616.308435
602.671412	2619.582664
603.021783	2616.532766
603.372100	2614.977570
603.722363	2612.015892
604.072572	2613.631582
604.422728	2615.774072
604.772830	2606.417691
605.122878	2607.017588
605.472872	2607.713267
605.822813	2607.491457
606.172701	2609.371807
606.522534	2607.889708
606.872314	2611.456324
607.222041	2609.031529
607.571714	2610.032198
607.921333	2608.048504
608.270899	2607.801487
608.620411	2608.174533
608.969870	2607.763679
609.319276	2607.068000
609.668627	2608.514811
610.017926	2606.495829
610.367171	2609.185284
610.716362	2608.149327
611.065500	2605.989193
611.414585	2609.064297
611.763616	2608.310644
612.112594	2605.631271
612.461518	2606.737804
612.810389	2610.264091
613.159207	2608.978597
613.507971	2607.546909
613.856682	2608.030860
614.205340	2607.995572
614.553945	2611.824328
614.902496	2607.740994
615.250994	2606.301744
615.599439	2609.356683
615.947830	2609.412136
616.296169	2608.139245
616.644454	2611.486571
616.992686	2609.243257
617.340864	2611.274842
617.688990	2607.836776
618.037063	2608.948350
618.385082	2610.937085
618.733048	2611.884822
619.080961	2611.166458
619.428821	2611.620162
619.776628	2611.121087
620.124382	2611.627723
620.472083	2609.560850
620.819731	2609.326437
621.167326	2606.652104
621.514868	2607.798967
621.862357	2603.448451
622.209793	2605.815273
622.557176	2603.627412
622.904506	2599.657503
623.251783	2597.562904
623.599007	2597.633480
623.946179	2590.258272
624.293297	2591.412696
624.640363	2590.540577
624.987376	2592.141143
625.334336	2590.210381
625.681243	2588.992942
626.028097	2590.855649
626.374899	2588.496389
626.721647	2590.689291
627.068343	2588.756008
627.414987	2585.741398
627.761577	2584.954978
628.108115	2589.446646
628.454600	2586.459763
628.801032	2582.930955
629.147412	2581.799216
629.493739	2579.876016
629.840014	2580.702765
630.186236	2581.930286
630.532405	2581.645461
630.878521	2578.671180
631.224585	2579.785275
631.570597	2577.725964
631.916556	2579.477765
632.262462	2580.793506
632.608316	2576.460634
632.954117	2576.082547
633.299866	2574.411405
633.645562	2573.574573
633.991206	2572.939388
634.336797	2570.965776
634.682336	2570.012998
635.027823	2569.251784
635.373257	2569.448389
635.718639	2568.861095
636.063968	2567.714232
636.409245	2564.150136
636.754470	2563.870352
637.099642	2564.661813
637.444762	2561.843808
637.789829	2561.445557
638.134845	2562.196689
638.479808	2557.115206
638.824719	2557.440361
639.169577	2552.999104
639.514383	2555.033210
639.859137	2553.752757
640.203839	2555.975905
640.548489	2555.590257
640.893086	2552.119423
