Dividing Wavelength (nm)	Counts (n)	Blue Motor Position (mm): 0.000000	Red Motor Position (mm): 13.600000	
326.493990	1980.266054
326.888308	1980.266054
327.282561	1980.266054
327.676750	1954.528443
328.070874	1956.078598
328.464933	1963.073199
328.858929	1971.612913
329.252859	1984.455253
329.646726	1999.588797
330.040528	2012.307628
330.434265	2033.268745
330.827938	2053.468649
331.221547	2071.843655
331.615091	2094.508682
332.008571	2111.893101
332.401986	2134.772378
332.795338	2154.856335
333.188625	2175.615807
333.581847	2193.514423
333.975006	2210.727443
334.368100	2226.980123
334.761129	2247.013668
335.154095	2260.418097
335.546996	2277.560540
335.939833	2293.583848
336.332606	2304.122380
336.725315	2317.836839
337.117960	2324.012252
337.510540	2332.410815
337.903056	2341.852896
338.295508	2345.535459
338.687896	2354.317149
339.080220	2361.115145
339.472480	2369.841382
339.864676	2372.266177
340.256807	2374.065869
340.648875	2373.997813
341.040879	2375.074100
341.432818	2375.351363
341.824694	2375.903369
342.216506	2378.902856
342.608253	2379.676673
342.999937	2376.893956
343.391557	2376.790613
343.783113	2374.917824
344.174605	2376.508308
344.566033	2372.800539
344.957397	2370.307689
345.348697	2367.615713
345.739934	2366.892307
346.131106	2365.271576
346.522215	2361.190762
346.913260	2362.377954
347.304241	2361.641945
347.695159	2358.730679
348.086012	2359.484331
348.476802	2353.545852
348.867528	2354.803620
349.258191	2352.593074
349.648789	2349.308762
350.039324	2351.945286
350.429796	2350.740450
350.820203	2351.494103
351.210548	2351.239524
351.600828	2349.185254
351.991045	2350.347240
352.381198	2348.088803
352.771288	2351.131139
353.161314	2347.022599
353.551276	2351.020234
353.941175	2351.713393
354.331010	2351.925121
354.720782	2347.977898
355.110490	2349.371777
355.500135	2350.395131
355.889717	2351.441170
356.279235	2351.708352
356.668689	2349.717096
357.058080	2353.830677
357.447408	2351.350430
357.836672	2347.746005
358.225873	2348.988649
358.615010	2348.386231
359.004084	2355.698425
359.393095	2354.992663
359.782043	2356.426872
360.170927	2356.222705
360.559748	2357.518281
360.948505	2357.626666
361.337199	2358.140864
361.725830	2359.328056
362.114398	2360.815196
362.502903	2361.546163
362.891344	2362.478777
363.279722	2361.092459
363.668037	2363.965917
364.056289	2362.584641
364.444478	2362.360310
364.832603	2364.248222
365.220665	2366.108408
365.608665	2365.914323
365.996601	2364.669158
366.384474	2366.166381
366.772284	2368.583614
367.160031	2368.878522
367.547715	2367.403984
367.935336	2368.853316
368.322893	2371.772144
368.710388	2372.296424
369.097820	2373.350025
369.485189	2371.121835
369.872495	2375.958822
370.259738	2373.808770
370.646918	2377.279604
371.034035	2378.403782
371.421090	2382.706407
371.808081	2385.262272
372.195010	2390.368960
372.581875	2393.141595
372.968678	2400.201731
373.355418	2406.954357
373.742096	2417.283681
374.128710	2425.203333
374.515262	2442.325613
374.901751	2451.944134
375.288177	2466.986937
375.674540	2485.818167
376.060841	2504.926661
376.447079	2529.482121
376.833254	2554.327448
377.219367	2579.248392
377.605417	2611.781478
377.991404	2642.406488
378.377329	2678.775892
378.763191	2711.409802
379.148991	2758.032913
379.534727	2805.749955
379.920402	2851.735360
380.306013	2899.144892
380.691563	2961.957669
381.077049	3014.448683
381.462474	3070.700398
381.847835	3141.556336
382.233134	3210.887325
382.618371	3270.970317
383.003545	3356.498533
383.388657	3433.965944
383.773706	3528.321221
384.158693	3595.877724
384.543618	3687.553627
384.928480	3762.928959
385.313280	3868.379815
385.698017	3970.664827
386.082692	4087.959874
386.467305	4147.664780
386.851856	4272.942494
387.236344	4429.520732
387.620770	4483.700533
388.005133	4607.425572
388.389435	4750.899331
388.773674	4835.555428
389.157851	4960.971774
389.541965	5095.250468
389.926018	5115.016832
390.310008	5289.246671
390.693936	5414.375671
391.077802	5526.717785
391.461606	5654.246374
391.845348	5768.332727
392.229027	5887.276231
392.612645	6101.288335
392.996200	6223.342232
393.379694	6386.499176
393.763125	6607.291632
394.146494	6695.685744
394.529801	6829.732546
394.913047	7067.455717
395.296230	7050.870321
395.679351	7106.179340
396.062410	7355.040941
396.445408	7249.978254
396.828343	7390.412197
397.211217	7513.807040
397.594028	7394.863536
397.976778	7588.297650
398.359466	7732.066317
398.742092	7690.880090
399.124656	7825.100811
399.507158	7988.035944
399.889598	7996.686564
400.271977	8174.480499
400.654294	8185.003907
401.036549	8347.432405
401.418742	8340.336981
401.800874	8589.881658
402.182944	8631.582083
402.564952	8926.207278
402.946898	8719.996359
403.328783	8726.365857
403.710606	8847.779527
404.092367	9026.009521
404.474067	9281.956464
404.855705	9027.463894
405.237282	8921.357688
405.618797	9217.865754
406.000250	9350.344757
406.381642	9566.345596
406.762972	9437.324825
407.144240	9185.995580
407.525447	9294.158577
407.906593	9145.852872
408.287677	9249.645188
408.668700	9262.820244
409.049661	9128.435685
409.430560	9140.894897
409.811399	9003.372220
410.192176	9001.249894
410.572891	8928.947145
410.953545	9136.781315
411.334138	8648.595977
411.714669	8909.528620
412.095139	8330.746186
412.475547	8516.913477
412.855894	8288.705483
413.236180	8342.693720
413.616405	8018.658433
413.996568	8032.919857
414.376670	7881.259265
414.756711	7667.668097
415.136691	7674.539189
415.516609	7613.737833
415.896466	7504.493508
416.276262	7491.530181
416.655997	7543.562451
417.035670	7410.564209
417.415283	7543.421298
417.794834	7416.210302
418.174324	7150.317163
418.553753	6954.203675
418.933121	6981.123437
419.312428	6752.796976
419.691674	6566.939716
420.070859	6569.893832
420.449983	6303.156300
420.829045	6328.359549
421.208047	6099.781030
421.586988	6085.297795
421.965867	6011.391959
422.344686	5861.402509
422.723444	5855.665676
423.102141	5393.061673
423.480777	5533.044433
423.859352	5288.671979
424.237866	5382.825610
424.616319	5188.158933
424.994712	5181.330691
425.373044	5013.465309
425.751314	4996.421168
426.129524	4729.819746
426.507673	4765.460704
426.885762	4608.711066
427.263789	4511.641128
427.641756	4420.199639
428.019662	4315.658711
428.397508	4213.368658
428.775292	4142.784943
429.153016	4036.464487
429.530679	3946.275725
429.908282	3852.873226
430.285824	3741.478850
430.663305	3711.642781
431.040726	3601.342334
431.418086	3509.573170
431.795385	3481.705671
432.172624	3433.812189
432.549802	3339.141841
432.926920	3283.621093
433.303977	3220.843604
433.680974	3175.110256
434.057910	3132.308339
434.434786	3080.104671
434.811601	3031.850746
435.188355	3019.111750
435.565050	2966.454378
435.941683	2923.670105
436.318257	2908.770975
436.694770	2866.926878
437.071222	2849.819722
437.447614	2795.894499
437.823946	2766.300406
438.200218	2747.015472
438.576429	2718.817777
438.952580	2701.708101
439.328670	2683.620441
439.704700	2669.968997
440.080670	2647.911428
440.456580	2639.510345
440.832429	2629.395270
441.208218	2601.893255
441.583947	2597.615836
441.959616	2587.112592
442.335224	2577.952816
442.710773	2574.240006
443.086261	2567.736917
443.461689	2553.568754
443.837057	2549.435008
444.212365	2548.578012
444.587612	2542.137938
444.962800	2535.120652
445.337927	2533.177287
445.712995	2519.452746
446.088002	2528.436082
446.462949	2525.325690
446.837837	2521.945596
447.212664	2518.192457
447.587431	2531.725435
447.962139	2546.100285
448.336786	2557.072356
448.711374	2543.478885
449.085901	2523.936852
449.460369	2516.168434
449.834776	2514.373783
450.209124	2522.626152
450.583412	2522.033817
450.957640	2518.479803
451.331808	2513.042919
451.705917	2502.181753
452.079965	2499.633449
452.453954	2502.486742
452.827883	2497.027173
453.201752	2496.487769
453.575562	2496.742348
453.949311	2501.380209
454.323001	2499.797287
454.696632	2497.773264
455.070202	2502.456496
455.443713	2500.745024
455.817164	2500.258552
456.190556	2496.986844
456.563888	2498.882318
456.937160	2497.319560
457.310373	2492.913591
457.683526	2492.941318
458.056619	2492.737151
458.429653	2492.054075
458.802628	2494.546925
459.175542	2494.299909
459.548398	2500.180415
459.921194	2501.939777
460.293930	2501.866681
460.666607	2513.756242
461.039224	2517.761439
461.411782	2518.373939
461.784280	2514.419154
462.156719	2511.575943
462.529099	2512.649709
462.901419	2504.997237
463.273680	2499.870384
463.645882	2499.782163
464.018024	2500.014057
464.390106	2501.788543
464.762130	2513.456293
465.134094	2524.579599
465.505999	2540.423946
465.877845	2557.702501
466.249631	2564.611402
466.621358	2555.227294
466.993026	2549.722354
467.364634	2542.132897
467.736184	2533.648635
468.107674	2525.297964
468.479105	2526.706966
468.850477	2521.136491
469.221790	2518.129443
469.593043	2511.848165
469.964238	2510.527383
470.335373	2507.142248
470.706449	2510.134173
471.077467	2519.387211
471.448425	2534.919006
471.819324	2545.744884
472.190164	2541.394368
472.560945	2526.401976
472.931667	2518.073990
473.302330	2514.678773
473.672934	2510.020747
474.043479	2514.542662
474.413965	2508.538648
474.784393	2504.150323
475.154761	2504.878770
475.525070	2505.115704
475.895321	2506.534789
476.265513	2502.796773
476.635645	2511.316323
477.005719	2509.672907
477.375734	2513.665501
477.745691	2514.676252
478.115588	2522.893333
478.485427	2527.949611
478.855207	2538.775488
479.224928	2546.571633
479.594591	2551.857283
479.964194	2548.076417
480.333739	2546.173382
480.703226	2547.156407
481.072653	2552.386604
481.442022	2550.549103
481.811333	2549.883671
482.180584	2549.268650
482.549777	2544.693803
482.918912	2544.570295
483.287988	2541.477547
483.657005	2541.991745
484.025964	2543.312527
484.394864	2536.028060
484.763706	2539.093081
485.132489	2533.782226
485.501213	2534.424973
485.869879	2533.358769
486.238487	2536.973276
486.607036	2530.646628
486.975527	2532.022863
487.343959	2534.172915
487.712333	2531.175949
488.080648	2529.983716
488.448905	2533.275590
488.817104	2532.295085
489.185244	2534.248532
489.553326	2541.296065
489.921350	2550.259237
490.289315	2559.466904
490.657222	2566.453944
491.025070	2566.779098
491.392861	2562.844478
491.760593	2557.478169
492.128267	2552.500030
492.495883	2544.633309
492.863440	2541.956457
493.230939	2536.711136
493.598380	2533.905734
493.965763	2528.993129
494.333088	2528.788963
494.700354	2525.555063
495.067563	2526.656555
495.434713	2525.650844
495.801805	2527.266534
496.168839	2526.003725
496.535815	2527.674868
496.902733	2528.103366
497.269593	2527.831143
497.636395	2528.693181
498.003139	2527.626977
498.369825	2526.860721
498.736453	2529.088911
499.103023	2530.008922
499.469535	2528.461288
499.835989	2528.927594
500.202385	2529.552697
500.568723	2531.775846
500.935003	2531.833820
501.301226	2534.616537
501.667390	2533.971269
502.033497	2534.709798
502.399546	2535.385312
502.765537	2530.843233
503.131470	2535.828934
503.497345	2541.802701
503.863163	2536.983358
504.228923	2539.377906
504.594625	2544.328319
504.960269	2541.860675
505.325856	2547.927703
505.691385	2549.624052
506.056856	2548.038609
506.422270	2553.649413
506.787625	2554.884496
507.152924	2556.351471
507.518164	2558.912378
507.883347	2557.725186
508.248472	2559.799621
508.613540	2564.901268
508.978550	2570.522155
509.343503	2570.784295
509.708398	2574.686148
510.073236	2577.428536
510.438016	2580.428022
510.802738	2579.838207
511.167403	2583.838363
511.532010	2589.479414
511.896561	2591.253900
512.261053	2597.509972
512.625488	2595.548963
512.989866	2593.353541
513.354186	2599.561722
513.718449	2596.090887
514.082655	2608.799636
514.446803	2605.616147
514.810894	2609.767537
515.174927	2614.473455
515.538904	2613.888681
515.902822	2619.814557
516.266684	2619.181892
516.630488	2620.134670
516.994235	2623.519805
517.357925	2624.495268
517.721558	2625.362347
518.085133	2629.707822
518.448651	2631.941053
518.812112	2633.448358
519.175516	2632.765281
519.538863	2632.528347
519.902152	2635.038842
520.265385	2638.575211
520.628560	2637.083030
520.991678	2636.137813
521.354739	2639.568318
521.717743	2641.773823
522.080690	2642.119142
522.443580	2644.458238
522.806413	2643.944040
523.169189	2643.336581
523.531908	2644.175933
523.894569	2641.247023
524.257174	2641.806591
524.619722	2644.906900
524.982213	2646.610810
525.344647	2643.016468
525.707025	2643.303813
526.069345	2642.489667
526.431608	2642.487147
526.793815	2643.283649
527.155964	2642.363638
527.518057	2639.086888
527.880093	2638.386168
528.242072	2639.701909
528.603995	2634.993471
528.965860	2633.891979
529.327669	2629.601957
529.689421	2631.026083
530.051117	2630.552215
530.412755	2627.177162
530.774337	2626.700773
531.135862	2624.855711
531.497331	2619.343209
531.858743	2613.500512
532.220098	2615.690893
532.581396	2609.361725
532.942638	2609.371807
533.303824	2607.935078
533.664953	2604.345777
534.026025	2602.936774
534.387040	2602.021805
534.747999	2595.841350
535.108902	2593.159456
535.469748	2588.342634
535.830537	2585.862386
536.191270	2583.792992
536.551947	2579.714699
536.912567	2579.959195
537.273131	2574.686148
537.633638	2570.378482
537.994089	2567.079047
538.354483	2562.231977
538.714821	2565.004612
539.075103	2564.777760
539.435328	2558.123437
539.795497	2552.454659
540.155609	2554.564382
540.515665	2549.694628
540.875665	2544.219935
541.235609	2544.519883
541.595496	2542.304296
541.955328	2539.539223
542.315102	2533.875487
542.674821	2530.649148
543.034483	2528.362985
543.394090	2525.832326
543.753640	2522.853004
544.113134	2523.808303
544.472571	2518.310924
544.831953	2522.064063
545.191278	2513.899915
545.550548	2513.589884
545.909761	2513.720954
546.268918	2510.043432
546.628019	2512.309431
546.987064	2505.748369
547.346053	2503.048831
547.704986	2504.901455
548.063863	2500.724859
548.422684	2500.356855
548.781449	2496.276041
549.140158	2498.983141
549.498811	2496.646566
549.857408	2493.205978
550.215949	2491.315546
550.574434	2488.323621
550.932864	2489.215905
551.291237	2486.440750
551.649555	2489.440236
552.007817	2487.282622
552.366022	2488.535349
552.724173	2487.650627
553.082267	2487.897643
553.440305	2487.514516
553.798288	2487.693477
554.156215	2485.591315
554.514086	2486.483600
554.871902	2482.312045
555.229661	2479.514204
555.587365	2482.508650
555.945014	2484.257930
556.302606	2480.595532
556.660143	2480.862713
557.017625	2479.131077
557.375050	2480.298104
557.732421	2479.360449
558.089735	2480.474544
558.446994	2479.446149
558.804197	2482.654843
559.161345	2478.568988
559.518437	2479.317599
559.875474	2477.094451
560.232455	2479.665439
560.589381	2477.500263
560.946251	2480.620738
561.303065	2478.132928
561.659825	2477.971611
562.016528	2478.284163
562.373177	2478.662249
562.729770	2478.122846
563.086307	2478.037146
563.442789	2478.183340
563.799216	2479.491519
564.155587	2477.427167
564.511904	2476.076138
564.868164	2472.862402
565.224370	2476.693679
565.580520	2474.067238
565.936615	2476.741570
566.292654	2473.104377
566.648638	2475.239306
567.004567	2476.416415
567.360441	2478.652167
567.716260	2473.850468
568.072023	2476.126549
568.427732	2469.885601
568.783385	2471.529017
569.138982	2468.093470
569.494525	2471.287041
569.850013	2469.542802
570.205445	2474.208390
570.560823	2473.563122
570.916145	2473.053966
571.271412	2474.692341
571.626625	2473.898359
571.981782	2473.774851
572.336884	2468.869808
572.691931	2471.728142
573.046923	2472.799387
573.401860	2473.051445
573.756743	2472.370889
574.111570	2473.663945
574.466342	2472.537247
574.821059	2471.886939
575.175722	2470.878708
575.530330	2471.392906
575.884882	2469.482308
576.239380	2469.086578
576.593823	2467.929633
576.948211	2469.754531
577.302544	2468.965590
577.656823	2467.428038
578.011047	2469.167236
578.365216	2470.419963
578.719330	2466.598768
579.073389	2465.300671
579.427394	2468.277472
579.781344	2468.416104
580.135239	2468.239664
580.489080	2465.242698
580.842866	2464.592389
581.196597	2469.119345
581.550273	2466.997019
581.903895	2463.160701
582.257463	2467.009622
582.610975	2468.632874
582.964434	2464.612554
583.317837	2465.053655
583.671186	2466.611371
584.024481	2467.425518
584.377721	2463.495938
584.730906	2464.161370
585.084037	2465.139354
585.437113	2464.960393
585.790135	2463.649693
586.143103	2464.350414
586.496016	2460.887141
586.848874	2459.135340
587.201679	2461.136678
587.554428	2458.069136
587.907124	2462.381843
588.259765	2453.317848
588.612352	2461.723972
588.964884	2461.487038
589.317362	2461.252625
589.669786	2461.892851
590.022155	2461.819754
590.374470	2460.786318
590.726731	2459.609208
591.078937	2460.899744
591.431090	2462.487707
591.783188	2461.333283
592.135232	2458.379167
592.487222	2458.061574
592.839157	2458.653910
593.191038	2458.845474
593.542866	2458.003601
593.894639	2457.247428
594.246358	2455.661985
594.598022	2457.050823
594.949633	2458.119547
595.301190	2457.628035
595.652692	2456.372788
596.004141	2456.559310
596.355535	2455.788014
596.706876	2455.966975
597.058162	2454.613425
597.409395	2458.064095
597.760573	2457.118878
598.111698	2455.911522
598.462768	2455.989660
598.813785	2456.708024
599.164748	2455.427571
599.515657	2455.813220
599.866511	2454.729372
600.217312	2455.364557
600.568060	2452.110492
600.918753	2455.609053
601.269392	2455.266254
601.619978	2451.785338
601.970510	2454.424382
602.320988	2454.774742
602.671412	2451.124947
603.021783	2451.865996
603.372100	2452.362550
603.722363	2451.707200
604.072572	2451.382045
604.422728	2454.101748
604.772830	2452.435647
605.122878	2448.778289
605.472872	2452.135698
605.822813	2447.346602
606.172701	2450.472117
606.522534	2450.875409
606.872314	2452.092848
607.222041	2450.938424
607.571714	2451.661829
607.921333	2455.059567
608.270899	2454.071501
608.620411	2451.021603
608.969870	2453.622838
609.319276	2453.350616
609.668627	2453.101079
610.017926	2451.480348
610.367171	2452.959927
610.716362	2452.508743
611.065500	2454.051336
611.414585	2450.809874
611.763616	2452.385235
612.112594	2451.276181
612.461518	2452.962447
612.810389	2453.259875
613.159207	2452.803651
613.507971	2454.822633
613.856682	2452.294494
614.205340	2453.282560
614.553945	2454.368929
614.902496	2450.628393
615.250994	2451.745008
615.599439	2452.554114
615.947830	2453.466563
616.296169	2452.909515
616.644454	2454.023610
616.992686	2451.316510
617.340864	2455.321707
617.688990	2454.079063
618.037063	2452.170986
618.385082	2451.127467
618.733048	2456.428240
619.080961	2451.591253
619.428821	2451.087138
619.776628	2452.811212
620.124382	2453.640482
620.472083	2453.259875
620.819731	2449.698300
621.167326	2453.756429
621.514868	2451.142591
621.862357	2454.749536
622.209793	2453.605194
622.557176	2449.695779
622.904506	2447.853238
623.251783	2444.364759
623.599007	2447.404575
623.946179	2446.592949
624.293297	2446.408947
624.640363	2448.808536
624.987376	2447.729729
625.334336	2447.828032
625.681243	2446.696293
626.028097	2446.532455
626.374899	2445.544389
626.721647	2448.634617
627.068343	2449.557148
627.414987	2443.853082
627.761577	2448.067487
628.108115	2446.446756
628.454600	2443.782506
628.801032	2445.004986
629.147412	2443.109512
629.493739	2443.921138
629.840014	2447.238217
630.186236	2443.911055
630.532405	2444.551282
630.878521	2446.502208
631.224585	2444.407609
631.570597	2442.625561
631.916556	2447.326437
632.262462	2443.172526
632.608316	2444.649584
632.954117	2444.049687
633.299866	2445.004986
633.645562	2444.548761
633.991206	2442.635643
634.336797	2442.295366
634.682336	2441.294697
635.027823	2440.621703
635.373257	2444.422732
635.718639	2440.553647
636.063968	2441.995417
636.409245	2444.004317
636.754470	2441.103133
637.099642	2438.343101
637.444762	2440.024326
637.789829	2440.150355
638.134845	2438.643050
638.479808	2441.153544
638.824719	2438.822011
639.169577	2438.748914
639.514383	2439.134562
639.859137	2438.254881
640.203839	2436.084664
640.548489	2437.377720
640.893086	2433.453182
641.237632	2432.765064
641.582125	2435.872936
641.926566	2431.340938
642.270955	2437.753286
642.615292	2438.050714
642.959576	2437.922165
643.303809	2437.327308
643.647990	2437.889397
643.992118	2436.752617
644.336195	2438.194387
