Dividing Wavelength (nm)	Counts (n)	Blue Motor Position (mm): 0.000000	Red Motor Position (mm): 23.800000	
326.493990	1983.769656
326.888308	1983.769656
327.282561	1983.769656
327.676750	1959.425924
328.070874	1964.315843
328.464933	1970.123252
328.858929	1977.604325
329.252859	1990.975985
329.646726	2004.932420
330.040528	2019.803823
330.434265	2039.986083
330.827938	2058.766902
331.221547	2079.475962
331.615091	2099.506986
332.008571	2120.110182
332.401986	2138.797739
332.795338	2160.164670
333.188625	2183.064111
333.581847	2198.101873
333.975006	2219.027703
334.368100	2235.378685
334.761129	2252.899216
335.154095	2267.170722
335.546996	2284.245110
335.939833	2306.973152
336.332606	2321.063177
336.725315	2332.504076
337.117960	2340.227124
337.510540	2347.609893
337.903056	2358.052644
338.295508	2361.911647
338.687896	2371.298275
339.080220	2378.360932
339.472480	2382.958464
339.864676	2385.116078
340.256807	2390.308467
340.648875	2390.668909
341.040879	2391.359547
341.432818	2393.935577
341.824694	2396.035217
342.216506	2391.644372
342.608253	2395.785680
342.999937	2388.949876
343.391557	2393.318035
343.783113	2390.283261
344.174605	2390.991543
344.566033	2386.600698
344.957397	2387.800493
345.348697	2386.351161
345.739934	2383.389483
346.131106	2382.877806
346.522215	2381.017620
346.913260	2377.899666
347.304241	2378.239944
347.695159	2376.523431
348.086012	2375.089223
348.476802	2370.950436
348.867528	2369.846423
349.258191	2369.511186
349.648789	2367.792153
350.039324	2369.052441
350.429796	2366.864581
350.820203	2365.619416
351.210548	2366.403315
351.600828	2364.091946
351.991045	2364.497759
352.381198	2363.618078
352.771288	2366.080681
353.161314	2365.543798
353.551276	2366.582276
353.941175	2365.604292
354.331010	2368.288707
354.720782	2367.731659
355.110490	2367.255270
355.500135	2365.264014
355.889717	2365.909282
356.279235	2370.635364
356.668689	2367.923223
357.058080	2367.260311
357.447408	2365.170753
357.836672	2366.824251
358.225873	2367.449354
358.615010	2364.278469
359.004084	2372.387165
359.393095	2373.803729
359.782043	2376.256250
360.170927	2371.474716
360.559748	2377.687938
360.948505	2374.940509
361.337199	2373.695344
361.725830	2375.600900
362.114398	2377.761035
362.502903	2375.550489
362.891344	2378.050901
363.279722	2381.325130
363.668037	2381.015099
364.056289	2385.161448
364.444478	2382.416540
364.832603	2381.589791
365.220665	2381.892260
365.608665	2383.603732
365.996601	2383.482744
366.384474	2386.462066
366.772284	2389.217057
367.160031	2385.539535
367.547715	2387.613970
367.935336	2389.050699
368.322893	2386.814947
368.710388	2389.829557
369.097820	2391.495658
369.485189	2391.896430
369.872495	2395.916750
370.259738	2395.178221
370.646918	2399.490928
371.034035	2402.603841
371.421090	2404.161557
371.808081	2405.946126
372.195010	2411.451066
372.581875	2413.167579
372.968678	2422.100503
373.355418	2431.383788
373.742096	2438.942998
374.128710	2452.120574
374.515262	2460.332614
374.901751	2473.505149
375.288177	2491.668426
375.674540	2513.458814
376.060841	2531.322142
376.447079	2555.421378
376.833254	2581.040522
377.219367	2607.403236
377.605417	2641.620068
377.991404	2669.981600
378.377329	2707.752445
378.763191	2743.348032
379.148991	2788.446194
379.534727	2837.980572
379.920402	2884.538148
380.306013	2932.169491
380.691563	2994.042092
381.077049	3048.852037
381.462474	3107.904114
381.847835	3180.181657
382.233134	3251.740836
382.618371	3308.771409
383.003545	3396.832805
383.388657	3479.056545
383.773706	3565.376222
384.158693	3642.604179
384.543618	3732.782859
384.928480	3812.339829
385.313280	3918.267074
385.698017	4022.286242
386.082692	4144.630005
386.467305	4201.080846
386.851856	4331.918953
387.236344	4484.184484
387.620770	4545.379051
388.005133	4668.970499
388.389435	4812.797139
388.773674	4900.414913
389.157851	5033.166138
389.541965	5163.585829
389.926018	5185.532492
390.310008	5364.508577
390.693936	5486.093646
391.077802	5603.023210
391.461606	5734.128498
391.845348	5852.804821
392.229027	5971.302183
392.612645	6190.123548
392.996200	6307.451363
393.379694	6482.926367
393.763125	6701.944337
394.146494	6798.293390
394.529801	6936.196674
394.913047	7168.409864
395.296230	7168.586304
395.679351	7226.965386
396.062410	7479.159190
396.445408	7380.460959
396.828343	7532.597941
397.211217	7663.887231
397.594028	7546.186371
397.976778	7753.385356
398.359466	7910.850838
398.742092	7888.238742
399.124656	8037.978655
399.507158	8220.702838
399.889598	8239.566836
400.271977	8451.154145
400.654294	8479.303948
401.036549	8678.979011
401.418742	8701.328967
401.800874	8998.477259
402.182944	9084.403727
402.564952	9449.123646
402.946898	9269.058672
403.328783	9326.505140
403.710606	9525.295480
404.092367	9779.011712
404.474067	10132.726792
404.855705	9925.437067
405.237282	9875.522082
405.618797	10302.686774
406.000250	10547.361696
406.381642	10907.549618
406.762972	10857.327123
407.144240	10663.209932
407.525447	10916.346432
407.906593	10853.087512
408.287677	11109.271389
408.668700	11260.604307
409.049661	11234.044988
409.430560	11389.100798
409.811399	11367.053312
410.192176	11529.290245
410.572891	11601.988725
410.953545	12073.109758
411.334138	11557.729915
411.714669	12151.575317
412.095139	11472.526853
412.475547	11974.277937
412.855894	11819.806900
413.236180	12135.317596
413.616405	11827.174547
413.996568	12088.402098
414.376670	12069.769993
414.756711	11943.342896
415.136691	12217.082591
415.516609	12396.603121
415.896466	12458.248870
416.276262	12753.594951
416.655997	13198.980893
417.035670	13232.628074
417.415283	13867.384961
417.794834	13955.552221
418.174324	13709.185992
418.553753	13609.734108
418.933121	14097.349797
419.312428	13900.767482
419.691674	13815.571982
420.070859	14262.966824
420.449983	13916.624431
420.829045	14463.203975
421.208047	14207.982959
421.586988	14659.267051
421.965867	14912.980763
422.344686	14907.606892
422.723444	15457.006962
423.102141	14173.980376
423.480777	15346.764489
423.859352	14854.470610
424.237866	15940.211641
424.616319	15646.251878
424.994712	16300.155066
425.373044	16090.160762
425.751314	16763.013648
426.129524	15893.134825
426.507673	16966.404041
426.885762	16671.536870
427.263789	16857.346239
427.641756	17021.559305
428.019662	17085.965087
428.397508	17121.255684
428.775292	17412.047082
429.153016	17371.357409
429.530679	17449.737269
429.908282	17475.794993
430.285824	17184.617947
430.663305	17885.875214
431.040726	17492.554309
431.418086	17314.026887
431.795385	17951.188404
432.172624	18371.005614
432.549802	17925.705371
432.926920	18102.700282
433.303977	17985.443044
433.680974	18248.674454
434.057910	18509.307149
434.434786	18538.840749
434.811601	18449.957645
435.188355	19460.260328
435.565050	19107.026678
435.941683	19056.620181
436.318257	19919.459032
436.694770	19719.042920
437.071222	20281.539907
437.447614	19351.182362
437.823946	19370.694148
438.200218	19491.563373
438.576429	19257.898330
438.952580	19504.468727
439.328670	19446.555951
439.704700	19835.269242
440.080670	19380.015241
440.456580	19925.276523
440.832429	20055.504651
441.208218	19060.506910
441.583947	19445.872875
441.959616	19526.594351
442.335224	19701.219920
442.710773	19775.917217
443.086261	20243.267467
443.461689	19576.791640
443.837057	19639.077617
444.212365	20192.392142
444.587612	20122.047882
444.962800	19662.183745
445.337927	19995.953500
445.712995	18736.131346
446.088002	20372.300841
446.462949	20459.021290
446.837837	20536.917199
447.212664	20397.831764
447.587431	22860.231252
447.962139	25402.533027
448.336786	27431.042923
448.711374	25888.107048
449.085901	22465.733237
449.460369	22285.312861
449.834776	22063.179458
450.209124	24084.084774
450.583412	23539.846846
450.957640	23832.841228
451.331808	22527.114326
451.705917	21198.155267
452.079965	21062.472611
452.453954	21206.894107
452.827883	20942.384765
453.201752	20621.885847
453.575562	20579.663663
453.949311	21297.793673
454.323001	21157.057260
454.696632	20773.795977
455.070202	21802.566928
455.443713	21706.742155
455.817164	21930.760949
456.190556	22113.278445
456.563888	21484.954071
456.937160	21578.868246
457.310373	20150.227932
457.683526	20244.409288
458.056619	20004.470530
458.429653	19726.287058
458.802628	19890.091790
459.175542	19742.161651
459.548398	20372.441993
459.921194	21177.206752
460.293930	21364.518385
460.666607	22405.738465
461.039224	23258.873095
461.411782	23209.784859
461.784280	22144.281541
462.156719	21516.342815
462.529099	20864.042713
462.901419	19776.247413
463.273680	18869.681593
463.645882	18625.538513
464.018024	18325.012647
464.390106	18517.897275
464.762130	19704.098419
465.134094	21632.942183
465.505999	24222.043510
465.877845	26385.890743
466.249631	26604.518024
466.621358	25181.455746
466.993026	23579.377053
467.364634	22095.208429
467.736184	20718.144159
468.107674	19756.682695
468.479105	19030.590183
468.850477	18365.465386
469.221790	17380.922998
469.593043	16316.942109
469.964238	15635.126051
470.335373	15301.973837
470.706449	15668.629559
471.077467	16352.260432
471.448425	17836.121547
471.819324	18666.444955
472.190164	17613.350438
472.560945	15956.776872
472.931667	14554.501792
473.302330	13873.920817
473.672934	13324.077126
474.043479	13202.655894
474.413965	12690.111700
474.784393	12299.084520
475.154761	12321.550422
475.525070	12084.596027
475.895321	11717.763864
476.265513	11640.692184
476.635645	11646.497072
477.005719	11371.297963
477.375734	11250.675755
477.745691	11181.727893
478.115588	11264.750656
478.485427	11490.632157
478.855207	12039.807895
479.224928	12413.090214
479.594591	12515.430678
479.964194	11984.322436
480.333739	11724.080430
480.703226	11448.599016
481.072653	11328.062507
481.442022	11177.984837
481.811333	10977.165432
482.180584	10470.148863
482.549777	10126.659764
482.918912	9807.640425
483.287988	9519.324234
483.657005	9167.381119
484.025964	8842.526645
484.394864	8623.690156
484.763706	8357.701235
485.132489	8038.001341
485.501213	7822.118968
485.869879	7652.279975
486.238487	7422.955366
486.607036	7267.743280
486.975527	7045.511574
487.343959	6906.723568
487.712333	6756.963490
488.080648	6591.356545
488.448905	6482.606253
488.817104	6314.929915
489.185244	6257.526296
489.553326	6264.331854
489.921350	6376.268154
490.289315	6503.017885
490.657222	6419.654845
491.025070	6295.566843
491.392861	6075.349078
491.760593	5817.534388
492.128267	5556.788267
492.495883	5323.934851
492.863440	5116.135968
493.230939	4926.828039
493.598380	4765.354840
493.965763	4649.115914
494.333088	4517.045245
494.700354	4412.542126
495.067563	4320.445287
495.434713	4237.485538
495.801805	4172.058923
496.168839	4084.698247
496.535815	4011.104963
496.902733	3945.448975
497.269593	3871.712018
497.636395	3810.605672
498.003139	3771.844240
498.369825	3704.711194
498.736453	3665.604443
499.103023	3604.684619
499.469535	3556.748288
499.835989	3521.664377
500.202385	3471.290648
500.568723	3436.841923
500.935003	3407.121800
501.301226	3367.468084
501.667390	3351.480065
502.033497	3332.180007
502.399546	3291.084521
502.765537	3250.483068
503.131470	3231.750140
503.497345	3219.031309
503.863163	3172.922395
504.228923	3163.709687
504.594625	3152.457831
504.960269	3125.953965
505.325856	3116.635392
505.691385	3096.042279
506.056856	3081.962336
506.422270	3077.783219
506.787625	3058.450394
507.152924	3047.881615
507.518164	3037.869884
507.883347	3018.138808
508.248472	3013.198477
508.613540	3008.361490
508.978550	3005.311592
509.343503	2996.991167
509.708398	2992.988491
510.073236	2990.331803
510.438016	2986.263592
510.802738	2969.655511
511.167403	2976.599700
511.532010	2970.550315
511.896561	2970.562918
512.261053	2974.905872
512.625488	2962.963379
512.989866	2955.351237
513.354186	2947.860082
513.718449	2939.678289
514.082655	2952.268571
514.446803	2941.094853
514.810894	2943.675924
515.174927	2938.612085
515.538904	2930.944490
515.902822	2937.492949
516.266684	2926.742688
516.630488	2930.258893
516.994235	2923.816299
517.357925	2928.693615
517.721558	2927.002308
518.085133	2927.929880
518.448651	2924.267482
518.812112	2916.909918
519.175516	2915.672315
519.538863	2918.122315
519.902152	2915.158117
520.265385	2916.166348
520.628560	2912.849268
520.991678	2906.021026
521.354739	2909.325502
521.717743	2907.253588
522.080690	2904.362486
522.443580	2909.300296
522.806413	2907.001530
523.169189	2903.613875
523.531908	2903.656724
523.894569	2899.220509
524.257174	2901.927609
524.619722	2903.220665
524.982213	2900.594223
525.344647	2897.756054
525.707025	2894.464180
526.069345	2900.458112
526.431608	2897.262021
526.793815	2898.819737
527.155964	2892.924108
527.518057	2891.298336
527.880093	2887.197357
528.242072	2893.067781
528.603995	2887.099055
528.965860	2885.937069
529.327669	2886.327758
529.689421	2886.836915
530.051117	2885.057387
530.412755	2882.713251
530.774337	2884.049157
531.135862	2878.773589
531.497331	2876.293341
531.858743	2874.337374
532.220098	2879.323075
532.581396	2874.770913
532.942638	2868.973586
533.303824	2873.314019
533.664953	2872.595655
534.026025	2872.963659
534.387040	2873.739997
534.747999	2872.948536
535.108902	2870.697661
535.469748	2869.172712
535.830537	2868.555170
536.191270	2867.864532
536.551947	2868.209851
536.912567	2866.127855
537.273131	2867.095756
537.633638	2862.674664
537.994089	2860.731299
538.354483	2856.998325
538.714821	2863.365302
539.075103	2869.255891
539.435328	2865.333873
539.795497	2862.314222
540.155609	2860.522092
540.515665	2865.870756
540.875665	2861.621063
541.235609	2859.458408
541.595496	2860.418748
541.955328	2866.926877
542.315102	2856.476566
542.674821	2854.528160
543.034483	2855.932121
543.394090	2853.489682
543.753640	2854.631503
544.113134	2862.765405
544.472571	2852.264682
544.831953	2862.067205
545.191278	2855.291894
545.550548	2851.649661
545.909761	2855.886751
546.268918	2856.262317
546.628019	2858.193078
546.987064	2853.293077
547.346053	2847.896522
547.704986	2854.001359
548.063863	2848.657736
548.422684	2848.723271
548.781449	2845.859896
549.140158	2848.740915
549.498811	2848.894670
549.857408	2843.062055
550.215949	2847.604135
550.574434	2842.447034
550.932864	2842.076510
551.291237	2844.292097
551.649555	2842.557940
552.007817	2846.676562
552.366022	2841.824452
552.724173	2845.489371
553.082267	2845.244875
553.440305	2846.038857
553.798288	2838.668690
554.156215	2841.625326
554.514086	2844.748321
554.871902	2838.283041
555.229661	2835.918740
555.587365	2831.175014
555.945014	2837.259687
556.302606	2832.301712
556.660143	2836.516117
557.017625	2834.683657
557.375050	2833.839264
557.732421	2832.311795
558.089735	2832.752896
558.446994	2831.666527
558.804197	2835.505366
559.161345	2831.968996
559.518437	2822.148828
559.875474	2821.314517
560.232455	2826.370795
560.589381	2823.971206
560.946251	2821.296873
561.303065	2824.850887
561.659825	2823.081442
562.016528	2817.082469
562.373177	2812.167344
562.729770	2814.826552
563.086307	2805.578556
563.442789	2809.669452
563.799216	2807.796663
564.155587	2805.535706
564.511904	2802.107721
564.868164	2802.034625
565.224370	2803.708288
565.580520	2798.828451
565.936615	2795.738223
566.292654	2788.433592
566.648638	2790.019034
567.004567	2787.195988
567.360441	2786.255813
567.716260	2786.240690
568.072023	2780.718106
568.427732	2777.370779
568.783385	2771.719646
569.138982	2769.143616
569.494525	2771.487753
569.850013	2761.251690
570.205445	2761.796135
570.560823	2759.469642
570.916145	2754.773807
571.271412	2753.727768
571.626625	2747.970770
571.981782	2743.731160
572.336884	2743.889956
572.691931	2737.800242
573.046923	2736.345869
573.401860	2732.368399
573.756743	2729.431927
574.111570	2729.154663
574.466342	2722.245762
574.821059	2720.914897
575.175722	2715.588918
575.530330	2714.527756
575.884882	2708.632126
576.239380	2704.541230
576.593823	2702.681044
576.948211	2695.857842
577.302544	2696.356917
577.656823	2691.605629
578.011047	2692.094621
578.365216	2684.863086
578.719330	2683.557427
579.073389	2678.881757
579.427394	2678.228927
579.781344	2673.326405
580.135239	2672.524862
580.489080	2669.127124
580.842866	2665.298368
581.196597	2667.226609
581.550273	2662.984478
581.903895	2660.390804
582.257463	2661.285609
582.610975	2654.235556
582.964434	2655.211019
583.317837	2652.705565
583.671186	2649.975781
584.024481	2648.765904
584.377721	2645.295069
584.730906	2642.744245
585.084037	2645.237096
585.437113	2641.599903
585.790135	2640.407671
586.143103	2637.098153
586.496016	2636.652011
586.848874	2627.499796
587.201679	2632.309057
587.554428	2624.296143
587.907124	2628.870990
588.259765	2623.610546
588.612352	2628.187914
588.964884	2623.275309
589.317362	2621.941924
589.669786	2622.022582
590.022155	2620.520319
590.374470	2619.945627
590.726731	2619.491923
591.078937	2614.276850
591.431090	2614.120574
591.783188	2612.272991
592.135232	2608.565222
592.487222	2609.071858
592.839157	2607.385592
593.191038	2605.832917
593.542866	2606.173195
593.894639	2599.831423
594.246358	2603.425766
594.598022	2604.151692
594.949633	2600.358224
595.301190	2597.893100
595.652692	2597.394025
596.004141	2596.438727
596.355535	2594.394539
596.706876	2595.417893
597.058162	2591.768098
597.409395	2593.577872
597.760573	2593.903026
598.111698	2591.687439
598.462768	2589.655854
598.813785	2590.525453
599.164748	2589.527305
599.515657	2589.166862
599.866511	2586.520257
600.217312	2586.663929
600.568060	2584.632344
600.918753	2587.906574
601.269392	2585.975812
601.619978	2583.825760
601.970510	2586.033785
602.320988	2586.731985
602.671412	2584.597056
603.021783	2584.965061
603.372100	2582.721747
603.722363	2583.377097
604.072572	2583.687128
604.422728	2580.420460
604.772830	2581.108578
605.122878	2575.399471
605.472872	2579.092116
605.822813	2577.088258
606.172701	2580.198650
606.522534	2581.685790
606.872314	2587.959506
607.222041	2582.441963
607.571714	2582.893146
607.921333	2579.709658
608.270899	2582.575554
608.620411	2581.035481
608.969870	2578.638413
609.319276	2579.008937
609.668627	2578.905594
610.017926	2583.384659
610.367171	2580.193608
610.716362	2581.877354
611.065500	2581.330389
611.414585	2581.584967
611.763616	2582.746953
612.112594	2580.649833
612.461518	2585.189392
612.810389	2585.577561
613.159207	2580.720409
613.507971	2583.114957
613.856682	2581.458938
614.205340	2582.530183
614.553945	2585.494382
614.902496	2580.138156
615.250994	2580.659915
615.599439	2584.274422
615.947830	2583.694690
616.296169	2584.082859
616.644454	2583.417426
616.992686	2585.474217
617.340864	2584.123188
617.688990	2582.504978
618.037063	2585.824577
618.385082	2585.196954
618.733048	2583.437591
619.080961	2584.685277
619.428821	2586.961357
619.776628	2584.786100
620.124382	2584.660071
620.472083	2582.479772
620.819731	2584.624783
621.167326	2581.879874
621.514868	2582.603280
621.862357	2580.047415
622.209793	2580.017168
622.557176	2578.368711
622.904506	2573.604820
623.251783	2572.263873
623.599007	2572.513411
623.946179	2568.896383
624.293297	2567.510065
624.640363	2568.568708
624.987376	2567.620971
625.334336	2570.469223
625.681243	2566.448903
626.028097	2562.529405
626.374899	2564.066957
626.721647	2565.564180
627.068343	2565.170970
627.414987	2565.002091
627.761577	2561.163253
628.108115	2561.012018
628.454600	2559.066133
628.801032	2559.603016
629.147412	2558.115875
629.493739	2561.405228
629.840014	2558.806513
630.186236	2557.468087
630.532405	2556.091852
630.878521	2556.958930
631.224585	2554.198899
631.570597	2556.802655
631.916556	2552.124464
632.262462	2555.131512
632.608316	2553.425082
632.954117	2551.998435
633.299866	2553.094886
633.645562	2552.870555
633.991206	2549.855945
634.336797	2545.351674
634.682336	2549.472817
635.027823	2548.714123
635.373257	2547.632796
635.718639	2545.520552
636.063968	2543.844369
636.409245	2542.332022
636.754470	2544.696324
637.099642	2542.052238
637.444762	2539.471168
637.789829	2540.592824
638.134845	2538.760365
638.479808	2536.166691
638.824719	2537.124511
639.169577	2533.946063
639.514383	2535.357586
639.859137	2536.259953
640.203839	2534.883718
640.548489	2533.895652
640.893086	2529.635877
641.237632	2529.590506
