Dividing Wavelength (nm)	Counts (n)	Blue Motor Position (mm): 0.000000	Red Motor Position (mm): 10.400000	
326.493990	1978.368059
326.888308	1978.368059
327.282561	1978.368059
327.676750	1954.044492
328.070874	1954.246138
328.464933	1959.473815
328.858929	1968.966307
329.252859	1983.651189
329.646726	1996.919506
330.040528	2012.771414
330.434265	2033.298992
330.827938	2052.210881
331.221547	2070.336350
331.615091	2090.768146
332.008571	2108.467637
332.401986	2132.450927
332.795338	2152.121509
333.188625	2172.737308
333.581847	2193.980730
333.975006	2209.590663
334.368100	2229.193190
334.761129	2241.733060
335.154095	2260.226533
335.546996	2276.441404
335.939833	2289.051850
336.332606	2302.975517
336.725315	2313.650161
337.117960	2321.418579
337.510540	2328.060299
337.903056	2341.318533
338.295508	2340.390961
338.687896	2353.293794
339.080220	2357.341841
339.472480	2365.853829
339.864676	2365.011957
340.256807	2369.251567
340.648875	2369.990096
341.040879	2372.586290
341.432818	2373.297093
341.824694	2375.789943
342.216506	2375.737011
342.608253	2372.745087
342.999937	2375.885725
343.391557	2370.337936
343.783113	2371.789788
344.174605	2368.568491
344.566033	2370.857174
344.957397	2367.189735
345.348697	2365.425331
345.739934	2365.014477
346.131106	2363.081195
346.522215	2359.096163
346.913260	2357.039372
347.304241	2357.724969
347.695159	2355.088445
348.086012	2353.412262
348.476802	2350.783300
348.867528	2352.315811
349.258191	2346.891529
349.648789	2348.691221
350.039324	2348.897908
350.429796	2349.628876
350.820203	2343.138390
351.210548	2345.016220
351.600828	2343.556806
351.991045	2347.609893
352.381198	2344.370952
352.771288	2346.084944
353.161314	2345.674090
353.551276	2347.335151
353.941175	2344.996055
354.331010	2346.868844
354.720782	2346.238700
355.110490	2344.426405
355.500135	2346.273988
355.889717	2346.145438
356.279235	2347.312465
356.668689	2348.378669
357.058080	2345.482527
357.447408	2348.038392
357.836672	2345.636282
358.225873	2349.167610
358.615010	2344.837259
359.004084	2351.708352
359.393095	2350.531242
359.782043	2351.799092
360.170927	2354.070132
360.559748	2351.264730
360.948505	2352.837570
361.337199	2352.749350
361.725830	2353.966788
362.114398	2357.697242
362.502903	2354.682632
362.891344	2357.147757
363.279722	2357.694722
363.668037	2357.571213
364.056289	2357.954341
364.444478	2357.493076
364.832603	2358.476101
365.220665	2360.306039
365.608665	2358.435771
365.996601	2362.093128
366.384474	2362.551873
366.772284	2364.275948
367.160031	2364.220495
367.547715	2363.426514
367.935336	2365.145547
368.322893	2365.168232
368.710388	2366.723428
369.097820	2366.622605
369.485189	2368.097143
369.872495	2369.901876
370.259738	2369.060003
370.646918	2371.827597
371.034035	2373.160982
371.421090	2374.590149
371.808081	2378.923021
372.195010	2383.583567
372.581875	2386.719165
372.968678	2393.877603
373.355418	2400.020249
373.742096	2408.696075
374.128710	2419.380801
374.515262	2430.796494
374.901751	2443.485078
375.288177	2461.436627
375.674540	2477.051601
376.060841	2497.339724
376.447079	2522.923580
376.833254	2546.816129
377.219367	2572.410067
377.605417	2607.405757
377.991404	2633.428193
378.377329	2672.429080
378.763191	2703.901003
379.148991	2748.487488
379.534727	2797.963893
379.920402	2843.971983
380.306013	2890.968140
380.691563	2949.969805
381.077049	3004.179853
381.462474	3059.604819
381.847835	3129.530664
382.233134	3201.326777
382.618371	3259.529418
383.003545	3341.876667
383.388657	3420.473296
383.773706	3512.098788
384.158693	3577.996751
384.543618	3672.989733
384.928480	3747.593769
385.313280	3848.557998
385.698017	3949.348308
386.082692	4067.603695
386.467305	4122.821973
386.851856	4245.450561
387.236344	4392.541348
387.620770	4454.867654
388.005133	4567.849994
388.389435	4704.785376
388.773674	4779.651552
389.157851	4901.085387
389.541965	5020.505280
389.926018	5034.479358
390.310008	5192.519532
390.693936	5295.296056
391.077802	5390.301641
391.461606	5497.491695
391.845348	5583.392957
392.229027	5673.977450
392.612645	5856.321026
392.996200	5935.036123
393.379694	6056.515328
393.763125	6220.559515
394.146494	6267.517863
394.529801	6339.843297
394.913047	6504.182392
395.296230	6456.896369
395.679351	6448.432272
396.062410	6606.966478
396.445408	6461.511545
396.828343	6526.827255
397.211217	6564.618265
397.594028	6410.613535
397.976778	6490.856102
398.359466	6544.362909
398.742092	6450.771367
399.124656	6472.808771
399.507158	6525.317429
399.889598	6458.759075
400.271977	6513.165728
400.654294	6442.251817
401.036549	6475.049564
401.418742	6395.845475
401.800874	6490.455330
402.182944	6435.219407
402.564952	6542.311159
402.946898	6334.154355
403.328783	6257.959835
403.710606	6254.289875
404.092367	6280.690398
404.474067	6343.062074
404.855705	6124.853209
405.237282	5981.742413
405.618797	6062.882305
406.000250	6052.568104
406.381642	6085.577579
406.762972	5940.949396
407.144240	5734.594805
407.525447	5705.124219
407.906593	5557.942692
408.287677	5534.518970
408.668700	5465.021623
409.049661	5330.387527
409.430560	5260.920427
409.811399	5134.926869
410.192176	5066.697373
410.572891	4969.650120
410.953545	4974.318228
411.334138	4731.122885
411.714669	4754.939816
412.095139	4488.809743
412.475547	4485.636336
412.855894	4355.962736
413.236180	4317.738187
413.616405	4155.440759
413.996568	4102.851443
414.376670	4006.346114
414.756711	3896.093559
415.136691	3847.527082
415.516609	3783.978297
415.896466	3708.819734
416.276262	3659.136643
416.655997	3627.112713
417.035670	3552.649829
417.415283	3541.786143
417.794834	3471.691419
418.174324	3380.527193
418.553753	3306.959114
418.933121	3271.746655
419.312428	3197.818134
419.691674	3130.279275
420.070859	3100.725511
420.449983	3029.738503
420.829045	3007.812004
421.208047	2948.586008
421.586988	2922.200609
421.965867	2888.006462
422.344686	2849.940710
422.723444	2829.705518
423.102141	2759.618356
423.480777	2758.196751
423.859352	2715.001624
424.237866	2715.987170
424.616319	2681.372087
424.994712	2673.651560
425.373044	2645.259781
425.751314	2636.072278
426.129524	2602.533482
426.507673	2601.646239
426.885762	2579.850810
427.263789	2568.268759
427.641756	2555.907850
428.019662	2546.158258
428.397508	2533.653676
428.775292	2527.344672
429.153016	2519.571213
429.530679	2513.511746
429.908282	2507.172495
430.285824	2498.141268
430.663305	2497.039776
431.040726	2489.437716
431.418086	2481.437405
431.795385	2484.013434
432.172624	2481.061839
432.549802	2477.207877
432.926920	2470.757720
433.303977	2468.922740
433.680974	2468.900055
434.057910	2467.281845
434.434786	2465.812348
434.811601	2465.036011
435.188355	2464.778912
435.565050	2462.381843
435.941683	2457.945628
436.318257	2456.561831
436.694770	2454.343723
437.071222	2456.942438
437.447614	2446.502208
437.823946	2448.813578
438.200218	2449.373146
438.576429	2452.299535
438.952580	2447.250820
439.328670	2448.775769
439.704700	2445.531786
440.080670	2447.107147
440.456580	2445.935079
440.832429	2447.243258
441.208218	2442.224789
441.583947	2442.338215
441.959616	2442.212187
442.335224	2445.637651
442.710773	2443.568257
443.086261	2442.854934
443.461689	2442.144131
443.837057	2443.051539
444.212365	2443.333843
444.587612	2443.951385
444.962800	2442.512135
445.337927	2440.639347
445.712995	2438.292689
446.088002	2443.684203
446.462949	2445.375511
446.837837	2440.659511
447.212664	2443.482557
447.587431	2449.978084
447.962139	2455.936728
448.336786	2465.030969
448.711374	2460.256997
449.085901	2451.066973
449.460369	2450.996397
449.834776	2450.401541
450.209124	2457.098714
450.583412	2453.121243
450.957640	2454.815071
451.331808	2449.302569
451.705917	2448.377518
452.079965	2446.625717
452.453954	2447.586057
452.827883	2450.789710
453.201752	2448.352312
453.575562	2449.257199
453.949311	2451.203084
454.323001	2449.383228
454.696632	2450.507405
455.070202	2452.105451
455.443713	2454.663837
455.817164	2453.065791
456.190556	2451.621500
456.563888	2455.790534
456.937160	2451.195523
457.310373	2452.198712
457.683526	2450.630913
458.056619	2452.899433
458.429653	2450.356171
458.802628	2455.049485
459.175542	2456.370267
459.548398	2457.590226
459.921194	2460.199023
460.293930	2464.133644
460.666607	2463.700105
461.039224	2468.312761
461.411782	2469.467185
461.784280	2468.262349
462.156719	2467.634725
462.529099	2468.343008
462.901419	2463.995012
463.273680	2459.452933
463.645882	2458.235494
464.018024	2461.834878
464.390106	2458.792542
464.762130	2466.417287
465.134094	2478.316930
465.505999	2488.905874
465.877845	2499.673779
466.249631	2501.486073
466.621358	2497.521206
466.993026	2494.199086
467.364634	2492.091883
467.736184	2483.237097
468.107674	2481.223156
468.479105	2479.849441
468.850477	2474.762917
469.221790	2470.152782
469.593043	2469.565487
469.964238	2466.777729
470.335373	2468.862246
470.706449	2468.945425
471.077467	2476.721405
471.448425	2485.924032
471.819324	2493.284116
472.190164	2486.844042
472.560945	2480.650985
472.931667	2473.684110
473.302330	2471.458441
473.672934	2472.007926
474.043479	2469.036166
474.413965	2469.192442
474.784393	2463.410238
475.154761	2468.900055
475.525070	2461.945783
475.895321	2467.349900
476.265513	2463.032152
476.635645	2473.207721
477.005719	2470.624130
477.375734	2471.314768
477.745691	2473.971456
478.115588	2472.988431
478.485427	2479.199132
478.855207	2489.326810
479.224928	2493.195896
479.594591	2496.059271
479.964194	2495.275372
480.333739	2496.092039
480.703226	2494.539363
481.072653	2494.070536
481.442022	2498.048007
481.811333	2495.661020
482.180584	2491.222284
482.549777	2494.778818
482.918912	2492.328818
483.287988	2491.983498
483.657005	2488.008549
484.025964	2489.727582
484.394864	2487.895123
484.763706	2485.813126
485.132489	2486.138281
485.501213	2483.363125
485.869879	2482.821201
486.238487	2486.070225
486.607036	2485.051912
486.975527	2485.853455
487.343959	2481.182826
487.712333	2483.819350
488.080648	2484.179792
488.448905	2482.730461
488.817104	2482.503609
489.185244	2484.446973
489.553326	2488.812613
489.921350	2495.308139
490.289315	2501.833913
490.657222	2504.271311
491.025070	2502.978255
491.392861	2502.348111
491.760593	2499.630929
492.128267	2497.145640
492.495883	2489.609115
492.863440	2488.038796
493.230939	2485.485451
493.598380	2482.193578
493.965763	2476.822228
494.333088	2480.169554
494.700354	2473.396764
495.067563	2478.047229
495.434713	2475.672845
495.801805	2480.209884
496.168839	2477.298617
496.535815	2482.077631
496.902733	2479.269708
497.269593	2480.903042
497.636395	2480.451859
498.003139	2479.380614
498.369825	2481.013948
498.736453	2481.712148
499.103023	2480.845069
499.469535	2481.402117
499.835989	2481.439925
500.202385	2481.749956
500.568723	2484.633496
500.935003	2484.262971
501.301226	2485.848414
501.667390	2487.370843
502.033497	2492.326297
502.399546	2486.415544
502.765537	2486.271871
503.131470	2493.566421
503.497345	2494.912409
503.863163	2491.577686
504.228923	2497.783346
504.594625	2496.165136
504.960269	2496.034066
505.325856	2501.299551
505.691385	2501.962463
506.056856	2503.074037
506.422270	2506.960767
506.787625	2508.523524
507.152924	2507.734584
507.518164	2511.835562
507.883347	2511.523011
508.248472	2515.397137
508.613540	2517.748836
508.978550	2521.081038
509.343503	2520.627335
509.708398	2525.124044
510.073236	2527.647141
510.438016	2530.490352
510.802738	2530.966741
511.167403	2534.641742
511.532010	2537.860519
511.896561	2538.495704
512.261053	2548.451983
512.625488	2544.923176
512.989866	2542.939482
513.354186	2547.378218
513.718449	2544.330840
514.082655	2553.876265
514.446803	2551.539690
514.810894	2557.087480
515.174927	2558.292316
515.538904	2555.239897
515.902822	2559.902964
516.266684	2561.284240
516.630488	2560.195351
516.994235	2560.553273
517.357925	2562.415979
517.721558	2563.179714
518.085133	2565.032338
518.448651	2565.571742
518.812112	2562.388253
519.175516	2563.973696
519.538863	2564.077040
519.902152	2564.926474
520.265385	2562.103428
520.628560	2562.231977
520.991678	2560.742316
521.354739	2562.726010
521.717743	2560.182748
522.080690	2562.032852
522.443580	2559.698798
522.806413	2559.149312
523.169189	2555.623025
523.531908	2553.929197
523.894569	2551.900132
524.257174	2550.559186
524.619722	2549.452652
524.982213	2548.494833
525.344647	2546.793444
525.707025	2542.647095
526.069345	2539.791281
526.431608	2537.575694
526.793815	2537.414377
527.155964	2535.912113
527.518057	2527.314425
527.880093	2529.945908
528.242072	2525.310567
528.603995	2525.577748
528.965860	2518.721778
529.327669	2517.736233
529.689421	2511.883453
530.051117	2515.021572
530.412755	2510.149296
530.774337	2510.933196
531.135862	2505.466064
531.497331	2502.572442
531.858743	2494.972903
532.220098	2499.457009
532.581396	2489.931749
532.942638	2489.571306
533.303824	2490.118272
533.664953	2490.456029
534.026025	2483.153918
534.387040	2484.177272
534.747999	2483.423619
535.108902	2480.976139
535.469748	2477.084368
535.830537	2475.934985
536.191270	2477.495222
536.551947	2475.325006
536.912567	2469.416773
537.273131	2470.162864
537.633638	2466.689509
537.994089	2468.955508
538.354483	2468.073306
538.714821	2464.526854
539.075103	2465.449385
539.435328	2464.680609
539.795497	2462.180197
540.155609	2462.664148
540.515665	2457.277675
540.875665	2457.988478
541.235609	2458.543004
541.595496	2457.043261
541.955328	2458.046451
542.315102	2457.323045
542.674821	2454.865483
543.034483	2452.571758
543.394090	2455.556121
543.753640	2453.380863
544.113134	2455.730041
544.472571	2450.847683
544.831953	2452.934721
545.191278	2454.953703
545.550548	2451.634103
545.909761	2452.821295
546.268918	2451.989504
546.628019	2453.025462
546.987064	2447.966664
547.346053	2450.333485
547.704986	2450.456994
548.063863	2448.616973
548.422684	2446.545058
548.781449	2450.169648
549.140158	2447.170161
549.498811	2449.680656
549.857408	2448.843824
550.215949	2447.399534
550.574434	2443.779985
550.932864	2443.371652
551.291237	2444.014399
551.649555	2447.644030
552.007817	2446.973556
552.366022	2448.528752
552.724173	2446.459359
553.082267	2445.312496
553.440305	2448.609411
553.798288	2445.667898
554.156215	2447.742332
554.514086	2450.126798
554.871902	2446.134204
555.229661	2445.541869
555.587365	2445.809050
555.945014	2444.480706
556.302606	2446.661005
556.660143	2446.093875
557.017625	2444.546241
557.375050	2446.376180
557.732421	2443.492640
558.089735	2445.955243
558.446994	2445.204111
558.804197	2444.624379
559.161345	2445.637651
559.518437	2447.155038
559.875474	2442.718823
560.232455	2448.737960
560.589381	2443.492640
560.946251	2446.509770
561.303065	2445.100768
561.659825	2445.010027
562.016528	2444.253854
562.373177	2444.515994
562.729770	2440.949378
563.086307	2446.897939
563.442789	2443.666559
563.799216	2446.078752
564.155587	2444.359718
564.511904	2443.595983
564.868164	2445.614965
565.224370	2443.298555
565.580520	2445.176385
565.936615	2444.579008
566.292654	2443.974070
566.648638	2442.905345
567.004567	2443.482557
567.360441	2442.973401
567.716260	2445.438525
568.072023	2443.658998
568.427732	2439.895776
568.783385	2441.153544
569.138982	2438.479212
569.494525	2441.818977
569.850013	2435.000816
570.205445	2443.709409
570.560823	2442.910386
570.916145	2443.041456
571.271412	2443.288473
571.626625	2441.161106
571.981782	2439.558019
572.336884	2441.466096
572.691931	2443.366611
573.046923	2440.616661
573.401860	2445.118412
573.756743	2443.626230
574.111570	2441.476178
574.466342	2440.314192
574.821059	2438.454006
575.175722	2439.840324
575.530330	2439.225303
575.884882	2438.249840
576.239380	2440.294027
576.593823	2439.253029
576.948211	2438.206990
577.302544	2440.309151
577.656823	2439.235385
578.011047	2438.635488
578.365216	2439.028698
578.719330	2439.832762
579.073389	2436.074582
579.427394	2441.476178
579.781344	2437.952412
580.135239	2441.806374
580.489080	2437.476023
580.842866	2435.199942
581.196597	2440.122628
581.550273	2435.363779
581.903895	2435.484767
582.257463	2438.179263
582.610975	2437.665066
582.964434	2439.391661
583.317837	2437.528955
583.671186	2438.040632
584.024481	2437.977617
584.377721	2437.435693
584.730906	2436.800508
585.084037	2438.244798
585.437113	2435.923347
585.790135	2436.102308
586.143103	2435.895621
586.496016	2439.860488
586.848874	2433.380085
587.201679	2433.942174
587.554428	2432.785229
587.907124	2432.760023
588.259765	2433.644746
588.612352	2432.155085
588.964884	2434.156423
589.317362	2435.890580
589.669786	2436.946701
590.022155	2436.452668
590.374470	2435.504931
590.726731	2435.552822
591.078937	2432.507965
591.431090	2435.257915
591.783188	2435.832606
592.135232	2433.801021
592.487222	2433.682554
592.839157	2434.816814
593.191038	2434.262287
593.542866	2433.443099
593.894639	2431.656010
594.246358	2436.732452
594.598022	2432.049220
594.949633	2434.325301
595.301190	2434.128696
595.652692	2436.314037
596.004141	2434.771443
596.355535	2433.919488
596.706876	2433.682554
597.058162	2431.668613
597.409395	2432.132399
597.760573	2432.414704
598.111698	2431.855136
598.462768	2434.723552
598.813785	2431.840013
599.164748	2431.555187
599.515657	2430.907399
599.866511	2432.359251
600.217312	2431.557708
600.568060	2430.468819
600.918753	2434.658017
601.269392	2430.100814
601.619978	2432.381937
601.970510	2429.664755
602.320988	2433.876639
602.671412	2434.138779
603.021783	2434.441248
603.372100	2430.496545
603.722363	2428.432192
604.072572	2427.423962
604.422728	2430.839343
604.772830	2427.126534
605.122878	2426.622418
605.472872	2429.213571
605.822813	2423.333065
606.172701	2427.360947
606.522534	2433.435538
606.872314	2430.690629
607.222041	2430.541915
607.571714	2430.123500
607.921333	2429.863880
608.270899	2430.264652
608.620411	2427.118972
608.969870	2432.679365
609.319276	2431.109045
609.668627	2431.648449
610.017926	2436.061979
610.367171	2431.860177
610.716362	2430.841864
611.065500	2430.438572
611.414585	2430.310022
611.763616	2429.437903
612.112594	2428.994281
612.461518	2430.753644
612.810389	2431.333377
613.159207	2429.319436
613.507971	2429.697522
613.856682	2429.732810
614.205340	2431.431679
614.553945	2429.571493
614.902496	2433.526278
615.250994	2429.851277
615.599439	2430.894796
615.947830	2433.138110
616.296169	2429.901689
616.644454	2433.367482
616.992686	2432.898655
617.340864	2430.554518
617.688990	2431.857657
618.037063	2428.354055
618.385082	2430.935125
618.733048	2431.638366
619.080961	2433.932091
619.428821	2434.088367
619.776628	2429.742892
620.124382	2431.161977
620.472083	2430.884714
620.819731	2433.054931
621.167326	2430.367996
621.514868	2433.765733
621.862357	2431.504776
622.209793	2430.768767
622.557176	2430.736000
622.904506	2427.449167
623.251783	2424.192582
623.599007	2429.150557
623.946179	2425.566297
624.293297	2427.847419
624.640363	2428.331369
624.987376	2426.264496
625.334336	2427.973447
625.681243	2426.108221
626.028097	2427.111410
626.374899	2427.277768
626.721647	2426.440937
627.068343	2426.002356
627.414987	2428.525454
627.761577	2428.200299
628.108115	2428.044024
628.454600	2428.585948
628.801032	2424.948755
629.147412	2427.791966
629.493739	2426.929929
629.840014	2427.418921
630.186236	2424.679053
630.532405	2425.362130
630.878521	2428.467481
631.224585	2427.187027
631.570597	2423.501944
631.916556	2427.567635
632.262462	2427.302974
632.608316	2424.575710
632.954117	2428.263314
633.299866	2424.421955
633.645562	2425.036975
633.991206	2424.442119
634.336797	2424.880700
634.682336	2422.798703
635.027823	2424.283323
635.373257	2426.428334
635.718639	2424.285843
636.063968	2423.751481
636.409245	2424.769794
636.754470	2423.665782
637.099642	2423.426327
637.444762	2423.459094
637.789829	2422.271903
638.134845	2423.363312
638.479808	2424.064033
638.824719	2422.534043
639.169577	2423.292736
639.514383	2422.942376
639.859137	2421.079670
640.203839	2423.070925
640.548489	2421.482962
640.893086	2418.969947
641.237632	2419.620256
641.582125	2418.901891
641.926566	2418.080183
642.270955	2421.926583
642.615292	2419.423651
642.959576	2422.894485
643.303809	2421.462797
643.647990	2420.608322
643.992118	2423.449012
644.336195	2423.650658
