Dividing Wavelength (nm)	Counts (n)	Blue Motor Position (mm): 0.000000	Red Motor Position (mm): 12.600000	
326.493990	1980.392083
326.888308	1980.392083
327.282561	1980.392083
327.676750	1956.975923
328.070874	1957.104472
328.464933	1961.220575
328.858929	1973.810856
329.252859	1985.939872
329.646726	1999.079640
330.040528	2014.490447
330.434265	2032.265556
330.827938	2052.919163
331.221547	2073.398851
331.615091	2092.146902
332.008571	2113.536518
332.401986	2136.070475
332.795338	2155.478918
333.188625	2176.021619
333.581847	2192.546522
333.975006	2213.500078
334.368100	2230.992882
334.761129	2246.118864
335.154095	2263.820875
335.546996	2278.699841
335.939833	2290.647376
336.332606	2307.668832
336.725315	2314.565130
337.117960	2324.236584
337.510540	2329.091215
337.903056	2340.678307
338.295508	2346.470593
338.687896	2355.537108
339.080220	2361.949456
339.472480	2363.988602
339.864676	2370.887421
340.256807	2372.409850
340.648875	2374.471682
341.040879	2376.294059
341.432818	2378.960829
341.824694	2380.780686
342.216506	2378.023175
342.608253	2378.499564
342.999937	2377.350181
343.391557	2377.065355
343.783113	2374.635519
344.174605	2373.191229
344.566033	2372.472864
344.957397	2371.731815
345.348697	2366.884745
345.739934	2366.826772
346.131106	2364.918695
346.522215	2363.902903
346.913260	2360.583303
347.304241	2359.038189
347.695159	2355.557272
348.086012	2357.818230
348.476802	2353.971830
348.867528	2354.919567
349.258191	2353.692046
349.648789	2350.868999
350.039324	2351.645337
350.429796	2351.973012
350.820203	2348.461848
351.210548	2349.689369
351.600828	2347.708196
351.991045	2348.537466
352.381198	2348.731550
352.771288	2349.742302
353.161314	2347.171313
353.551276	2347.811540
353.941175	2348.517301
354.331010	2348.986128
354.720782	2348.146776
355.110490	2350.904288
355.500135	2350.470748
355.889717	2351.907477
356.279235	2351.010152
356.668689	2355.683301
357.058080	2351.728516
357.447408	2349.018896
357.836672	2348.056036
358.225873	2348.413958
358.615010	2348.822291
359.004084	2353.417303
359.393095	2354.181038
359.782043	2358.266893
360.170927	2357.787983
360.559748	2358.145905
360.948505	2357.304032
361.337199	2359.081039
361.725830	2359.728827
362.114398	2360.018694
362.502903	2359.960720
362.891344	2362.425845
363.279722	2362.539271
363.668037	2366.073119
364.056289	2362.559435
364.444478	2362.123375
364.832603	2365.243850
365.220665	2367.285517
365.608665	2364.520444
365.996601	2364.074302
366.384474	2365.269055
366.772284	2366.955321
367.160031	2368.591176
367.547715	2366.310054
367.935336	2367.426669
368.322893	2367.640918
368.710388	2369.841382
369.097820	2372.883718
369.485189	2370.032946
369.872495	2377.698020
370.259738	2373.133255
370.646918	2380.914276
371.034035	2376.019316
371.421090	2380.316900
371.808081	2383.018958
372.195010	2389.731254
372.581875	2392.221584
372.968678	2398.210475
373.355418	2405.373955
373.742096	2414.382497
374.128710	2425.336924
374.515262	2438.068358
374.901751	2448.609411
375.288177	2463.470732
375.674540	2484.910760
376.060841	2506.680983
376.447079	2529.532533
376.833254	2551.028013
377.219367	2577.529359
377.605417	2612.010851
377.991404	2640.266518
378.377329	2679.632889
378.763191	2712.213866
379.148991	2760.044334
379.534727	2803.093267
379.920402	2851.145545
380.306013	2899.543143
380.691563	2962.499593
381.077049	3016.210566
381.462474	3072.439596
381.847835	3143.623209
382.233134	3213.619630
382.618371	3272.379320
383.003545	3353.761187
383.388657	3435.710184
383.773706	3524.716796
384.158693	3598.572220
384.543618	3687.843493
384.928480	3764.695884
385.313280	3868.135319
385.698017	3971.567193
386.082692	4089.872992
386.467305	4150.795336
386.851856	4274.923667
387.236344	4426.511163
387.620770	4490.841328
388.005133	4606.356847
388.389435	4757.183129
388.773674	4831.724151
389.157851	4966.877485
389.541965	5095.943627
389.926018	5115.082367
390.310008	5292.818328
390.693936	5411.303088
391.077802	5526.438001
391.461606	5653.328884
391.845348	5768.504126
392.229027	5879.994284
392.612645	6095.821204
392.996200	6214.618515
393.379694	6380.432147
393.763125	6593.630105
394.146494	6677.323341
394.529801	6800.483771
394.913047	7027.809562
395.296230	7009.553024
395.679351	7053.743778
396.062410	7292.583565
396.445408	7178.293046
396.828343	7303.384238
397.211217	7413.087307
397.594028	7278.133098
397.976778	7442.809950
398.359466	7577.307935
398.742092	7517.222422
399.124656	7621.433154
399.507158	7761.342818
399.889598	7734.050011
400.271977	7883.472331
400.654294	7864.467181
401.036549	7980.736353
401.418742	7950.345757
401.800874	8152.924525
402.182944	8153.779000
402.564952	8398.993326
402.946898	8175.705499
403.328783	8145.909759
403.710606	8227.442861
404.092367	8355.946914
404.474067	8555.551400
404.855705	8293.597923
405.237282	8160.849219
405.618797	8382.859113
406.000250	8463.764592
406.381642	8620.209239
406.762972	8466.930436
407.144240	8214.255202
407.525447	8266.201772
407.906593	8105.381403
408.287677	8159.573807
408.668700	8126.990309
409.049661	7982.422619
409.430560	7948.344419
409.811399	7792.466901
410.192176	7760.843743
410.572891	7663.420925
410.953545	7787.962630
411.334138	7356.838112
411.714669	7528.645677
412.095139	7040.334309
412.475547	7148.456977
412.855894	6935.248937
413.236180	6939.460821
413.616405	6661.879767
413.996568	6637.357074
414.376670	6486.576162
414.756711	6302.727802
415.136691	6267.757318
415.516609	6196.372059
415.896466	6086.883238
416.276262	6043.332710
416.655997	6050.866715
417.035670	5925.785605
417.415283	5981.076981
417.794834	5864.777562
418.174324	5653.636394
418.553753	5487.497608
418.933121	5471.403724
419.312428	5286.201814
419.691674	5140.008353
420.070859	5104.400162
420.449983	4907.003701
420.829045	4895.283018
421.208047	4724.304724
421.586988	4688.792316
421.965867	4610.483032
422.344686	4497.450280
422.723444	4467.997339
423.102141	4166.201102
423.480777	4226.899115
423.859352	4064.793252
424.237866	4099.665433
424.616319	3969.341524
424.994712	3939.981844
425.373044	3824.715861
425.751314	3796.782828
426.129524	3634.772746
426.507673	3636.070843
426.885762	3537.785987
427.263789	3476.296513
427.641756	3408.308992
428.019662	3346.204497
428.397508	3281.753345
428.775292	3236.846747
429.153016	3177.104032
429.530679	3122.684777
429.908282	3069.699729
430.285824	3010.859382
430.663305	2990.268789
431.040726	2928.398708
431.418086	2886.090824
431.795385	2866.513503
432.172624	2843.863599
432.549802	2802.092598
432.926920	2772.866508
433.303977	2744.048752
433.680974	2723.019579
434.057910	2701.619881
434.434786	2682.657581
434.811601	2664.148985
435.188355	2661.162101
435.565050	2640.871457
435.941683	2620.908487
436.318257	2617.576285
436.694770	2593.290526
437.071222	2591.649631
437.447614	2567.283213
437.823946	2563.260373
438.200218	2557.470607
438.576429	2544.998793
438.952580	2541.275901
439.328670	2534.366999
439.704700	2532.988244
440.080670	2526.248221
440.456580	2523.077335
440.832429	2519.107427
441.208218	2507.860613
441.583947	2507.379182
441.959616	2503.464726
442.335224	2503.265601
442.710773	2499.167143
443.086261	2500.734942
443.461689	2494.294868
443.837057	2493.798314
444.212365	2494.355361
444.587612	2490.350165
444.962800	2486.022334
445.337927	2487.426295
445.712995	2477.674183
446.088002	2487.169197
446.462949	2484.325986
446.837837	2483.698362
447.212664	2482.440594
447.587431	2491.766729
447.962139	2503.394150
448.336786	2512.813546
448.711374	2502.728718
449.085901	2483.244658
449.460369	2484.656181
449.834776	2484.633496
450.209124	2492.900988
450.583412	2490.836636
450.957640	2490.390494
451.331808	2483.622745
451.705917	2477.512866
452.079965	2478.760552
452.453954	2479.010089
452.827883	2474.190746
453.201752	2476.005561
453.575562	2475.294759
453.949311	2479.604945
454.323001	2477.689307
454.696632	2478.836169
455.070202	2482.798516
455.443713	2481.664257
455.817164	2482.833804
456.190556	2482.445635
456.563888	2483.489154
456.937160	2479.539410
457.310373	2478.962198
457.683526	2479.272229
458.056619	2479.942703
458.429653	2477.502784
458.802628	2479.637713
459.175542	2479.970429
459.548398	2483.945379
459.921194	2487.330513
460.293930	2491.297902
460.666607	2498.632780
461.039224	2502.519510
461.411782	2502.229644
461.784280	2499.262925
462.156719	2495.633294
462.529099	2494.670433
462.901419	2490.841677
463.273680	2488.452170
463.645882	2488.371512
464.018024	2486.009731
464.390106	2488.515185
464.762130	2497.528768
465.134094	2510.592918
465.505999	2522.966430
465.877845	2540.275232
466.249631	2544.300593
466.621358	2538.737680
466.993026	2532.673172
467.364634	2526.659075
467.736184	2516.796058
468.107674	2512.642147
468.479105	2511.764986
468.850477	2509.720798
469.221790	2504.556136
469.593043	2497.264107
469.964238	2496.903665
470.335373	2495.411483
470.706449	2499.209992
471.077467	2506.307937
471.448425	2522.364012
471.819324	2528.433561
472.190164	2523.089938
472.560945	2515.185409
472.931667	2503.605879
473.302330	2501.281907
473.672934	2496.268479
474.043479	2499.164622
474.413965	2498.393326
474.784393	2488.895792
475.154761	2496.142450
475.525070	2494.935094
475.895321	2495.293016
476.265513	2492.817809
476.635645	2502.910199
477.005719	2501.160919
477.375734	2500.830723
477.745691	2501.186125
478.115588	2506.292814
478.485427	2512.052332
478.855207	2521.791841
479.224928	2529.199817
479.594591	2531.206196
479.964194	2531.672503
480.333739	2531.284334
480.703226	2529.499765
481.072653	2531.561597
481.442022	2536.859850
481.811333	2535.642411
482.180584	2531.480939
482.549777	2530.175280
482.918912	2525.368540
483.287988	2529.865249
483.657005	2522.003570
484.025964	2523.021883
484.394864	2523.412572
484.763706	2520.259330
485.132489	2517.431243
485.501213	2518.033661
485.869879	2517.007786
486.238487	2519.740092
486.607036	2517.990811
486.975527	2519.969464
487.343959	2518.701614
487.712333	2520.342509
488.080648	2517.446367
488.448905	2519.641789
488.817104	2519.737571
489.185244	2518.691532
489.553326	2526.918695
489.921350	2533.893131
490.289315	2542.092568
490.657222	2543.685572
491.025070	2547.330327
491.392861	2542.568957
491.760593	2539.062834
492.128267	2533.378933
492.495883	2531.642256
492.863440	2524.695546
493.230939	2519.674557
493.598380	2516.221366
493.965763	2514.315810
494.333088	2512.012003
494.700354	2510.108967
495.067563	2514.353619
495.434713	2510.146776
495.801805	2515.215656
496.168839	2513.481499
496.535815	2514.797240
496.902733	2512.354801
497.269593	2511.013854
497.636395	2510.945799
498.003139	2513.993176
498.369825	2514.320851
498.736453	2516.453259
499.103023	2514.565347
499.469535	2513.516787
499.835989	2517.179185
500.202385	2512.649709
500.568723	2514.172137
500.935003	2517.335461
501.301226	2516.304545
501.667390	2521.186903
502.033497	2522.401821
502.399546	2522.926101
502.765537	2521.174300
503.131470	2523.442819
503.497345	2525.698735
503.863163	2523.334434
504.228923	2526.938859
504.594625	2531.054961
504.960269	2525.973478
505.325856	2529.971113
505.691385	2532.912627
506.056856	2536.799356
506.422270	2537.590817
506.787625	2541.495191
507.152924	2540.607948
507.518164	2545.255892
507.883347	2541.437218
508.248472	2544.572815
508.613540	2551.091027
508.978550	2556.646379
509.343503	2555.169321
509.708398	2560.112172
510.073236	2564.258521
510.438016	2566.055693
510.802738	2564.109807
511.167403	2569.282031
511.532010	2569.889490
511.896561	2577.337795
512.261053	2584.213929
512.625488	2579.520614
512.989866	2582.736871
513.354186	2583.533373
513.718449	2580.543969
514.082655	2592.279775
514.446803	2592.274734
514.810894	2596.489138
515.174927	2597.492328
515.538904	2596.005187
515.902822	2603.047679
516.266684	2601.832761
516.630488	2602.004161
516.994235	2602.344438
517.357925	2609.155037
517.721558	2611.481530
518.085133	2612.638475
518.448651	2612.640995
518.812112	2612.320882
519.175516	2613.180399
519.538863	2612.842641
519.902152	2617.881275
520.265385	2619.917901
520.628560	2619.628034
520.991678	2619.393621
521.354739	2619.605349
521.717743	2619.484362
522.080690	2620.517798
522.443580	2621.712552
522.806413	2623.814713
523.169189	2623.209774
523.531908	2619.791872
523.894569	2616.252982
524.257174	2617.296501
524.619722	2617.367077
524.982213	2618.448404
525.344647	2616.149638
525.707025	2617.477982
526.069345	2614.972529
526.431608	2614.264247
526.793815	2611.355501
527.155964	2608.436673
527.518057	2607.380551
527.880093	2607.688062
528.242072	2602.488111
528.603995	2604.239912
528.965860	2601.638677
529.327669	2598.472832
529.689421	2595.753130
530.051117	2592.438571
530.412755	2590.744743
530.774337	2589.429002
531.135862	2587.962027
531.497331	2582.578074
531.858743	2573.574573
532.220098	2577.052970
532.581396	2570.917885
532.942638	2563.278017
533.303824	2567.658779
533.664953	2565.644838
534.026025	2557.420196
534.387040	2560.028993
534.747999	2555.277706
535.108902	2554.329969
535.469748	2549.762683
535.830537	2546.783361
536.191270	2543.756148
536.551947	2540.605427
536.912567	2537.565612
537.273131	2536.212062
537.633638	2535.370189
537.994089	2528.380629
538.354483	2526.444826
538.714821	2525.696215
539.075103	2521.670853
539.435328	2518.968795
539.795497	2516.276819
540.155609	2515.470234
540.515665	2512.324554
540.875665	2509.730881
541.235609	2506.065962
541.595496	2507.222907
541.955328	2505.201404
542.315102	2501.433141
542.674821	2499.411639
543.034483	2499.666217
543.394090	2494.163797
543.753640	2493.546256
544.113134	2494.229333
544.472571	2489.692294
544.831953	2491.446616
545.191278	2491.754126
545.550548	2485.160297
545.909761	2490.299753
546.268918	2486.476038
546.628019	2488.510143
546.987064	2486.413023
547.346053	2483.287508
547.704986	2482.433032
548.063863	2479.083186
548.422684	2479.521766
548.781449	2480.230048
549.140158	2479.448669
549.498811	2478.079996
549.857408	2478.586632
550.215949	2471.541620
550.574434	2471.660087
550.932864	2472.564974
551.291237	2471.284521
551.649555	2473.137145
552.007817	2474.120170
552.366022	2474.611682
552.724173	2472.002885
553.082267	2473.795015
553.440305	2473.427011
553.798288	2472.184367
554.156215	2469.515076
554.514086	2472.436424
554.871902	2469.807463
555.229661	2469.956177
555.587365	2468.080868
555.945014	2470.997175
556.302606	2468.920220
556.660143	2469.474747
557.017625	2468.736218
557.375050	2472.096147
557.732421	2469.399129
558.089735	2468.166567
558.446994	2467.390229
558.804197	2468.559777
559.161345	2469.489870
559.518437	2466.560960
559.875474	2468.403501
560.232455	2467.417956
560.589381	2465.547688
560.946251	2471.070272
561.303065	2466.646659
561.659825	2467.987606
562.016528	2464.680609
562.373177	2469.053810
562.729770	2468.015332
563.086307	2465.308233
563.442789	2467.498614
563.799216	2467.377627
564.155587	2470.293934
564.511904	2464.496607
564.868164	2465.988789
565.224370	2469.631022
565.580520	2464.282358
565.936615	2467.307050
566.292654	2464.239508
566.648638	2466.437451
567.004567	2463.498459
567.360441	2465.434262
567.716260	2467.060034
568.072023	2464.100877
568.427732	2462.961576
568.783385	2462.734724
569.138982	2463.233798
569.494525	2461.726493
569.850013	2460.483849
570.205445	2462.399487
570.560823	2460.524178
570.916145	2463.352265
571.271412	2461.078705
571.626625	2463.795887
571.981782	2463.778243
572.336884	2461.260186
572.691931	2461.295474
573.046923	2460.967799
573.401860	2462.651545
573.756743	2461.355968
574.111570	2460.922429
574.466342	2461.930660
574.821059	2460.040227
575.175722	2462.729683
575.530330	2458.800103
575.884882	2459.717593
576.239380	2460.458643
576.593823	2461.066102
576.948211	2457.204578
577.302544	2460.274641
577.656823	2457.449074
578.011047	2460.826647
578.365216	2456.763477
578.719330	2458.570731
579.073389	2458.933694
579.427394	2459.432768
579.781344	2457.756584
580.135239	2457.018055
580.489080	2458.066615
580.842866	2453.673250
581.196597	2457.194496
581.550273	2455.712397
581.903895	2456.483693
582.257463	2458.485031
582.610975	2454.305915
582.964434	2456.950000
583.317837	2459.962089
583.671186	2455.581327
584.024481	2456.955041
584.377721	2454.086624
584.730906	2455.236008
585.084037	2456.702983
585.437113	2456.894547
585.790135	2455.977057
586.143103	2455.377160
586.496016	2456.254321
586.848874	2451.157714
587.201679	2452.619649
587.554428	2448.667384
587.907124	2452.501182
588.259765	2447.379369
588.612352	2451.815585
588.964884	2451.089658
589.317362	2453.030503
589.669786	2451.934052
590.022155	2455.843467
590.374470	2451.760132
590.726731	2452.135698
591.078937	2451.805502
591.431090	2453.070832
591.783188	2450.278033
592.135232	2450.830039
592.487222	2451.626541
592.839157	2451.140070
593.191038	2449.531942
593.542866	2452.642334
593.894639	2448.347271
594.246358	2449.037909
594.598022	2449.229473
594.949633	2449.657971
595.301190	2448.644699
595.652692	2448.828701
596.004141	2449.065635
596.355535	2447.926334
596.706876	2446.900460
597.058162	2449.194185
597.409395	2446.222424
597.760573	2450.197374
598.111698	2448.342230
598.462768	2447.223093
598.813785	2446.930707
599.164748	2448.962292
599.515657	2448.894236
599.866511	2446.373659
600.217312	2446.338371
600.568060	2446.124122
600.918753	2448.400203
601.269392	2446.545058
601.619978	2446.174533
601.970510	2449.632765
602.320988	2447.702003
602.671412	2448.382559
603.021783	2446.960953
603.372100	2446.424071
603.722363	2446.766869
604.072572	2446.807198
604.422728	2446.666046
604.772830	2444.407609
605.122878	2442.237392
605.472872	2443.769903
605.822813	2440.800663
606.172701	2447.165120
606.522534	2444.047167
606.872314	2447.081941
607.222041	2444.165634
607.571714	2449.428598
607.921333	2447.931376
608.270899	2446.882816
608.620411	2445.383072
608.969870	2446.613114
609.319276	2448.528752
609.668627	2444.195881
610.017926	2448.990018
610.367171	2445.952723
610.716362	2445.040274
611.065500	2444.841148
611.414585	2445.194029
611.763616	2446.529935
612.112594	2448.619493
612.461518	2447.696962
612.810389	2449.065635
613.159207	2445.229317
613.507971	2445.027671
613.856682	2447.654112
614.205340	2444.147990
614.553945	2445.932558
614.902496	2446.940789
615.250994	2445.919955
615.599439	2446.832404
615.947830	2446.512291
616.296169	2448.269133
616.644454	2447.089503
616.992686	2447.800306
617.340864	2445.259564
617.688990	2448.042281
618.037063	2446.295521
618.385082	2444.019440
618.733048	2449.531942
619.080961	2446.066149
619.428821	2445.834256
619.776628	2444.710078
620.124382	2448.334668
620.472083	2444.137907
620.819731	2447.734771
621.167326	2446.101437
621.514868	2444.571447
621.862357	2447.518001
622.209793	2446.282918
622.557176	2444.624379
622.904506	2444.241251
623.251783	2438.469130
623.599007	2443.996755
623.946179	2441.380396
624.293297	2442.948195
624.640363	2442.703699
624.987376	2441.763524
625.334336	2442.151693
625.681243	2441.377876
626.028097	2442.560026
626.374899	2442.033226
626.721647	2441.665221
627.068343	2442.010540
627.414987	2439.265632
627.761577	2444.253854
628.108115	2441.685386
628.454600	2439.943667
628.801032	2437.453337
629.147412	2439.782350
629.493739	2439.827721
629.840014	2439.691610
630.186236	2440.243616
630.532405	2440.654470
630.878521	2441.647577
631.224585	2437.102977
631.570597	2438.837134
631.916556	2440.949377
632.262462	2440.888884
632.608316	2442.358380
632.954117	2436.581218
633.299866	2439.550457
633.645562	2436.051897
633.991206	2438.786722
634.336797	2436.586259
634.682336	2439.479881
635.027823	2435.114242
635.373257	2437.627257
635.718639	2433.952256
636.063968	2435.172215
636.409245	2434.226999
636.754470	2437.612134
637.099642	2432.901175
637.444762	2433.838830
637.789829	2435.439396
638.134845	2435.850250
638.479808	2434.448810
638.824719	2435.925868
639.169577	2435.192380
639.514383	2433.634663
639.859137	2432.815476
640.203839	2432.545774
640.548489	2436.039294
640.893086	2434.158943
641.237632	2429.574014
641.582125	2431.013263
641.926566	2428.495207
642.270955	2431.580393
642.615292	2434.143820
642.959576	2432.293716
643.303809	2431.315733
643.647990	2434.794129
643.992118	2434.037956
644.336195	2432.593665
