Dividing Wavelength (nm)	Counts (n)	Blue Motor Position (mm): 0.000000	Red Motor Position (mm): 37.800000	
326.493990	1990.164359
326.888308	1990.164359
327.282561	1990.164359
327.676750	1968.991513
328.070874	1970.435804
328.464933	1974.554427
328.858929	1984.437609
329.252859	1995.994454
329.646726	2012.151352
330.040528	2024.910512
330.434265	2047.754501
330.827938	2065.340566
331.221547	2084.864955
331.615091	2106.962853
332.008571	2127.906327
332.401986	2145.484830
332.795338	2168.399395
333.188625	2189.050482
333.581847	2207.080168
333.975006	2225.051882
334.368100	2241.067628
334.761129	2257.806779
335.154095	2275.281939
335.546996	2301.304375
335.939833	2341.406754
336.332606	2357.404855
336.725315	2366.471371
337.117960	2376.939327
337.510540	2382.555172
337.903056	2392.188817
338.295508	2398.833058
338.687896	2408.438976
339.080220	2414.251427
339.472480	2418.669998
339.864676	2424.003539
340.256807	2427.118972
340.648875	2429.468150
341.040879	2429.508479
341.432818	2431.656010
341.824694	2431.096442
342.216506	2432.565939
342.608253	2431.408994
342.999937	2432.979313
343.391557	2431.144333
343.783113	2428.676688
344.174605	2429.251380
344.566033	2423.774166
344.957397	2426.330031
345.348697	2422.234094
345.739934	2421.808116
346.131106	2420.378949
346.522215	2418.410379
346.913260	2418.765780
347.304241	2416.827456
347.695159	2416.106571
348.086012	2413.704462
348.476802	2410.899059
348.867528	2409.220355
349.258191	2411.446025
349.648789	2405.885632
350.039324	2405.794891
350.429796	2407.725653
350.820203	2405.081568
351.210548	2406.142731
351.600828	2406.427556
351.991045	2406.147772
352.381198	2405.205076
352.771288	2407.108112
353.161314	2404.111146
353.551276	2403.770868
353.941175	2403.738100
354.331010	2409.137176
354.720782	2402.752555
355.110490	2405.711712
355.500135	2407.047618
355.889717	2406.493091
356.279235	2407.685324
356.668689	2405.512587
357.058080	2408.869995
357.447408	2406.178019
357.836672	2404.837072
358.225873	2407.067782
358.615010	2406.160375
359.004084	2408.330592
359.393095	2413.207908
359.782043	2412.534914
360.170927	2414.170768
360.559748	2416.429205
360.948505	2416.305697
361.337199	2416.346026
361.725830	2416.467014
362.114398	2417.961716
362.502903	2420.704104
362.891344	2420.343661
363.279722	2420.363826
363.668037	2423.789290
364.056289	2423.285174
364.444478	2424.190062
364.832603	2423.804413
365.220665	2422.599578
365.608665	2424.404311
365.996601	2427.466812
366.384474	2424.800041
366.772284	2430.171391
367.160031	2427.706266
367.547715	2431.479570
367.935336	2430.970413
368.322893	2431.320774
368.710388	2431.260280
369.097820	2435.492328
369.485189	2437.231527
369.872495	2439.542896
370.259738	2438.766558
370.646918	2443.772424
371.034035	2442.854934
371.421090	2448.513629
371.808081	2450.658640
372.195010	2455.364557
372.581875	2461.250104
372.968678	2466.349231
373.355418	2474.294090
373.742096	2485.495533
374.128710	2497.944663
374.515262	2510.300531
374.901751	2526.563293
375.288177	2542.369831
375.674540	2563.293140
376.060841	2583.863568
376.447079	2609.127311
376.833254	2636.236116
377.219367	2662.981957
377.605417	2697.042513
377.991404	2724.741133
378.377329	2765.506424
378.763191	2799.219140
379.148991	2850.533045
379.534727	2900.614388
379.920402	2947.928138
380.306013	2996.098883
380.691563	3061.485169
381.077049	3121.469859
381.462474	3177.411543
381.847835	3254.785693
382.233134	3327.002742
382.618371	3389.427350
383.003545	3475.540340
383.388657	3561.562589
383.773706	3651.370745
384.158693	3728.361767
384.543618	3822.795182
384.928480	3902.773087
385.313280	4010.905837
385.698017	4117.667394
386.082692	4238.372781
386.467305	4305.233605
386.851856	4436.449798
387.236344	4597.348306
387.620770	4660.990352
388.005133	4783.581132
388.389435	4936.141570
388.773674	5020.820352
389.157851	5157.370086
389.541965	5291.300941
389.926018	5315.138037
390.310008	5497.390872
390.693936	5628.801150
391.077802	5748.261373
391.461606	5885.514348
391.845348	6001.917111
392.229027	6121.236181
392.612645	6349.653382
392.996200	6465.920034
393.379694	6649.120606
393.763125	6881.913529
394.146494	6966.955274
394.529801	7112.115299
394.913047	7363.315995
395.296230	7361.672579
395.679351	7417.725168
396.062410	7689.153494
396.445408	7585.058709
396.828343	7741.768017
397.211217	7884.951910
397.594028	7765.118642
397.976778	7979.536559
398.359466	8140.697206
398.742092	8116.605532
399.124656	8269.009695
399.507158	8459.174621
399.889598	8481.968198
400.271977	8697.139768
400.654294	8732.942042
401.036549	8929.577289
401.418742	8959.340262
401.800874	9266.966593
402.182944	9345.417029
402.564952	9724.441222
402.946898	9546.493532
403.328783	9605.270866
403.710606	9806.566659
404.092367	10070.410569
404.474067	10437.232649
404.855705	10217.745852
405.237282	10172.914871
405.618797	10614.225040
406.000250	10868.097548
406.381642	11239.829712
406.762972	11185.561691
407.144240	10978.254321
407.525447	11242.171328
407.906593	11182.073212
408.287677	11447.699170
408.668700	11609.278233
409.049661	11576.392266
409.430560	11741.321176
409.811399	11707.132071
410.192176	11879.116075
410.572891	11957.682458
410.953545	12455.466153
411.334138	11917.000347
411.714669	12539.166951
412.095139	11825.694968
412.475547	12341.006755
412.855894	12183.203517
413.236180	12522.652131
413.616405	12197.734643
413.996568	12485.655103
414.376670	12446.172786
414.756711	12328.166937
415.136691	12623.732307
415.516609	12804.412302
415.896466	12866.352959
416.276262	13174.748067
416.655997	13604.292183
417.035670	13642.234427
417.415283	14305.146158
417.794834	14408.031067
418.174324	14153.044464
418.553753	14038.033060
418.933121	14544.303538
419.312428	14352.548128
419.691674	14266.349438
420.070859	14729.180293
420.449983	14371.023957
420.829045	14943.547799
421.208047	14673.052086
421.586988	15145.448531
421.965867	15405.491411
422.344686	15397.254166
422.723444	15980.306458
423.102141	14640.183763
423.480777	15852.336767
423.859352	15351.271281
424.237866	16481.949156
424.616319	16175.840213
424.994712	16856.514449
425.373044	16644.591903
425.751314	17334.259558
426.129524	16440.566324
426.507673	17561.212304
426.885762	17237.154332
427.263789	17457.137683
427.641756	17612.153163
428.019662	17679.303853
428.397508	17720.434628
428.775292	18039.426240
429.153016	17991.837748
429.530679	18073.590140
429.908282	18103.043081
430.285824	17820.194021
430.663305	18531.236168
431.040726	18130.351011
431.418086	17957.648642
431.795385	18609.885730
432.172624	19022.516775
432.549802	18579.565710
432.926920	18772.074772
433.303977	18650.167070
433.680974	18914.746988
434.057910	19200.804743
434.434786	19232.619464
434.811601	19142.433222
435.188355	20211.273784
435.565050	19842.452886
435.941683	19792.825247
436.318257	20697.934173
436.694770	20494.329531
437.071222	21107.719487
437.447614	20164.955662
437.823946	20197.108142
438.200218	20328.258800
438.576429	20107.491550
438.952580	20382.625124
439.328670	20353.951041
439.704700	20778.055752
440.080670	20341.471664
440.456580	20937.930905
440.832429	21126.003752
441.208218	20090.540670
441.583947	20554.286495
441.959616	20652.604118
442.335224	20895.103783
442.710773	21019.501816
443.086261	21572.909602
443.461689	20930.548135
443.837057	21057.161755
444.212365	21706.414480
444.587612	21706.832896
444.962800	21273.034045
445.337927	21708.403215
445.712995	20417.739281
446.088002	22300.375829
446.462949	22502.039627
446.837837	22674.636132
447.212664	22637.989464
447.587431	25509.788616
447.962139	28501.065636
448.336786	30919.849060
448.711374	29341.458749
449.085901	25600.791526
449.460369	25536.869695
449.834776	25461.474198
450.209124	27980.974835
450.583412	27501.369540
450.957640	28046.860195
451.331808	26661.404924
451.705917	25293.001357
452.079965	25320.533619
452.453954	25688.893251
452.827883	25558.108076
453.201752	25369.198397
453.575562	25543.836569
453.949311	26676.500660
454.323001	26726.277013
454.696632	26479.152089
455.070202	28068.698473
455.443713	28196.295118
455.817164	28812.568614
456.190556	29348.120634
456.563888	28780.895045
456.937160	29229.129239
457.310373	27535.808183
457.683526	27995.074942
458.056619	27980.702612
458.429653	27908.157888
458.802628	28504.077725
459.175542	28621.750859
459.548398	29922.441648
459.921194	31517.198064
460.293930	32189.541794
460.666607	34237.392077
461.039224	36011.666502
461.411782	36408.097799
461.784280	35221.551336
462.156719	34737.681226
462.529099	34202.862693
462.901419	32880.774727
463.273680	31804.087609
463.645882	31890.543397
464.018024	31861.279499
464.390106	32702.567418
464.762130	35426.902738
465.134094	39512.568887
465.505999	44837.411146
465.877845	49455.045054
466.249631	50666.484735
466.621358	48965.246547
466.993026	46879.078453
467.364634	44812.308720
467.736184	42802.451093
468.107674	41544.302601
468.479105	40743.653945
468.850477	40054.805477
469.221790	38602.209599
469.593043	36813.784655
469.964238	35931.277742
470.335373	35851.531730
470.706449	37595.319777
471.077467	40189.497546
471.448425	44784.940296
471.819324	47622.976321
472.190164	45786.317616
472.560945	42187.647093
472.931667	39063.437368
473.302330	37930.551467
473.672934	37107.474717
474.043479	37615.106306
474.413965	36807.057235
474.784393	36422.147495
475.154761	37333.512493
475.525070	37356.593416
475.895321	36884.035655
476.265513	37502.827207
476.635645	38472.800660
477.005719	38295.684760
477.375734	38764.108776
477.745691	39485.157613
478.115588	40813.680613
478.485427	42801.868840
478.855207	46181.193718
479.224928	48802.828131
479.594591	50454.433640
479.964194	49461.159974
480.333739	49640.453652
480.703226	49665.286375
481.072653	50302.309261
481.442022	50766.506268
481.811333	51034.867052
482.180584	49741.985011
482.549777	49230.822093
482.918912	48701.294252
483.287988	48400.440711
483.657005	47570.182837
484.025964	46909.406035
484.394864	46954.559650
484.763706	46493.064700
485.132489	45635.942518
485.501213	45469.266848
485.869879	45620.917359
486.238487	45213.634978
486.607036	45392.416978
486.975527	44855.453435
487.343959	45048.086006
487.712333	45134.546836
488.080648	45050.115070
488.448905	45506.589031
488.817104	45320.396534
489.185244	46288.265305
489.553326	47962.308989
489.921350	50671.011691
490.289315	53527.616806
490.657222	54119.949862
491.025070	54390.296861
491.392861	53494.670345
491.760593	52285.761324
492.128267	50633.586165
492.495883	49116.771028
492.863440	47721.644304
493.230939	46357.450100
493.598380	45245.421973
493.965763	44919.284525
494.333088	44093.717445
494.700354	43586.121144
495.067563	43295.778408
495.434713	43160.748582
495.801805	43229.381371
496.168839	42827.432531
496.535815	42494.814680
496.902733	42526.536140
497.269593	42107.827984
497.636395	42042.802141
498.003139	42453.966210
498.369825	41897.289235
498.736453	42204.008158
499.103023	41738.639082
499.469535	41598.706734
499.835989	41694.420601
500.202385	41354.921575
500.568723	41366.377597
500.935003	41552.928016
501.301226	41341.517147
501.667390	41975.782521
502.033497	42231.094278
502.399546	41624.230096
502.765537	40949.448968
503.131470	41351.589372
503.497345	41703.537528
503.863163	40347.835147
504.228923	40963.344909
504.594625	41367.438760
504.960269	40650.874029
505.325856	41355.503828
505.691385	40685.844513
506.056856	40839.146001
506.422270	41279.957097
506.787625	40839.864366
507.152924	41048.459750
507.518164	41143.356951
507.883347	40335.086069
508.248472	40599.789496
508.613540	41077.955541
508.978550	41406.477455
509.343503	41125.617130
509.708398	41317.357417
510.073236	41852.869108
510.438016	41847.621267
510.802738	41294.803295
511.167403	41936.522015
511.532010	42144.635969
511.896561	42443.336937
512.261053	43303.083040
512.625488	42852.988660
512.989866	42737.132863
513.354186	42569.007861
513.718449	42548.487845
514.082655	43218.366450
514.446803	42904.327771
514.810894	43426.145167
515.174927	43347.062067
515.538904	43243.748660
515.902822	43911.073921
516.266684	43341.413454
516.630488	43772.749700
516.994235	43626.447854
517.357925	44194.676633
517.721558	44371.159867
518.085133	44672.177246
518.448651	44807.499459
518.812112	44575.233337
519.175516	44665.737172
519.538863	45008.969173
519.902152	44964.034848
520.265385	45431.543894
520.628560	45475.533002
520.991678	45257.223314
521.354739	45491.289129
521.717743	45799.391849
522.080690	45706.785853
522.443580	46241.241422
522.806413	46271.216123
523.169189	46215.266877
523.531908	46414.342042
523.894569	46265.365863
524.257174	46416.018226
524.619722	46716.894452
524.982213	46710.910602
525.344647	46611.907382
525.707025	46650.066396
526.069345	47055.145793
526.431608	46954.400853
526.793815	47293.763769
527.155964	46793.550237
527.518057	46962.169272
527.880093	46728.625217
528.242072	47247.296933
528.603995	46933.222966
528.965860	46955.545195
529.327669	47043.193217
529.689421	46936.227494
530.051117	46879.925367
530.412755	47001.102103
530.774337	47073.137671
531.135862	46857.973663
531.497331	47050.674289
531.858743	46957.009651
532.220098	47285.516441
532.581396	46971.724779
532.942638	46622.045142
533.303824	46916.143537
533.664953	46851.573918
534.026025	46558.690441
534.387040	47030.217287
534.747999	46968.120354
535.108902	47118.026625
535.469748	46630.511760
535.830537	46723.470637
536.191270	46909.133812
536.551947	46551.663073
536.912567	46854.936368
537.273131	46937.933924
537.633638	46410.601506
537.994089	46733.691576
538.354483	46307.850187
538.714821	46858.102212
539.075103	47202.654995
539.435328	46934.269006
539.795497	46801.295970
540.155609	46764.729961
540.515665	47200.757001
540.875665	46636.006618
541.235609	46941.981971
541.595496	46902.164417
541.955328	47537.407775
542.315102	46877.041827
542.674821	46657.224834
543.034483	46659.684917
543.394090	46593.063549
543.753640	46530.512912
544.113134	47498.444697
544.472571	46502.153901
544.831953	47700.378197
545.191278	46874.821199
545.550548	46555.338074
545.909761	46992.446442
546.268918	47169.632917
546.628019	47410.799196
546.987064	46954.557129
547.346053	46193.317693
547.704986	47014.947632
548.063863	46533.535083
548.422684	46689.490739
548.781449	46521.713578
549.140158	46853.653394
549.498811	46667.357553
549.857408	46057.017496
550.215949	46826.859661
550.574434	46696.646657
550.932864	46419.330264
551.291237	47090.713653
551.649555	46639.326217
552.007817	46810.765777
552.366022	46398.701862
552.724173	46527.526028
553.082267	46851.916716
553.440305	47082.017663
553.798288	46341.893099
554.156215	46572.422544
554.514086	46724.138590
554.871902	46426.254288
555.229661	46363.285236
555.587365	46116.278780
555.945014	46147.453275
556.302606	45983.562843
556.660143	46133.285112
557.017625	46148.007802
557.375050	45861.103134
557.732421	46144.602503
558.089735	46034.294495
558.446994	45869.514299
558.804197	46247.565549
559.161345	46113.244005
559.518437	45286.633406
559.875474	45485.751421
560.232455	45540.445420
560.589381	45637.265821
560.946251	45254.196102
561.303065	45841.190576
561.659825	45540.344597
562.016528	45136.941384
562.373177	44755.885606
562.729770	45123.819260
563.086307	44564.949383
563.442789	44889.617335
563.799216	44823.550493
564.155587	44521.754256
564.511904	44448.430674
564.868164	44423.353454
565.224370	44522.971695
565.580520	44164.480122
565.936615	44230.796500
566.292654	43844.692007
566.648638	43954.901712
567.004567	43809.139269
567.360441	43717.357502
567.716260	43451.101400
568.072023	43581.004372
568.427732	43440.741828
568.783385	42892.390319
569.138982	43098.931433
569.494525	42931.403808
569.850013	42582.553442
570.205445	42413.521033
570.560823	42230.033115
570.916145	41984.627225
571.271412	41872.937941
571.626625	41496.154541
571.981782	41415.007088
572.336884	40992.137459
572.691931	41124.215690
573.046923	40617.350356
573.401860	40351.258091
573.756743	40175.465495
574.111570	40115.604313
574.466342	39826.146301
574.821059	39776.538826
575.175722	39194.159528
575.530330	39074.898431
575.884882	38663.827623
576.239380	38471.452151
576.593823	38289.655540
576.948211	38051.992863
577.302544	37465.920920
577.656823	37327.140475
578.011047	37337.880653
578.365216	36943.717875
578.719330	36623.881869
579.073389	36324.986817
579.427394	36220.259366
579.781344	36015.001225
580.135239	35556.699847
580.489080	35452.723528
580.842866	34868.229466
581.196597	35035.683994
581.550273	34813.714428
581.903895	34518.625447
582.257463	34651.031353
582.610975	33980.194928
582.964434	34016.105588
583.317837	33538.393246
583.671186	33241.849892
584.024481	33221.932293
584.377721	32698.756306
584.730906	32717.441342
585.084037	32552.547721
585.437113	32158.783194
585.790135	32000.248987
586.143103	31528.036545
586.496016	31430.028952
586.848874	31262.634918
587.201679	31063.461451
587.554428	30523.964728
587.907124	30454.653903
588.259765	30078.780432
588.612352	30075.075183
588.964884	29456.477716
589.317362	29474.797269
589.669786	29241.298584
590.022155	28883.535457
590.374470	28970.941503
590.726731	28477.218457
591.078937	27959.328120
591.431090	27841.009719
591.783188	27449.143186
592.135232	27054.846817
592.487222	27026.938990
592.839157	26904.844764
593.191038	26498.472312
593.542866	26160.515878
593.894639	25608.202022
594.246358	25598.777585
594.598022	25404.705764
594.949633	24986.274872
595.301190	24786.297340
595.652692	24515.262224
596.004141	24515.123592
596.355535	23775.387197
596.706876	23559.451893
597.058162	23298.436070
597.409395	23390.419484
597.760573	23243.832812
598.111698	22826.135408
598.462768	22667.243279
598.813785	22505.835616
599.164748	22022.283097
599.515657	22062.284653
599.866511	21616.450048
600.217312	21760.064960
600.568060	21053.254861
600.918753	21258.336561
601.269392	21069.815052
601.619978	20718.307997
601.970510	20655.956485
602.320988	20570.549257
602.671412	20537.701098
603.021783	20253.271637
603.372100	19918.407951
603.722363	19800.664242
604.072572	19663.154168
604.422728	19509.555251
604.772830	19251.808617
605.122878	19131.803949
605.472872	18934.606614
605.822813	18897.637312
606.172701	18659.460437
606.522534	18581.746009
606.872314	18542.044402
607.222041	18266.676414
607.571714	18272.433412
607.921333	17862.595166
608.270899	17815.808217
608.620411	17800.969581
608.969870	17556.246767
609.319276	17388.540182
609.668627	17248.849809
610.017926	17287.563350
610.367171	17183.889500
610.716362	17055.249336
611.065500	16883.527472
611.414585	16798.536138
611.763616	16754.042915
612.112594	16574.688743
612.461518	16494.529356
612.810389	16442.849967
613.159207	16247.391830
613.507971	16120.153107
613.856682	16136.398225
614.205340	15950.588856
614.553945	16042.090839
614.902496	15700.751792
615.250994	15715.688731
615.599439	15591.399083
615.947830	15513.039387
616.296169	15380.736825
616.644454	15279.558347
616.992686	15193.004256
617.340864	15209.511514
617.688990	14989.361805
618.037063	15032.544329
618.385082	14885.080497
618.733048	14842.177757
619.080961	14709.408888
619.428821	14582.059259
619.776628	14475.746366
620.124382	14290.879693
620.472083	14202.415004
620.819731	14106.635602
621.167326	13877.192526
621.514868	13739.679931
621.862357	13495.617509
622.209793	13364.315616
622.557176	13152.808965
622.904506	12947.147532
623.251783	12728.764748
623.599007	12539.476982
623.946179	12354.877490
624.293297	12228.513407
624.640363	11969.395579
624.987376	11852.254287
625.334336	11681.167608
625.681243	11490.256591
626.028097	11372.447346
626.374899	11228.053577
626.721647	11114.042841
627.068343	10984.676751
627.414987	10836.822230
627.761577	10691.165651
628.108115	10652.159723
628.454600	10449.558271
628.801032	10390.760773
629.147412	10285.161202
629.493739	10196.394045
629.840014	10030.666112
630.186236	10009.614254
630.532405	9855.155821
630.878521	9806.589344
631.224585	9701.261997
631.570597	9567.182428
631.916556	9515.029171
632.262462	9421.460314
632.608316	9342.503242
632.954117	9243.835258
633.299866	9163.333073
633.645562	9067.316736
633.991206	8903.655676
634.336797	8749.489630
634.682336	8667.860746
635.027823	8544.178557
