Dividing Wavelength (nm)	Counts (n)	Blue Motor Position (mm): 0.000000	Red Motor Position (mm): 41.400000	
326.493990	1992.722745
326.888308	1992.722745
327.282561	1992.722745
327.676750	1970.506380
328.070874	1971.028139
328.464933	1976.124746
328.858929	1985.390387
329.252859	2000.259270
329.646726	2013.318379
330.040528	2028.653569
330.434265	2045.352391
330.827938	2068.995403
331.221547	2084.018041
331.615091	2108.828080
332.008571	2129.761471
332.401986	2148.501961
332.795338	2169.866371
333.188625	2190.973682
333.581847	2210.117463
333.975006	2225.490462
334.368100	2244.772876
334.761129	2261.716194
335.154095	2276.517021
335.546996	2305.405353
335.939833	2356.880575
336.332606	2372.679552
336.725315	2381.461242
337.117960	2394.956410
337.510540	2399.551422
337.903056	2411.564492
338.295508	2416.325862
338.687896	2422.037489
339.080220	2431.288006
339.472480	2437.289500
339.864676	2439.527772
340.256807	2439.976435
340.648875	2444.435335
341.040879	2444.851231
341.432818	2446.855089
341.824694	2447.185285
342.216506	2449.796602
342.608253	2448.695110
342.999937	2447.122270
343.391557	2446.610593
343.783113	2446.512291
344.174605	2441.629933
344.566033	2442.295366
344.957397	2439.764706
345.348697	2437.201280
345.739934	2436.359407
346.131106	2434.451330
346.522215	2432.918819
346.913260	2433.319591
347.304241	2432.364292
347.695159	2431.734148
348.086012	2428.946390
348.476802	2426.471184
348.867528	2426.940011
349.258191	2422.902047
349.648789	2424.482448
350.039324	2424.676533
350.429796	2424.237953
350.820203	2419.768970
351.210548	2420.308373
351.600828	2418.788465
351.991045	2420.893147
352.381198	2421.745102
352.771288	2421.863569
353.161314	2422.662592
353.551276	2421.248548
353.941175	2421.873651
354.331010	2421.803075
354.720782	2420.600760
355.110490	2422.846594
355.500135	2423.317942
355.889717	2422.919691
356.279235	2422.390370
356.668689	2421.026737
357.058080	2421.976995
357.447408	2422.713003
357.836672	2422.889444
358.225873	2425.145360
358.615010	2422.581933
359.004084	2428.822882
359.393095	2425.747778
359.782043	2431.209868
360.170927	2429.422779
360.559748	2429.568973
360.948505	2432.341607
361.337199	2436.011567
361.725830	2435.774633
362.114398	2435.993923
362.502903	2437.513831
362.891344	2435.363779
363.279722	2436.009047
363.668037	2437.498708
364.056289	2438.378389
364.444478	2439.132042
364.832603	2440.863678
365.220665	2440.767896
365.608665	2440.039449
365.996601	2442.368462
366.384474	2444.110181
366.772284	2447.195367
367.160031	2446.895418
367.547715	2446.890377
367.935336	2446.126643
368.322893	2449.584874
368.710388	2449.768876
369.097820	2455.909002
369.485189	2452.196192
369.872495	2455.677108
370.259738	2456.115689
370.646918	2459.556276
371.034035	2459.291616
371.421090	2465.903089
371.808081	2464.635239
372.195010	2473.553040
372.581875	2478.493371
372.968678	2483.456387
373.355418	2490.927377
373.742096	2502.282576
374.128710	2514.189781
374.515262	2526.170083
374.901751	2540.025695
375.288177	2558.569579
375.674540	2580.138156
376.060841	2602.236054
376.447079	2623.633231
376.833254	2652.818991
377.219367	2678.264215
377.605417	2711.140100
377.991404	2739.468864
378.377329	2778.966305
378.763191	2813.699855
379.148991	2866.601723
379.534727	2913.731470
379.920402	2960.803244
380.306013	3012.681759
380.691563	3077.972263
381.077049	3133.619039
381.462474	3193.896116
381.847835	3271.015687
382.233134	3342.153930
382.618371	3403.018301
383.003545	3494.452229
383.388657	3575.468612
383.773706	3669.705422
384.158693	3744.359869
384.543618	3840.696319
384.928480	3924.500461
385.313280	4030.324362
385.698017	4138.956186
386.082692	4260.639558
386.467305	4324.833611
386.851856	4459.001400
387.236344	4619.428559
387.620770	4681.638918
388.005133	4806.851098
388.389435	4955.401299
388.773674	5042.583013
389.157851	5176.528992
389.541965	5311.173170
389.926018	5339.872458
390.310008	5525.777609
390.693936	5648.817051
391.077802	5768.763745
391.461606	5911.597278
391.845348	6023.538620
392.229027	6153.368496
392.612645	6376.109358
392.996200	6492.272666
393.379694	6674.775038
393.763125	6901.964718
394.146494	7003.594380
394.529801	7138.223435
394.913047	7393.865387
395.296230	7389.235088
395.679351	7453.109027
396.062410	7720.181796
396.445408	7610.216587
396.828343	7774.865713
397.211217	7910.797906
397.594028	7793.437323
397.976778	7999.204621
398.359466	8169.157040
398.742092	8147.691807
399.124656	8293.542470
399.507158	8486.454825
399.889598	8507.506683
400.271977	8718.158859
400.654294	8755.087831
401.036549	8954.394890
401.418742	8987.573244
401.800874	9299.119072
402.182944	9382.910611
402.564952	9752.250747
402.946898	9571.986647
403.328783	9630.867324
403.710606	9833.156225
404.092367	10098.948541
404.474067	10466.083173
404.855705	10249.444628
405.237282	10202.559376
405.618797	10638.805707
406.000250	10893.207535
406.381642	11266.220152
406.762972	11216.224509
407.144240	11010.260607
407.525447	11271.783066
407.906593	11208.887110
408.287677	11477.273099
408.668700	11638.572378
409.049661	11616.744182
409.430560	11774.421392
409.811399	11740.166752
410.192176	11908.001887
410.572891	11984.312353
410.953545	12489.488901
411.334138	11946.264245
411.714669	12573.784555
412.095139	11854.873167
412.475547	12380.201727
412.855894	12208.053884
413.236180	12547.583158
413.616405	12227.918551
413.996568	12507.725275
414.376670	12487.520330
414.756711	12351.681399
415.136691	12648.809527
415.516609	12832.824245
415.896466	12907.700503
416.276262	13195.157178
416.655997	13646.201815
417.035670	13682.946786
417.415283	14337.578421
417.794834	14445.287714
418.174324	14178.885419
418.553753	14072.123863
418.933121	14587.337347
419.312428	14385.819743
419.691674	14293.284323
420.070859	14764.904430
420.449983	14410.521397
420.829045	14966.540502
421.208047	14710.762438
421.586988	15184.247772
421.965867	15441.301247
422.344686	15438.584065
422.723444	16018.374731
423.102141	14669.684596
423.480777	15898.077677
423.859352	15387.799482
424.237866	16528.567227
424.616319	16218.957201
424.994712	16904.407931
425.373044	16678.564239
425.751314	17368.488992
426.129524	16479.463867
426.507673	17596.812932
426.885762	17287.318854
427.263789	17499.367428
427.641756	17670.721289
428.019662	17724.122232
428.397508	17767.418181
428.775292	18086.324094
429.153016	18034.954737
429.530679	18122.650649
429.908282	18144.902302
430.285824	17856.820524
430.663305	18573.970029
431.040726	18175.580244
431.418086	17995.051483
431.795385	18659.324326
432.172624	19081.117668
432.549802	18627.746538
432.926920	18814.049940
433.303977	18701.327219
433.680974	18965.942426
434.057910	19252.738709
434.434786	19277.538666
434.811601	19194.468012
435.188355	20255.751884
435.565050	19894.628829
435.941683	19845.273412
436.318257	20741.325905
436.694770	20545.925741
437.071222	21156.815285
437.447614	20203.588545
437.823946	20241.964329
438.200218	20384.384487
438.576429	20172.000675
438.952580	20444.303641
439.328670	20414.427243
439.704700	20829.667085
440.080670	20387.623428
440.456580	20992.393011
440.832429	21176.969818
441.208218	20142.154524
441.583947	20597.373237
441.959616	20704.679237
442.335224	20948.487081
442.710773	21086.413051
443.086261	21624.820884
443.461689	20990.971405
443.837057	21103.618509
444.212365	21775.221189
444.587612	21755.109505
444.962800	21329.409269
445.337927	21757.867017
445.712995	20467.404729
446.088002	22369.056509
446.462949	22560.075910
446.837837	22739.969485
447.212664	22696.693700
447.587431	25581.045326
447.962139	28560.180726
448.336786	30978.709572
448.711374	29408.148174
449.085901	25666.286196
449.460369	25603.072648
449.834776	25525.343097
450.209124	28060.554489
450.583412	27566.576865
450.957640	28110.126676
451.331808	26731.580307
451.705917	25331.140206
452.079965	25383.727003
452.453954	25751.990853
452.827883	25625.410000
453.201752	25423.504227
453.575562	25589.383394
453.949311	26740.334270
454.323001	26795.799565
454.696632	26555.059263
455.070202	28132.131312
455.443713	28272.623229
455.817164	28883.984120
456.190556	29423.493446
456.563888	28849.747124
456.937160	29298.959302
457.310373	27601.809489
457.683526	28072.343227
458.056619	28047.772644
458.429653	27981.451224
458.802628	28573.098683
459.175542	28685.337453
459.548398	29986.124024
459.921194	31583.164083
460.293930	32260.669954
460.666607	34309.727593
461.039224	36085.700887
461.411782	36502.548858
461.784280	35294.116225
462.156719	34824.908311
462.529099	34260.611631
462.901419	32949.150417
463.273680	31890.228325
463.645882	31956.048151
464.018024	31947.987346
464.390106	32777.783954
464.762130	35512.420872
465.134094	39589.428839
465.505999	44939.923009
465.877845	49548.339168
466.249631	50731.679457
466.621358	49073.235624
466.993026	46976.463463
467.364634	44898.643521
467.736184	42912.471755
468.107674	41640.608804
468.479105	40831.914466
468.850477	40132.189709
469.221790	38671.346504
469.593043	36911.676301
469.964238	36010.305391
470.335373	35924.865395
470.706449	37692.147740
471.077467	40285.607144
471.448425	44866.906937
471.819324	47712.081235
472.190164	45856.674480
472.560945	42270.372428
472.931667	39152.272581
473.302330	38023.971609
473.672934	37199.619447
474.043479	37725.913388
474.413965	36899.189363
474.784393	36504.961050
475.154761	37416.946110
475.525070	37441.010058
475.895321	36980.997208
476.265513	37593.371371
476.635645	38578.916948
477.005719	38384.257833
477.375734	38856.767704
477.745691	39567.033513
478.115588	40929.717892
478.485427	42912.675922
478.855207	46281.462268
479.224928	48904.687165
479.594591	50542.278266
479.964194	49575.216080
480.333739	49739.600545
480.703226	49760.899420
481.072653	50398.466750
481.442022	50877.799822
481.811333	51136.821868
482.180584	49844.040650
482.549777	49347.018168
482.918912	48793.854877
483.287988	48512.576137
483.657005	47686.394036
484.025964	47041.078453
484.394864	47062.246258
484.763706	46642.693708
485.132489	45759.959943
485.501213	45592.394510
485.869879	45741.060658
486.238487	45334.753740
486.607036	45522.267019
486.975527	44984.020502
487.343959	45177.137024
487.712333	45255.690804
488.080648	45184.063569
488.448905	45627.354912
488.817104	45450.538962
489.185244	46408.801814
489.553326	48094.626674
489.921350	50791.555762
490.289315	53654.069109
490.657222	54227.737293
491.025070	54503.064952
491.392861	53625.606755
491.760593	52417.506838
492.128267	50762.344796
492.495883	49243.861037
492.863440	47862.761324
493.230939	46516.763165
493.598380	45393.450415
493.965763	45061.364405
494.333088	44243.192698
494.700354	43751.402934
495.067563	43437.591107
495.434713	43297.855364
495.801805	43362.558573
496.168839	42985.127385
496.535815	42644.216836
496.902733	42678.809233
497.269593	42270.725309
497.636395	42182.389170
498.003139	42607.101340
498.369825	42044.044785
498.736453	42362.940616
499.103023	41882.561504
499.469535	41745.406831
499.835989	41839.230266
500.202385	41490.286638
500.568723	41531.959336
500.935003	41704.041643
501.301226	41499.506908
501.667390	42123.838689
502.033497	42388.700912
502.399546	41797.204687
502.765537	41100.912956
503.131470	41504.386745
503.497345	41861.933102
503.863163	40502.399445
504.228923	41116.406942
504.594625	41545.683877
504.960269	40828.569661
505.325856	41531.803060
505.691385	40876.097659
506.056856	41015.178053
506.422270	41440.457353
506.787625	41023.652232
507.152924	41220.905020
507.518164	41338.515140
507.883347	40509.361278
508.248472	40790.745883
508.613540	41257.811308
508.978550	41562.584346
509.343503	41299.163893
509.708398	41506.746005
510.073236	42043.802810
510.438016	42030.118598
510.802738	41474.212919
511.167403	42108.037192
511.532010	42336.996317
511.896561	42636.428253
512.261053	43510.821429
512.625488	43025.207079
512.989866	42905.630909
513.354186	42759.989454
513.718449	42721.691808
514.082655	43418.394393
514.446803	43095.589148
514.810894	43608.995379
515.174927	43534.666086
515.538904	43430.341928
515.902822	44110.053304
516.266684	43543.447776
516.630488	43984.747863
516.994235	43826.869007
517.357925	44408.469447
517.721558	44567.482563
518.085133	44878.630140
518.448651	45025.315114
518.812112	44782.533145
519.175516	44886.731274
519.538863	45223.598818
519.902152	45181.434608
520.265385	45648.043808
520.628560	45692.854624
520.991678	45482.439383
521.354739	45713.311626
521.717743	46033.394649
522.080690	45926.043277
522.443580	46469.396483
522.806413	46511.217895
523.169189	46451.432331
523.531908	46638.547359
523.894569	46501.329672
524.257174	46656.196439
524.619722	46971.535735
524.982213	46950.778784
525.344647	46863.952471
525.707025	46909.804286
526.069345	47286.113818
526.431608	47208.641365
526.793815	47542.537149
527.155964	47058.142758
527.518057	47225.796412
527.880093	47001.671753
528.242072	47522.813635
528.603995	47221.667707
528.965860	47241.209740
529.327669	47313.215061
529.689421	47207.486941
530.051117	47167.089655
530.412755	47316.181780
530.774337	47368.085500
531.135862	47180.703291
531.497331	47375.932056
531.858743	47263.421064
532.220098	47622.467164
532.581396	47325.636464
532.942638	46987.748086
533.303824	47303.808268
533.664953	47247.405318
534.026025	46960.573746
534.387040	47432.685366
534.747999	47383.713077
535.108902	47535.902991
535.469748	47043.593988
535.830537	47172.148453
536.191270	47358.769447
536.551947	47002.140580
536.912567	47325.598655
537.273131	47420.931916
537.633638	46911.445182
537.994089	47267.048174
538.354483	46846.941097
538.714821	47418.234898
539.075103	47776.066081
539.435328	47520.756844
539.795497	47404.323834
540.155609	47396.441990
540.515665	47860.074389
540.875665	47305.852456
541.235609	47632.383114
541.595496	47614.003067
541.955328	48271.011606
542.315102	47632.098288
542.674821	47427.210673
543.034483	47474.242117
543.394090	47433.910366
543.753640	47388.935712
544.113134	48406.835414
544.472571	47391.655415
544.831953	48670.034057
545.191278	47856.439717
545.550548	47576.711131
545.909761	48039.567192
546.268918	48245.289119
546.628019	48543.687618
546.987064	48113.536043
547.346053	47370.961478
547.704986	48272.140825
548.063863	47813.766350
548.422684	48010.101648
548.781449	47864.563536
549.140158	48254.756406
549.498811	48092.705995
549.857408	47533.316879
550.215949	48367.317809
550.574434	48293.132189
550.932864	48055.086384
551.291237	48780.326941
551.649555	48377.289212
552.007817	48612.002814
552.366022	48256.601468
552.724173	48444.192885
553.082267	48836.029171
553.440305	49138.425305
553.798288	48443.996280
554.156215	48745.411910
554.514086	48966.917689
554.871902	48702.148727
555.229661	48730.031349
555.587365	48543.927073
555.945014	48631.897728
556.302606	48549.883196
556.660143	48776.762845
557.017625	48865.950939
557.375050	48638.756218
557.732421	48981.708434
558.089735	48969.897011
558.446994	48885.616480
558.804197	49362.313029
559.161345	49287.136822
559.518437	48542.797854
559.875474	48826.272017
560.232455	48987.750257
560.589381	49169.950160
560.946251	48866.926403
561.303065	49547.802285
561.659825	49351.303149
562.016528	49015.423671
562.373177	48720.833764
562.729770	49201.227999
563.086307	48701.296772
563.442789	49154.035238
563.799216	49201.578359
564.155587	48988.186317
564.511904	49009.175161
564.868164	49083.595195
565.224370	49326.049489
565.580520	49050.590761
565.936615	49250.709445
566.292654	48965.186053
566.648638	49191.289364
567.004567	49145.654319
567.360441	49166.247433
567.716260	49010.475779
568.072023	49288.760074
568.427732	49254.384446
568.783385	48814.553855
569.138982	49173.713382
569.494525	49136.527310
569.850013	48891.560001
570.205445	48847.230614
570.560823	48800.688162
570.916145	48669.908028
571.271412	48679.594605
571.626625	48411.826157
571.981782	48447.517526
572.336884	48128.674627
572.691931	48433.273746
573.046923	48004.387500
573.401860	47842.659723
573.756743	47820.985282
574.111570	47912.615815
574.466342	47735.981346
574.821059	47813.829364
575.175722	47331.065787
575.530330	47323.188984
575.884882	47019.187242
576.239380	46962.857389
576.593823	46910.540294
576.948211	46818.312385
577.302544	46322.673700
577.656823	46317.756055
578.011047	46510.373502
578.365216	46190.507249
578.719330	45989.062742
579.073389	45801.128526
579.427394	45862.640686
579.781344	45797.239276
580.135239	45416.599393
580.489080	45481.756307
580.842866	44919.092961
581.196597	45340.651890
581.550273	45237.721611
581.903895	45059.211833
582.257463	45439.839112
582.610975	44781.459379
582.964434	45002.851733
583.317837	44626.116223
583.671186	44427.799752
584.024481	44617.344616
584.377721	44116.367349
584.730906	44361.806007
585.084037	44356.313669
585.437113	44023.262279
585.790135	44008.784085
586.143103	43591.081639
586.496016	43663.817927
586.848874	43647.837470
587.201679	43603.878608
587.554428	43050.382601
587.907124	43173.071683
588.259765	42878.189388
588.612352	43078.315634
588.964884	42433.365535
589.317362	42656.103876
589.669786	42559.527972
590.022155	42277.845939
590.374470	42649.368895
590.726731	42138.193374
591.078937	41621.515434
591.431090	41662.563029
591.783188	41293.154837
592.135232	40933.244179
592.487222	41113.750254
592.839157	41154.679382
593.191038	40766.732347
593.542866	40480.919088
593.894639	39854.434735
594.246358	40061.716899
594.598022	39995.219039
594.949633	39545.021315
595.301190	39458.167276
595.652692	39234.645035
596.004141	39490.665074
596.355535	38502.679578
596.706876	38401.521265
597.058162	38178.208232
597.409395	38600.465360
597.760573	38604.057182
598.111698	38132.058989
598.462768	38094.885520
598.813785	38073.896676
599.164748	37463.334808
599.515657	37785.353633
599.866511	37225.677171
600.217312	37737.858402
600.568060	36709.475620
600.918753	37343.448608
601.269392	37227.781853
601.619978	36840.429674
601.970510	36972.003789
602.320988	37065.633140
602.671412	37272.257433
603.021783	36972.918759
603.372100	36596.810873
603.722363	36622.845912
604.072572	36633.119784
604.422728	36572.182316
604.772830	36327.782136
605.122878	36349.519592
605.472872	36214.769549
605.822813	36394.728659
606.172701	36165.215007
606.522534	36312.724210
606.872314	36476.236555
607.222041	36160.035222
607.571714	36424.322753
607.921333	35858.203697
608.270899	36041.341254
608.620411	36253.856136
608.969870	36007.920925
609.319276	35915.614877
609.668627	35888.869036
610.017926	36235.924752
610.367171	36294.021529
610.716362	36267.797447
611.065500	36135.898177
611.414585	36200.127518
611.763616	36372.313169
612.112594	36209.078087
612.461518	36320.046486
612.810389	36468.528631
613.159207	36264.034225
613.507971	36226.230613
613.856682	36544.070322
614.205340	36352.451023
614.553945	36860.319546
614.902496	36275.268437
615.250994	36571.481596
615.599439	36527.608434
615.947830	36600.848837
616.296169	36539.739970
616.644454	36525.947373
616.992686	36558.654380
617.340864	36883.357619
617.688990	36531.701851
618.037063	36914.895078
618.385082	36766.415453
618.733048	36901.795640
619.080961	36801.363252
619.428821	36711.938224
619.776628	36716.167752
620.124382	36475.490465
620.472083	36476.407955
620.819731	36488.811714
621.167326	36146.318242
621.514868	36030.381786
621.862357	35603.602742
622.209793	35530.740425
622.557176	35192.393302
622.904506	34907.285806
623.251783	34557.321344
623.599007	34270.588075
623.946179	34023.566495
624.293297	33885.070876
624.640363	33315.584328
624.987376	33222.491861
625.334336	32924.731068
625.681243	32555.269944
626.028097	32410.563622
626.374899	32192.841229
626.721647	32066.346076
627.068343	31863.467360
627.414987	31594.662955
627.761577	31308.194346
628.108115	31469.102936
628.454600	30938.876895
628.801032	30980.158904
629.147412	30840.050115
629.493739	30738.937172
629.840014	30347.153818
630.186236	30489.445427
630.532405	30107.169689
630.878521	30137.320831
631.224585	29939.241293
631.570597	29627.118253
631.916556	29643.156684
632.262462	29490.762603
632.608316	29398.980835
632.954117	29215.210613
633.299866	29120.424318
633.645562	28972.428644
633.991206	28529.986735
634.336797	28126.757442
634.682336	28042.930615
635.027823	27783.285987
