Dividing Wavelength (nm)	Counts (n)	Blue Motor Position (mm): 0.000000	Red Motor Position (mm): 25.000000	
326.493990	1985.241673
326.888308	1985.241673
327.282561	1985.241673
327.676750	1960.459360
328.070874	1961.034052
328.464933	1967.126286
328.858929	1977.556434
329.252859	1989.171252
329.646726	2004.014930
330.040528	2021.018742
330.434265	2038.080527
330.827938	2056.679864
331.221547	2078.535786
331.615091	2098.523961
332.008571	2119.573299
332.401986	2140.998203
332.795338	2159.925215
333.188625	2181.448422
333.581847	2199.478108
333.975006	2219.551983
334.368100	2235.045969
334.761129	2253.060533
335.154095	2266.071751
335.546996	2284.045985
335.939833	2309.249233
336.332606	2322.862869
336.725315	2334.800322
337.117960	2340.363235
337.510540	2348.071159
337.903056	2359.993488
338.295508	2363.658407
338.687896	2371.779706
339.080220	2379.016282
339.472480	2383.603732
339.864676	2388.415513
340.256807	2392.576986
340.648875	2391.906512
341.040879	2395.851215
341.432818	2395.944477
341.824694	2395.384908
342.216506	2396.642676
342.608253	2395.883983
342.999937	2396.141082
343.391557	2395.495814
343.783113	2395.289127
344.174605	2393.338200
344.566033	2391.846018
344.957397	2388.148332
345.348697	2387.314021
345.739934	2389.088507
346.131106	2384.785883
346.522215	2380.969729
346.913260	2378.330685
347.304241	2380.911756
347.695159	2375.505118
348.086012	2376.982176
348.476802	2373.597042
348.867528	2373.486136
349.258191	2373.445807
349.648789	2371.015971
350.039324	2368.873480
350.429796	2371.802391
350.820203	2369.357431
351.210548	2369.916999
351.600828	2369.947246
351.991045	2370.106042
352.381198	2367.406505
352.771288	2368.208048
353.161314	2367.340970
353.551276	2367.000692
353.941175	2367.159488
354.331010	2369.362472
354.720782	2369.816176
355.110490	2368.079499
355.500135	2372.094778
355.889717	2368.235774
356.279235	2370.532020
356.668689	2372.006558
357.058080	2372.200642
357.447408	2369.097812
357.836672	2367.373737
358.225873	2371.474716
358.615010	2371.696527
359.004084	2373.697865
359.393095	2375.467310
359.782043	2377.463607
360.170927	2375.638709
360.559748	2376.241127
360.948505	2378.194574
361.337199	2376.959491
361.725830	2379.462424
362.114398	2381.609956
362.502903	2381.365460
362.891344	2381.501571
363.279722	2383.409648
363.668037	2385.063146
364.056289	2383.785213
364.444478	2384.387631
364.832603	2386.111706
365.220665	2386.212529
365.608665	2386.963661
365.996601	2388.788559
366.384474	2390.424413
366.772284	2392.244270
367.160031	2388.894423
367.547715	2392.055226
367.935336	2391.871224
368.322893	2392.365257
368.710388	2390.757129
369.097820	2398.422204
369.485189	2398.873387
369.872495	2401.439334
370.259738	2401.409087
370.646918	2405.172309
371.034035	2403.370096
371.421090	2407.844120
371.808081	2411.017527
372.195010	2414.821077
372.581875	2421.790472
372.968678	2425.485638
373.355418	2432.810435
373.742096	2443.434666
374.128710	2454.366408
374.515262	2464.640280
374.901751	2480.421612
375.288177	2499.401556
375.674540	2516.291942
376.060841	2534.835827
376.447079	2561.526216
376.833254	2588.322469
377.219367	2612.514966
377.605417	2647.298928
377.991404	2672.885304
378.377329	2714.343753
378.763191	2745.661922
379.148991	2793.265537
379.534727	2843.901407
379.920402	2890.887482
380.306013	2938.017229
380.691563	3000.330932
381.077049	3055.062739
381.462474	3113.456945
381.847835	3182.871112
382.233134	3257.046650
382.618371	3315.476144
383.003545	3404.916295
383.388657	3481.420846
383.773706	3571.347469
384.158693	3644.426556
384.543618	3739.658993
384.928480	3820.350222
385.313280	3920.195315
385.698017	4029.580792
386.082692	4148.851971
386.467305	4211.392526
386.851856	4335.898944
387.236344	4492.167151
387.620770	4555.657963
388.005133	4680.711346
388.389435	4819.358200
388.773674	4905.687960
389.157851	5039.457498
389.541965	5172.082694
389.926018	5194.725036
390.310008	5371.667016
390.693936	5495.926417
391.077802	5609.105362
391.461606	5746.060909
391.845348	5861.609196
392.229027	5976.602957
392.612645	6198.325506
392.996200	6319.721532
393.379694	6491.377861
393.763125	6715.580658
394.146494	6809.394010
394.529801	6944.844773
394.913047	7184.763367
395.296230	7177.688107
395.679351	7237.733291
396.062410	7493.750810
396.445408	7390.843216
396.828343	7544.288377
397.211217	7680.623862
397.594028	7561.965183
397.976778	7767.717357
398.359466	7933.987213
398.742092	7906.709530
399.124656	8047.435860
399.507158	8236.325374
399.889598	8255.905216
400.271977	8468.576373
400.654294	8497.300868
401.036549	8696.013070
401.418742	8723.023572
401.800874	9017.290846
402.182944	9097.586344
402.564952	9462.598650
402.946898	9283.315055
403.328783	9342.036935
403.710606	9535.259321
404.092367	9794.500657
404.474067	10157.834259
404.855705	9945.858781
405.237282	9901.504189
405.618797	10327.421195
406.000250	10569.268030
406.381642	10940.811151
406.762972	10879.324198
407.144240	10687.568788
407.525447	10938.950965
407.906593	10869.302384
408.287677	11129.385593
408.668700	11286.672114
409.049661	11260.823597
409.430560	11421.696899
409.811399	11390.260263
410.192176	11550.513503
410.572891	11625.288938
410.953545	12099.164961
411.334138	11582.779408
411.714669	12172.249089
412.095139	11490.874133
412.475547	11988.713281
412.855894	11835.225269
413.236180	12160.651915
413.616405	11856.582118
413.996568	12122.939043
414.376670	12099.056577
414.756711	11978.015952
415.136691	12247.833629
415.516609	12428.783326
415.896466	12495.780261
416.276262	12781.795165
416.655997	13224.317732
417.035670	13262.955656
417.415283	13902.242019
417.794834	13990.048837
418.174324	13738.023912
418.553753	13637.445331
418.933121	14125.998674
419.312428	13936.589921
419.691674	13846.025592
420.070859	14302.403770
420.449983	13952.492241
420.829045	14500.969779
421.208047	14243.999483
421.586988	14696.687536
421.965867	14957.221929
422.344686	14945.483602
422.723444	15510.922103
423.102141	14209.467579
423.480777	15380.368821
423.859352	14889.955292
424.237866	15989.332644
424.616319	15684.645305
424.994712	16345.981675
425.373044	16134.563245
425.751314	16802.458156
426.129524	15935.364571
426.507673	17017.725508
426.885762	16712.226543
427.263789	16905.171666
427.641756	17068.152170
428.019662	17132.555431
428.397508	17179.405394
428.775292	17462.932489
429.153016	17428.824042
429.530679	17505.454622
429.908282	17528.323816
430.285824	17245.709170
430.663305	17945.280171
431.040726	17550.562866
431.418086	17374.619035
431.795385	18021.444444
432.172624	18446.506975
432.549802	17992.926637
432.926920	18188.465433
433.303977	18064.213593
433.680974	18320.021904
434.057910	18605.358774
434.434786	18617.923850
434.811601	18538.714720
435.188355	19563.135155
435.565050	19219.540191
435.941683	19173.045629
436.318257	20039.713236
436.694770	19848.414051
437.071222	20427.161197
437.447614	19508.710858
437.823946	19532.230361
438.200218	19680.253761
438.576429	19460.593044
438.952580	19724.018538
439.328670	19671.880405
439.704700	20087.417675
440.080670	19649.986674
440.456580	20235.846888
440.832429	20405.910213
441.208218	19400.636081
441.583947	19826.275824
441.959616	19924.666544
442.335224	20154.326390
442.710773	20266.839902
443.086261	20786.343409
443.461689	20144.942282
443.837057	20253.395145
444.212365	20859.757732
444.587612	20837.793425
444.962800	20399.875952
445.337927	20802.878394
445.712995	19542.247134
446.088002	21312.453348
446.462949	21474.327318
446.837837	21621.332406
447.212664	21548.938916
447.587431	24261.636733
447.962139	27044.537658
448.336786	29291.833631
448.711374	27709.909472
449.085901	24125.200424
449.460369	24016.218240
449.834776	23883.966089
450.209124	26172.370152
450.583412	25657.257490
450.957640	26083.114002
451.331808	24725.183432
451.705917	23353.112425
452.079965	23300.082007
452.453954	23549.845974
452.827883	23358.393033
453.201752	23074.374426
453.575562	23123.823104
453.949311	24056.854981
454.323001	23986.971986
454.696632	23665.895856
455.070202	24952.317659
455.443713	24950.429747
455.817164	25322.093856
456.190556	25646.267774
456.563888	25014.477607
456.937160	25243.489664
457.310373	23657.550226
457.683526	23888.099836
458.056619	23723.881728
458.429653	23510.381301
458.802628	23826.365866
459.175542	23763.626185
459.548398	24660.122300
459.921194	25759.025783
460.293930	26127.173687
460.666607	27549.636068
461.039224	28778.497976
461.411782	28856.114101
461.784280	27645.657445
462.156719	27026.376901
462.529099	26355.144746
462.901419	25112.046619
463.273680	24071.582712
463.645882	23896.891608
464.018024	23662.135156
464.390106	24045.567838
464.762130	25791.500896
465.134094	28508.004784
465.505999	32101.853443
465.877845	35206.206064
466.249631	35737.674749
466.621358	34041.976789
466.993026	32089.863059
467.364634	30240.515770
467.736184	28517.918213
468.107674	27315.892887
468.479105	26465.011653
468.850477	25694.806524
469.221790	24457.029335
469.593043	23053.279717
469.964238	22192.230476
470.335373	21841.759378
470.706449	22568.169483
471.077467	23789.383961
471.448425	26193.227926
471.819324	27580.969359
472.190164	26144.381665
472.560945	23738.024686
472.931667	21660.671050
473.302330	20728.660006
473.672934	19977.994390
474.043479	19952.465987
474.413965	19244.473738
474.784393	18767.852806
475.154761	18932.358259
475.525070	18665.474533
475.895321	18149.386408
476.265513	18134.852762
476.635645	18315.754567
477.005719	17927.497501
477.375734	17860.248509
477.745691	17872.906846
478.115588	18161.127256
478.485427	18718.172235
478.855207	19854.670123
479.224928	20677.895587
479.594591	21031.774505
479.964194	20216.521625
480.333739	19893.726462
480.703226	19547.694100
481.072653	19450.215829
481.442022	19302.199990
481.811333	19053.953410
482.180584	18206.469914
482.549777	17677.083225
482.918912	17145.617060
483.287988	16725.131897
483.657005	16126.245341
484.025964	15605.020280
484.394864	15306.682275
484.763706	14870.682961
485.132489	14331.408049
485.501213	14006.929141
485.869879	13778.816929
486.238487	13398.073703
486.607036	13183.907843
486.975527	12771.591870
487.343959	12567.684759
487.712333	12330.158192
488.080648	12066.079869
488.448905	11928.461410
488.817104	11643.553038
489.185244	11612.706218
489.553326	11752.973803
489.921350	12118.691871
490.289315	12550.242366
490.657222	12436.566868
491.025070	12238.094120
491.392861	11773.272009
491.760593	11242.340207
492.128267	10658.778758
492.495883	10138.128389
492.863440	9663.728086
493.230939	9232.207837
493.598380	8866.978761
493.965763	8619.957182
494.333088	8312.212383
494.700354	8067.557626
495.067563	7848.963113
495.434713	7669.137593
495.801805	7507.498036
496.168839	7302.376007
496.535815	7110.214784
496.902733	6959.227185
497.269593	6765.578822
497.636395	6616.937880
498.003139	6519.915833
498.369825	6328.036915
498.736453	6220.988013
499.103023	6049.583741
499.469535	5915.640283
499.835989	5797.596625
500.202385	5649.593389
500.568723	5541.407707
500.935003	5441.870124
501.301226	5320.096012
501.667390	5264.277836
502.033497	5177.895144
502.399546	5039.107138
502.765537	4897.475920
503.131470	4830.231969
503.497345	4761.238738
503.863163	4599.016927
504.228923	4548.527251
504.594625	4490.987521
504.960269	4377.798494
505.325856	4339.899099
505.691385	4241.243718
506.056856	4182.085778
506.422270	4136.670023
506.787625	4056.296387
507.152924	4005.905013
507.518164	3951.397537
507.883347	3868.888972
508.248472	3828.232066
508.613540	3793.591778
508.978550	3759.558948
509.343503	3704.454095
509.708398	3668.505627
510.073236	3645.480157
510.438016	3608.110083
510.802738	3554.671332
511.167403	3537.891852
511.532010	3508.784229
511.896561	3485.804129
512.261053	3480.578973
512.625488	3434.951490
512.989866	3403.587951
513.354186	3378.470402
513.718449	3351.288501
514.082655	3346.171730
514.446803	3315.531597
514.810894	3305.915596
515.174927	3286.991104
515.538904	3266.929832
515.902822	3264.179883
516.266684	3235.374730
516.630488	3223.664129
516.994235	3208.147458
517.357925	3201.780481
517.721558	3196.267979
518.085133	3183.521421
518.448651	3173.514731
518.812112	3158.015703
519.175516	3149.717964
519.538863	3145.634630
519.902152	3131.998308
520.265385	3132.109214
520.628560	3122.294087
520.991678	3111.248919
521.354739	3105.345728
521.717743	3103.016715
522.080690	3092.226125
522.443580	3092.193358
522.806413	3084.150197
523.169189	3076.134762
523.531908	3076.787592
523.894569	3066.307033
524.257174	3061.820406
524.619722	3058.863769
524.982213	3055.014848
525.344647	3044.342725
525.707025	3037.968186
526.069345	3039.029349
526.431608	3035.500542
526.793815	3030.434182
527.155964	3019.804909
527.518057	3015.898015
527.880093	3010.325019
528.242072	3009.866274
528.603995	3005.984586
528.965860	2995.746002
529.327669	2994.596619
529.689421	2988.764004
530.051117	2986.785351
530.412755	2981.771924
530.774337	2981.033395
531.135862	2974.184987
531.497331	2972.435707
531.858743	2962.970941
532.220098	2968.294399
532.581396	2960.984726
532.942638	2951.862758
533.303824	2956.077163
533.664953	2952.331585
534.026025	2946.811522
534.387040	2946.161213
534.747999	2942.493774
535.108902	2946.072993
535.469748	2933.465067
535.830537	2934.551436
536.191270	2935.284924
536.551947	2931.604881
536.912567	2927.372833
537.273131	2924.000301
537.633638	2921.106678
537.994089	2921.855290
538.354483	2914.089392
538.714821	2920.630289
539.075103	2920.574837
539.435328	2918.777665
539.795497	2913.292890
540.155609	2913.124011
540.515665	2913.557551
540.875665	2906.459606
541.235609	2907.946746
541.595496	2906.227713
541.955328	2909.199473
542.315102	2903.442475
542.674821	2900.626991
543.034483	2898.539953
543.394090	2896.760426
543.753640	2895.096845
544.113134	2904.864081
544.472571	2893.869324
544.831953	2904.450706
545.191278	2892.460322
545.550548	2890.252296
545.909761	2895.011146
546.268918	2895.527864
546.628019	2895.636249
546.987064	2891.641134
547.346053	2883.635782
547.704986	2890.983264
548.063863	2883.257695
548.422684	2882.499002
548.781449	2881.667211
549.140158	2884.230638
549.498811	2880.570760
549.857408	2874.372662
550.215949	2879.439021
550.574434	2874.712940
550.932864	2875.285111
551.291237	2875.728732
551.649555	2877.122611
552.007817	2874.145810
552.366022	2873.480378
552.724173	2873.792929
553.082267	2873.228320
553.440305	2874.044987
553.798288	2868.978627
554.156215	2871.852085
554.514086	2872.101622
554.871902	2869.603730
555.229661	2866.001826
555.587365	2863.546784
555.945014	2864.877648
556.302606	2863.508975
556.660143	2862.583923
557.017625	2864.670961
557.375050	2860.383460
557.732421	2863.335055
558.089735	2860.877493
558.446994	2856.161493
558.804197	2863.894623
559.161345	2860.985878
559.518437	2851.740402
559.875474	2855.249045
560.232455	2854.946575
560.589381	2855.725434
560.946251	2853.388859
561.303065	2854.628983
561.659825	2853.343488
562.016528	2849.119002
562.373177	2846.782427
562.729770	2845.993486
563.086307	2842.825121
563.442789	2843.785461
563.799216	2844.352591
564.155587	2841.897549
564.511904	2838.593072
564.868164	2837.020232
565.224370	2838.492249
565.580520	2836.218689
565.936615	2835.026456
566.292654	2828.558656
566.648638	2830.043275
567.004567	2829.294664
567.360441	2828.016732
567.716260	2824.351813
568.072023	2822.547080
568.427732	2819.388797
568.783385	2815.066007
569.138982	2814.708085
569.494525	2812.220276
569.850013	2808.300779
570.205445	2806.024698
570.560823	2802.261477
570.916145	2804.739204
571.271412	2798.352062
571.626625	2799.667803
571.981782	2794.462812
572.336884	2788.826802
572.691931	2787.584157
573.046923	2783.863786
573.401860	2780.760955
573.756743	2778.681479
574.111570	2773.902466
574.466342	2775.180398
574.821059	2770.235026
575.175722	2766.517175
575.530330	2763.177411
575.884882	2759.353696
576.239380	2753.500916
576.593823	2754.249527
576.948211	2747.877509
577.302544	2742.579256
577.656823	2742.301993
578.011047	2741.104719
578.365216	2732.776732
578.719330	2733.618605
579.073389	2725.353633
579.427394	2726.813047
579.781344	2722.966647
580.135239	2719.039588
580.489080	2715.725030
580.842866	2711.271170
581.196597	2714.540358
581.550273	2709.060624
581.903895	2707.281097
582.257463	2706.308154
582.610975	2700.357072
582.964434	2700.379757
583.317837	2693.135619
583.671186	2690.073118
584.024481	2688.780062
584.377721	2687.529856
584.730906	2684.588343
585.084037	2685.152952
585.437113	2679.166582
585.790135	2678.579287
586.143103	2673.714574
586.496016	2673.028977
586.848874	2666.823317
587.201679	2671.433452
587.554428	2662.011535
587.907124	2661.494817
588.259765	2659.105310
588.612352	2660.287461
588.964884	2656.614980
589.317362	2655.573982
589.669786	2655.732778
590.022155	2652.619866
590.374470	2651.346974
590.726731	2648.143321
591.078937	2646.061325
591.431090	2646.525111
591.783188	2641.761220
592.135232	2637.325005
592.487222	2636.387350
592.839157	2637.312402
593.191038	2634.098667
593.542866	2632.006588
593.894639	2629.390229
594.246358	2626.196658
594.598022	2628.175311
594.949633	2625.924436
595.301190	2624.926287
595.652692	2625.664816
596.004141	2619.733899
596.355535	2618.103085
596.706876	2617.094855
597.058162	2612.877929
597.409395	2617.299021
597.760573	2615.711058
598.111698	2614.133177
598.462768	2615.272477
598.813785	2613.641664
599.164748	2608.930706
599.515657	2609.548247
599.866511	2605.227978
600.217312	2610.294338
600.568060	2605.371651
600.918753	2607.284769
601.269392	2607.814090
601.619978	2604.418873
601.970510	2602.432659
602.320988	2603.922320
602.671412	2603.924840
603.021783	2602.394850
603.372100	2600.408635
603.722363	2602.667072
604.072572	2601.389140
604.422728	2601.043821
604.772830	2597.530137
605.122878	2595.415372
605.472872	2598.354365
605.822813	2594.470156
606.172701	2597.802359
606.522534	2599.115579
606.872314	2598.372009
607.222041	2597.588110
607.571714	2601.195055
607.921333	2596.126175
608.270899	2597.956114
608.620411	2597.464602
608.969870	2594.596185
609.319276	2597.081474
609.668627	2597.890579
610.017926	2599.309664
610.367171	2598.059458
610.716362	2600.123810
611.065500	2598.407297
611.414585	2599.478542
611.763616	2598.626587
612.112594	2598.387133
612.461518	2597.883017
612.810389	2599.097935
613.159207	2599.907041
613.507971	2598.472832
613.856682	2598.999633
614.205340	2597.656165
614.553945	2599.944849
614.902496	2599.034921
615.250994	2604.247474
615.599439	2599.080291
615.947830	2600.907710
616.296169	2600.781681
616.644454	2599.342431
616.992686	2599.907041
617.340864	2603.324943
617.688990	2599.097935
618.037063	2602.294027
618.385082	2601.421907
618.733048	2603.090529
619.080961	2602.220930
619.428821	2601.941146
619.776628	2601.164808
620.124382	2600.280086
620.472083	2599.927205
620.819731	2602.563729
621.167326	2598.956783
621.514868	2599.801176
621.862357	2594.195413
622.209793	2596.819334
622.557176	2594.248345
622.904506	2591.004363
623.251783	2587.314238
623.599007	2586.709300
623.946179	2586.376584
624.293297	2585.950606
624.640363	2579.651684
624.987376	2584.390369
625.334336	2580.644792
625.681243	2583.624114
626.028097	2583.190574
626.374899	2580.828794
626.721647	2581.516911
627.068343	2580.783423
627.414987	2577.163875
627.761577	2578.081365
628.108115	2578.174626
628.454600	2577.423494
628.801032	2575.563309
629.147412	2573.912331
629.493739	2573.982907
629.840014	2576.987435
630.186236	2572.412587
630.532405	2571.779923
630.878521	2574.166909
631.224585	2570.990982
631.570597	2572.127762
631.916556	2571.479974
632.262462	2569.208934
632.608316	2568.815724
632.954117	2569.680282
633.299866	2568.815724
633.645562	2567.878070
633.991206	2563.817420
634.336797	2561.803479
634.682336	2564.492935
635.027823	2559.378684
635.373257	2560.631411
635.718639	2558.589744
636.063968	2557.198385
636.409245	2557.147974
636.754470	2554.445915
637.099642	2556.180072
637.444762	2552.832746
637.789829	2552.535318
638.134845	2550.062632
638.479808	2552.742005
638.824719	2549.835780
639.169577	2548.333516
639.514383	2548.227652
639.859137	2546.727909
640.203839	2548.283105
640.548489	2547.622713
640.893086	2545.681869
