Dividing Wavelength (nm)	Counts (n)	Blue Motor Position (mm): 0.000000	Red Motor Position (mm): 22.800000	
326.493990	1984.001549
326.888308	1984.001549
327.282561	1984.001549
327.676750	1959.335183
328.070874	1961.863322
328.464933	1969.583849
328.858929	1978.262195
329.252859	1989.065388
329.646726	2005.290342
330.040528	2021.265758
330.434265	2036.137162
330.827938	2060.019628
331.221547	2078.316496
331.615091	2100.036308
332.008571	2119.522888
332.401986	2138.129787
332.795338	2159.237098
333.188625	2181.524039
333.581847	2199.173118
333.975006	2216.156766
334.368100	2232.681668
334.761129	2249.834194
335.154095	2265.691143
335.546996	2283.461211
335.939833	2302.816721
336.332606	2315.558237
336.725315	2327.561225
337.117960	2335.743017
337.510540	2343.040088
337.903056	2352.353619
338.295508	2356.789835
338.687896	2367.983717
339.080220	2375.737011
339.472480	2377.335057
339.864676	2382.857641
340.256807	2388.365102
340.648875	2388.032386
341.040879	2389.436347
341.432818	2389.383415
341.824694	2388.130688
342.216506	2391.125133
342.608253	2391.553632
342.999937	2388.957437
343.391557	2389.549773
343.783113	2388.821326
344.174605	2388.171017
344.566033	2384.692621
344.957397	2384.470810
345.348697	2380.866385
345.739934	2379.926210
346.131106	2378.207177
346.522215	2376.248688
346.913260	2374.998482
347.304241	2375.789943
347.695159	2373.634850
348.086012	2372.586290
348.476802	2368.870960
348.867528	2368.102184
349.258191	2365.148068
349.648789	2366.594879
350.039324	2365.616895
350.429796	2364.681761
350.820203	2361.286544
351.210548	2365.407687
351.600828	2361.760412
351.991045	2363.078674
352.381198	2362.627491
352.771288	2362.783767
353.161314	2362.277131
353.551276	2361.261338
353.941175	2363.812162
354.331010	2366.814169
354.720782	2362.912316
355.110490	2364.775022
355.500135	2366.577235
355.889717	2363.451719
356.279235	2363.497090
356.668689	2365.992461
357.058080	2365.337111
357.447408	2363.214785
357.836672	2362.594723
358.225873	2363.794518
358.615010	2366.055475
359.004084	2366.042873
359.393095	2370.622761
359.782043	2371.457072
360.170927	2372.551002
360.559748	2370.897504
360.948505	2369.662421
361.337199	2372.528317
361.725830	2373.516383
362.114398	2373.949922
362.502903	2374.448997
362.891344	2377.302290
363.279722	2376.967053
363.668037	2376.662063
364.056289	2378.139121
364.444478	2379.086858
364.832603	2378.444111
365.220665	2377.418236
365.608665	2380.694986
365.996601	2381.617517
366.384474	2382.363608
366.772284	2385.746222
367.160031	2384.090203
367.547715	2384.349823
367.935336	2386.671274
368.322893	2387.472818
368.710388	2387.979453
369.097820	2391.374671
369.485189	2389.895092
369.872495	2391.697304
370.259738	2390.799979
370.646918	2394.429610
371.034035	2397.471946
371.421090	2400.521844
371.808081	2405.212638
372.195010	2409.757238
372.581875	2414.127918
372.968678	2421.515729
373.355418	2424.968920
373.742096	2439.374017
374.128710	2449.037909
374.515262	2459.647017
374.901751	2472.176805
375.288177	2491.454177
375.674540	2510.411436
376.060841	2528.738551
376.447079	2554.385421
376.833254	2577.602455
377.219367	2604.280242
377.605417	2640.657208
377.991404	2667.055210
378.377329	2707.177753
378.763191	2738.959708
379.148991	2788.355454
379.534727	2834.638287
379.920402	2882.579660
380.306013	2931.935077
380.691563	2993.280878
381.077049	3048.622665
381.462474	3104.206427
381.847835	3180.703416
382.233134	3250.989704
382.618371	3309.202428
383.003545	3395.343144
383.388657	3477.947491
383.773706	3566.495358
384.158693	3640.519662
384.543618	3731.255390
384.928480	3811.568532
385.313280	3913.510745
385.698017	4021.681304
386.082692	4136.375116
386.467305	4197.685629
386.851856	4327.807892
387.236344	4485.754803
387.620770	4545.633629
388.005133	4664.312473
388.389435	4814.385102
388.773674	4896.505498
389.157851	5027.797309
389.541965	5157.964943
389.926018	5184.005023
390.310008	5364.591756
390.693936	5484.755220
391.077802	5602.554382
391.461606	5734.713272
391.845348	5849.830540
392.229027	5968.159024
392.612645	6190.259660
392.996200	6302.601773
393.379694	6486.314022
393.763125	6704.722013
394.146494	6803.395037
394.529801	6929.585200
394.913047	7170.723753
395.296230	7171.270719
395.679351	7225.730304
396.062410	7482.254458
396.445408	7381.219653
396.828343	7530.372272
397.211217	7668.635998
397.594028	7543.403654
397.976778	7756.863752
398.359466	7918.188237
398.742092	7889.420893
399.124656	8033.504631
399.507158	8221.131336
399.889598	8235.758244
400.271977	8450.637427
400.654294	8480.410482
401.036549	8681.161831
401.418742	8702.921971
401.800874	9003.420111
402.182944	9084.262574
402.564952	9448.231362
402.946898	9264.403166
403.328783	9324.846601
403.710606	9520.251806
404.092367	9773.383264
404.474067	10134.350044
404.855705	9927.146018
405.237282	9882.622547
405.618797	10305.988730
406.000250	10549.940247
406.381642	10916.848026
406.762972	10861.644871
407.144240	10665.501137
407.525447	10905.389484
407.906593	10849.178098
408.287677	11113.737852
408.668700	11258.673545
409.049661	11233.709751
409.430560	11396.342416
409.811399	11366.839063
410.192176	11531.533559
410.572891	11602.528128
410.953545	12076.522619
411.334138	11555.794112
411.714669	12139.637865
412.095139	11472.458797
412.475547	11963.852830
412.855894	11808.978502
413.236180	12138.143163
413.616405	11824.215389
413.996568	12086.183990
414.376670	12068.764283
414.756711	11946.589399
415.136691	12218.436141
415.516609	12395.811659
415.896466	12459.569653
416.276262	12755.777770
416.655997	13193.801107
417.035670	13231.970204
417.415283	13875.929717
417.794834	13965.022029
418.174324	13703.950753
418.553753	13605.562554
418.933121	14089.447788
419.312428	13898.703129
419.691674	13817.623731
420.070859	14259.639662
420.449983	13921.839505
420.829045	14466.899141
421.208047	14206.606724
421.586988	14660.103883
421.965867	14918.702472
422.344686	14905.474484
422.723444	15464.896368
423.102141	14162.340352
423.480777	15334.068343
423.859352	14855.526732
424.237866	15939.435303
424.616319	15640.467153
424.994712	16285.230730
425.373044	16087.410812
425.751314	16741.215699
426.129524	15878.228133
426.507673	16953.972556
426.885762	16648.642470
427.263789	16846.790063
427.641756	17003.758991
428.019662	17061.820480
428.397508	17096.002024
428.775292	17395.426398
429.153016	17348.425200
429.530679	17415.709480
429.908282	17443.932380
430.285824	17157.063000
430.663305	17842.990119
431.040726	17448.338349
431.418086	17249.611023
431.795385	17889.124238
432.172624	18286.835988
432.549802	17832.691041
432.926920	18003.354264
433.303977	17865.004838
433.680974	18094.906659
434.057910	18364.537813
434.434786	18369.611735
434.811601	18256.218541
435.188355	19242.116998
435.565050	18871.020020
435.941683	18786.847874
436.318257	19603.671073
436.694770	19375.838645
437.071222	19903.458410
437.447614	18959.794739
437.823946	18937.122149
438.200218	19027.194966
438.576429	18753.112472
438.952580	18952.916084
439.328670	18862.041725
439.704700	19180.141053
440.080670	18705.622282
440.456580	19176.667698
440.832429	19256.471684
441.208218	18235.423781
441.583947	18560.482422
441.959616	18567.376200
442.335224	18679.748560
442.710773	18702.592549
443.086261	19075.101051
443.461689	18402.722033
443.837057	18399.934275
444.212365	18856.957721
444.587612	18720.891937
444.962800	18223.158654
445.337927	18462.636147
445.712995	17239.410248
446.088002	18686.271813
446.462949	18700.578608
446.837837	18703.331078
447.212664	18503.948402
447.587431	20644.029115
447.962139	22811.163181
448.336786	24533.949781
448.711374	23103.272840
449.085901	20011.754997
449.460369	19753.398383
449.834776	19475.807247
450.209124	21134.281327
450.583412	20600.360120
450.957640	20774.655494
451.331808	19578.964378
451.705917	18356.363582
452.079965	18156.222213
452.453954	18197.887349
452.827883	17890.462664
453.201752	17531.618210
453.575562	17430.638857
453.949311	17952.559598
454.323001	17744.627125
454.696632	17354.857712
455.070202	18111.459287
455.443713	17955.939691
455.817164	18061.718222
456.190556	18125.093088
456.563888	17525.838527
456.937160	17523.259977
457.310373	16305.642362
457.683526	16294.103161
458.056619	16027.353026
458.429653	15737.753861
458.802628	15781.954698
459.175542	15592.818167
459.548398	15994.835063
459.921194	16527.027154
460.293930	16597.421826
460.666607	17301.469372
461.039224	17868.760497
461.411782	17726.678097
461.784280	16845.978437
462.156719	16280.860050
462.529099	15718.146293
462.901419	14872.888466
463.273680	14136.547288
463.645882	13888.083939
464.018024	13611.790899
464.390106	13665.295186
464.762130	14410.385286
465.134094	15686.172775
465.505999	17398.854383
465.877845	18851.999746
466.249631	18855.896558
466.621358	17755.274042
466.993026	16554.652677
467.364634	15461.095338
467.736184	14481.180730
468.107674	13765.813273
468.479105	13225.565418
468.850477	12707.486037
469.221790	12024.260977
469.593043	11291.556992
469.964238	10795.028544
470.335373	10519.136276
470.706449	10678.832468
471.077467	11042.075329
471.448425	11861.373734
471.819324	12302.222638
472.190164	11624.258022
472.560945	10594.952709
472.931667	9690.017703
473.302330	9221.921362
473.672934	8852.528294
474.043479	8727.583296
474.413965	8384.822643
474.784393	8123.567365
475.154761	8084.793331
475.525070	7905.096361
475.895321	7651.080180
476.265513	7554.126189
476.635645	7516.042792
477.005719	7322.911147
477.375734	7212.998870
477.745691	7131.745552
478.115588	7127.889069
478.485427	7215.416103
478.855207	7456.912578
479.224928	7611.093748
479.594591	7622.204451
479.964194	7294.647918
480.333739	7107.875688
480.703226	6929.310457
481.072653	6821.432286
481.442022	6715.557973
481.811333	6576.190233
482.180584	6298.278984
482.549777	6099.947388
482.918912	5911.040230
483.287988	5741.281895
483.657005	5548.006577
484.025964	5367.140060
484.394864	5240.067695
484.763706	5093.972536
485.132489	4925.499695
485.501213	4810.634484
485.869879	4717.027818
486.238487	4598.036423
486.607036	4515.782436
486.975527	4402.406886
487.343959	4326.978622
487.712333	4249.518773
488.080648	4173.425076
488.448905	4116.555819
488.817104	4037.013973
489.185244	4003.258407
489.553326	4000.019466
489.921350	4037.976834
490.289315	4080.256991
490.657222	4041.437586
491.025070	3990.864730
491.392861	3898.999784
491.760593	3795.676295
492.128267	3691.228628
492.495883	3598.010132
492.863440	3520.754449
493.230939	3448.189560
493.598380	3386.730333
493.965763	3344.152748
494.333088	3296.874286
494.700354	3256.464397
495.067563	3225.226887
495.434713	3195.985674
495.801805	3177.237623
496.168839	3144.321409
496.535815	3122.500775
496.902733	3106.036366
497.269593	3078.907397
497.636395	3056.839746
498.003139	3053.099210
498.369825	3026.703728
498.736453	3018.426153
499.103023	2998.954697
499.469535	2981.068683
499.835989	2972.163485
500.202385	2957.624797
500.568723	2949.334619
500.935003	2941.737601
501.301226	2928.764191
501.667390	2931.677978
502.033497	2924.247317
502.399546	2911.770462
502.765537	2895.132133
503.131470	2894.081053
503.497345	2892.054509
503.863163	2871.305120
504.228923	2871.148844
504.594625	2871.224461
504.960269	2858.424972
505.325856	2860.935466
505.691385	2852.103365
506.056856	2847.384845
506.422270	2851.163189
506.787625	2843.568691
507.152924	2839.694564
507.518164	2842.008454
507.883347	2824.961792
508.248472	2830.595282
508.613540	2829.019921
508.978550	2831.336331
509.343503	2827.598316
509.708398	2830.171825
510.073236	2829.264417
510.438016	2829.322390
510.802738	2822.710917
511.167403	2828.359530
511.532010	2828.828357
511.896561	2828.820796
512.261053	2838.462002
512.625488	2830.880107
512.989866	2824.911381
513.354186	2824.407265
513.718449	2818.821667
514.082655	2831.903461
514.446803	2827.580672
514.810894	2830.592761
515.174927	2830.479335
515.538904	2827.341217
515.902822	2832.140395
516.266684	2827.275682
516.630488	2829.526557
516.994235	2829.173676
517.357925	2834.124089
517.721558	2837.410922
518.085133	2836.153154
518.448651	2836.823627
518.812112	2833.960252
519.175516	2835.470077
519.538863	2839.586180
519.902152	2837.413442
520.265385	2839.334122
520.628560	2841.406036
520.991678	2837.622650
521.354739	2839.470233
521.717743	2841.390913
522.080690	2842.847806
522.443580	2846.353929
522.806413	2846.749659
523.169189	2844.831500
523.531908	2845.335616
523.894569	2842.439473
524.257174	2846.444669
524.619722	2847.709999
524.982213	2845.970801
525.344647	2845.179340
525.707025	2846.583301
526.069345	2848.451049
526.431608	2846.590863
526.793815	2850.391893
527.155964	2845.375945
527.518057	2847.495750
527.880093	2845.045749
528.242072	2851.037161
528.603995	2848.735874
528.965860	2846.979032
529.327669	2848.272088
529.689421	2845.479288
530.051117	2843.732529
530.412755	2845.330574
530.774337	2846.154803
531.135862	2846.237982
531.497331	2840.962415
531.858743	2839.807990
532.220098	2846.220338
532.581396	2841.723629
532.942638	2837.128617
533.303824	2839.510562
533.664953	2841.050635
534.026025	2837.252125
534.387040	2844.077848
534.747999	2844.791171
535.108902	2844.728157
535.469748	2838.036025
535.830537	2839.014009
536.191270	2838.996365
536.551947	2837.998216
536.912567	2839.054338
537.273131	2841.479133
537.633638	2835.785150
537.994089	2834.857577
538.354483	2835.394460
538.714821	2838.915706
539.075103	2840.564163
539.435328	2840.097857
539.795497	2836.087619
540.155609	2838.651046
540.515665	2837.494101
540.875665	2834.179542
541.235609	2834.534943
541.595496	2836.443020
541.955328	2841.705985
542.315102	2833.869511
542.674821	2832.563852
543.034483	2831.898420
543.394090	2829.047647
543.753640	2829.680312
544.113134	2835.744820
544.472571	2828.856084
544.831953	2836.889162
545.191278	2829.743327
545.550548	2828.788028
545.909761	2832.021928
546.268918	2833.728359
546.628019	2833.309943
546.987064	2831.384222
547.346053	2826.015393
547.704986	2828.384736
548.063863	2827.994046
548.422684	2826.506906
548.781449	2823.436843
549.140158	2825.433140
549.498811	2825.080259
549.857408	2818.438539
550.215949	2826.413645
550.574434	2818.753611
550.932864	2819.600525
551.291237	2822.302584
551.649555	2820.938952
552.007817	2823.454487
552.366022	2819.875268
552.724173	2821.004487
553.082267	2822.312666
553.440305	2824.767708
553.798288	2815.562561
554.156215	2814.342602
554.514086	2818.574650
554.871902	2820.099599
555.229661	2816.951399
555.587365	2810.367652
555.945014	2811.801860
556.302606	2807.814307
556.660143	2811.544761
557.017625	2808.013433
557.375050	2804.348514
557.732421	2805.354224
558.089735	2803.110911
558.446994	2801.606127
558.804197	2806.821200
559.161345	2799.778708
559.518437	2793.512554
559.875474	2794.258645
560.232455	2796.698563
560.589381	2792.048099
560.946251	2788.925104
561.303065	2790.528191
561.659825	2789.832512
562.016528	2782.293466
562.373177	2778.736932
562.729770	2780.720626
563.086307	2772.622012
563.442789	2772.160747
563.799216	2773.794081
564.155587	2770.413987
564.511904	2764.692277
564.868164	2763.583224
565.224370	2763.492483
565.580520	2756.921339
565.936615	2756.964189
566.292654	2751.769280
566.648638	2751.804568
567.004567	2747.721233
567.360441	2742.793505
567.716260	2739.897362
568.072023	2738.753020
568.427732	2733.064078
568.783385	2728.635425
569.138982	2724.920094
569.494525	2723.168293
569.850013	2717.668394
570.205445	2717.333158
570.560823	2712.904504
570.916145	2710.514997
571.271412	2708.367466
571.626625	2703.601055
571.981782	2701.503935
572.336884	2697.155939
572.691931	2696.147709
573.046923	2692.253417
573.401860	2689.342151
573.756743	2685.195802
574.111570	2682.168589
574.466342	2679.519463
574.821059	2678.604493
575.175722	2673.079389
575.530330	2669.865653
575.884882	2668.575118
576.239380	2666.230981
576.593823	2660.232008
576.948211	2660.060609
577.302544	2656.486431
577.656823	2653.786893
578.011047	2650.966367
578.365216	2647.225831
578.719330	2645.113588
579.073389	2642.560243
579.427394	2641.209214
579.781344	2641.466313
580.135239	2638.519758
580.489080	2635.966414
580.842866	2632.787967
581.196597	2632.798049
581.550273	2632.533388
581.903895	2625.642131
582.257463	2628.918881
582.610975	2621.493261
582.964434	2621.939403
583.317837	2621.838580
583.671186	2620.419496
584.024481	2619.859927
584.377721	2612.749380
584.730906	2616.711727
585.084037	2614.387755
585.437113	2610.170830
585.790135	2612.613269
586.143103	2607.365428
586.496016	2605.961466
586.848874	2603.864346
587.201679	2602.513317
587.554428	2599.165991
587.907124	2601.081629
588.259765	2596.310177
588.612352	2603.077926
588.964884	2596.451330
589.317362	2599.259252
589.669786	2597.835126
590.022155	2598.067019
590.374470	2598.261104
590.726731	2594.810434
591.078937	2590.066708
591.431090	2590.840525
591.783188	2589.582757
592.135232	2588.566965
592.487222	2586.517736
592.839157	2587.813312
593.191038	2586.129567
593.542866	2586.711820
593.894639	2580.637230
594.246358	2582.653692
594.598022	2582.605801
594.949633	2581.153948
595.301190	2581.529514
595.652692	2579.482806
596.004141	2581.345512
596.355535	2578.968608
596.706876	2575.165057
597.058162	2573.791343
597.409395	2574.300500
597.760573	2572.019377
598.111698	2574.411405
598.462768	2572.798236
598.813785	2574.643298
599.164748	2569.455951
599.515657	2573.458627
599.866511	2566.237174
600.217312	2571.353945
600.568060	2570.413770
600.918753	2574.005592
601.269392	2569.176167
601.619978	2567.719273
601.970510	2571.212793
602.320988	2569.982751
602.671412	2571.303534
603.021783	2565.211299
603.372100	2567.290775
603.722363	2567.000909
604.072572	2565.039900
604.422728	2568.636763
604.772830	2563.872873
605.122878	2560.719631
605.472872	2562.559652
605.822813	2563.588048
606.172701	2565.458316
606.522534	2565.894376
606.872314	2565.483522
607.222041	2565.049982
607.571714	2567.865467
607.921333	2567.245405
608.270899	2565.448233
608.620411	2565.972513
608.969870	2565.614592
609.319276	2562.799107
609.668627	2566.461505
610.017926	2568.140210
610.367171	2566.789180
610.716362	2567.230281
611.065500	2566.486711
611.414585	2565.274314
611.763616	2567.021073
612.112594	2566.481670
612.461518	2565.778429
612.810389	2569.365210
613.159207	2566.529561
613.507971	2563.812379
613.856682	2565.851526
614.205340	2567.194993
614.553945	2571.356466
614.902496	2567.142061
615.250994	2566.209448
615.599439	2565.642318
615.947830	2565.760785
616.296169	2568.601475
616.644454	2567.578121
616.992686	2569.236661
617.340864	2566.804304
617.688990	2568.498132
618.037063	2569.397977
618.385082	2568.803121
618.733048	2569.360169
619.080961	2570.350756
619.428821	2567.683985
619.776628	2568.200703
620.124382	2568.130127
620.472083	2568.210786
620.819731	2566.383368
621.167326	2565.120558
621.514868	2565.735579
621.862357	2561.798438
622.209793	2565.763306
622.557176	2559.787018
622.904506	2558.710731
623.251783	2552.126984
623.599007	2558.970351
623.946179	2550.569268
624.293297	2553.707386
624.640363	2553.236038
624.987376	2551.643034
625.334336	2550.312169
625.681243	2552.754608
626.028097	2551.325441
626.374899	2547.834442
626.721647	2550.516336
627.068343	2548.212528
627.414987	2546.589277
627.761577	2546.949719
628.108115	2544.519883
628.454600	2546.299411
628.801032	2545.076931
629.147412	2545.616334
629.493739	2543.320089
629.840014	2545.512991
630.186236	2542.379913
630.532405	2542.115253
630.878521	2542.238761
631.224585	2538.800694
631.570597	2540.227341
631.916556	2541.832948
632.262462	2539.095602
632.608316	2540.323123
632.954117	2542.558874
633.299866	2539.685417
633.645562	2537.656352
633.991206	2536.005374
634.336797	2532.746268
634.682336	2536.600231
635.027823	2531.556556
635.373257	2533.494880
635.718639	2530.818027
636.063968	2529.976154
636.409245	2527.390043
636.754470	2527.173273
637.099642	2526.273427
637.444762	2524.975330
637.789829	2527.125382
638.134845	2524.640093
638.479808	2525.262676
638.824719	2521.353261
639.169577	2522.076666
639.514383	2518.648682
639.859137	2519.324196
640.203839	2521.257479
640.548489	2519.286388
640.893086	2516.160872
641.237632	2512.233813
641.582125	2517.834535
641.926566	2512.745491
