Dividing Wavelength (nm)	Counts (n)	Blue Motor Position (mm): 0.000000	Red Motor Position (mm): 34.200000	
326.493990	1992.213588
326.888308	1992.213588
327.282561	1992.213588
327.676750	1966.743159
328.070874	1967.327932
328.464933	1973.097533
328.858929	1986.151601
329.252859	1996.387664
329.646726	2010.815446
330.040528	2026.526202
330.434265	2045.135622
330.827938	2066.179918
331.221547	2085.646334
331.615091	2104.838007
332.008571	2127.051851
332.401986	2147.370222
332.795338	2163.781698
333.188625	2186.292970
333.581847	2204.597400
333.975006	2224.532643
334.368100	2241.317165
334.761129	2260.047572
335.154095	2272.567277
335.546996	2295.270114
335.939833	2331.634477
336.332606	2346.740294
336.725315	2357.402335
337.117960	2365.843747
337.510540	2372.639222
337.903056	2382.865203
338.295508	2390.636142
338.687896	2395.697460
339.080220	2406.500653
339.472480	2410.667166
339.864676	2412.411406
340.256807	2417.505492
340.648875	2419.103537
341.040879	2420.515060
341.432818	2420.295770
341.824694	2420.537746
342.216506	2423.559917
342.608253	2422.692839
342.999937	2420.701583
343.391557	2420.935997
343.783113	2417.583629
344.174605	2417.961716
344.566033	2416.726633
344.957397	2413.308731
345.348697	2412.121539
345.739934	2413.714544
346.131106	2408.524676
346.522215	2408.375962
346.913260	2406.656928
347.304241	2407.287073
347.695159	2403.831362
348.086012	2399.642163
348.476802	2402.379509
348.867528	2399.090157
349.258191	2395.871380
349.648789	2398.926319
350.039324	2396.057903
350.429796	2397.061092
350.820203	2394.911040
351.210548	2397.897924
351.600828	2394.343910
351.991045	2397.398849
352.381198	2391.344424
352.771288	2395.987326
353.161314	2393.635628
353.551276	2394.709394
353.941175	2395.447923
354.331010	2395.498334
354.720782	2394.311143
355.110490	2394.411966
355.500135	2396.705691
355.889717	2397.242574
356.279235	2396.924981
356.668689	2397.993706
357.058080	2396.350289
357.447408	2396.173849
357.836672	2396.004970
358.225873	2397.981103
358.615010	2397.363561
359.004084	2400.607544
359.393095	2402.490415
359.782043	2402.871022
360.170927	2403.964952
360.559748	2402.510579
360.948505	2404.736249
361.337199	2403.743142
361.725830	2407.884449
362.114398	2410.037022
362.502903	2407.549213
362.891344	2409.497619
363.279722	2411.183885
363.668037	2410.727660
364.056289	2411.493916
364.444478	2411.609862
364.832603	2413.202867
365.220665	2414.548855
365.608665	2414.763104
365.996601	2414.485840
366.384474	2418.097827
366.772284	2420.326017
367.160031	2418.120512
367.547715	2420.620925
367.935336	2418.969947
368.322893	2420.567993
368.710388	2422.208888
369.097820	2426.423293
369.485189	2425.727613
369.872495	2428.641400
370.259738	2427.996133
370.646918	2435.661207
371.034035	2434.998295
371.421090	2436.631629
371.808081	2440.898966
372.195010	2445.960284
372.581875	2447.747373
372.968678	2458.492593
373.355418	2462.291102
373.742096	2477.132259
374.128710	2488.895792
374.515262	2498.000116
374.901751	2516.624658
375.288177	2530.500434
375.674540	2550.728064
376.060841	2575.633885
376.447079	2597.600713
376.833254	2625.742954
377.219367	2652.967705
377.605417	2685.828467
377.991404	2712.803681
378.377329	2754.436050
378.763191	2791.730506
379.148991	2836.080057
379.534727	2889.881772
379.920402	2936.688885
380.306013	2985.346102
380.691563	3050.878581
381.077049	3109.877725
381.462474	3168.254287
381.847835	3242.765061
382.233134	3317.356494
382.618371	3374.356821
383.003545	3465.145481
383.388657	3547.091957
383.773706	3640.822131
384.158693	3717.762741
384.543618	3811.669355
384.928480	3895.528949
385.313280	3999.311184
385.698017	4107.827061
386.082692	4230.226277
386.467305	4293.001245
386.851856	4423.985545
387.236344	4582.764248
387.620770	4647.374196
388.005133	4769.758288
388.389435	4924.113377
388.773674	5006.206047
389.157851	5144.137058
389.541965	5275.693529
389.926018	5301.307632
390.310008	5485.425693
390.693936	5606.473880
391.077802	5727.995934
391.461606	5864.273446
391.845348	5977.492720
392.229027	6104.186999
392.612645	6333.085630
392.996200	6447.028310
393.379694	6626.427852
393.763125	6854.149374
394.146494	6955.421114
394.529801	7099.325892
394.913047	7346.274374
395.296230	7337.895977
395.679351	7398.044504
396.062410	7669.661873
396.445408	7560.929226
396.828343	7727.471305
397.211217	7863.668158
397.594028	7740.326247
397.976778	7955.928835
398.359466	8121.422354
398.742092	8091.240966
399.124656	8247.458762
399.507158	8437.464892
399.889598	8455.295453
400.271977	8674.504987
400.654294	8705.175367
401.036549	8905.833455
401.418742	8936.909647
401.800874	9237.478363
402.182944	9321.935334
402.564952	9699.132109
402.946898	9512.664869
403.328783	9581.345549
403.710606	9774.104149
404.092367	10040.360251
404.474067	10407.066385
404.855705	10198.120640
405.237282	10146.610130
405.618797	10583.032901
406.000250	10838.886582
406.381642	11201.799247
406.762972	11157.767289
407.144240	10956.111053
407.525447	11210.417100
407.906593	11152.053141
408.287677	11410.220712
408.668700	11575.472256
409.049661	11543.299612
409.430560	11707.016124
409.811399	11681.868328
410.192176	11847.777742
410.572891	11919.430183
410.953545	12420.717480
411.334138	11886.939946
411.714669	12507.367353
412.095139	11792.937550
412.475547	12306.668936
412.855894	12148.107003
413.236180	12480.419865
413.616405	12155.520020
413.996568	12445.953496
414.376670	12412.076942
414.756711	12287.918364
415.136691	12587.304929
415.516609	12770.878547
415.896466	12837.058814
416.276262	13126.950366
416.655997	13566.402871
417.035670	13610.868368
417.415283	14270.843627
417.794834	14373.516807
418.174324	14104.379686
418.553753	14013.643958
418.933121	14510.794988
419.312428	14320.292305
419.691674	14228.150095
420.070859	14685.861658
420.449983	14340.877857
420.829045	14903.906686
421.208047	14640.274504
421.586988	15108.549805
421.965867	15358.802765
422.344686	15364.993302
422.723444	15934.890703
423.102141	14603.579945
423.480777	15805.411187
423.859352	15317.815663
424.237866	16445.531861
424.616319	16130.311032
424.994712	16807.549722
425.373044	16593.807319
425.751314	17283.520344
426.129524	16390.994138
426.507673	17511.519130
426.885762	17195.723609
427.263789	17394.277015
427.641756	17570.109940
428.019662	17633.406668
428.397508	17684.294596
428.775292	17994.139034
429.153016	17941.668185
429.530679	18029.671607
429.908282	18046.045275
430.285824	17763.702851
430.663305	18484.008118
431.040726	18076.720696
431.418086	17894.782933
431.795385	18554.155774
432.172624	18980.823912
432.549802	18527.964459
432.926920	18720.634839
433.303977	18607.919680
433.680974	18865.096664
434.057910	19159.242950
434.434786	19182.754891
434.811601	19090.446323
435.188355	20142.439349
435.565050	19796.195259
435.941683	19743.636189
436.318257	20636.689195
436.694770	20438.828948
437.071222	21042.948222
437.447614	20109.923907
437.823946	20122.892275
438.200218	20275.810636
438.576429	20057.861390
438.952580	20341.759010
439.328670	20294.157915
439.704700	20720.942000
440.080670	20273.428690
440.456580	20879.176257
440.832429	21071.370247
441.208218	20043.930162
441.583947	20495.627628
441.959616	20601.466653
442.335224	20836.487766
442.710773	20971.373920
443.086261	21510.421980
443.461689	20869.378775
443.837057	20992.617342
444.212365	21649.938433
444.587612	21638.830251
444.962800	21212.225127
445.337927	21649.467085
445.712995	20354.818119
446.088002	22239.647569
446.462949	22436.421448
446.837837	22626.162917
447.212664	22576.646183
447.587431	25462.305988
447.962139	28417.712677
448.336786	30832.011995
448.711374	29242.445447
449.085901	25508.387176
449.460369	25475.844007
449.834776	25386.310594
450.209124	27906.080933
450.583412	27424.191995
450.957640	27953.281256
451.331808	26584.439108
451.705917	25206.114550
452.079965	25251.784883
452.453954	25610.006755
452.827883	25487.685677
453.201752	25285.767301
453.575562	25464.700536
453.949311	26593.099810
454.323001	26655.897464
454.696632	26417.153459
455.070202	27995.606784
455.443713	28128.224418
455.817164	28723.292300
456.190556	29248.946015
456.563888	28688.074799
456.937160	29141.811413
457.310373	27445.810983
457.683526	27908.304081
458.056619	27891.166679
458.429653	27827.138984
458.802628	28404.363702
459.175542	28541.863694
459.548398	29836.182464
459.921194	31424.546698
460.293930	32101.949225
460.666607	34139.124865
461.039224	35902.041571
461.411782	36307.352860
461.784280	35112.901868
462.156719	34639.698839
462.529099	34083.256277
462.901419	32776.536268
463.273680	31709.071941
463.645882	31780.999124
464.018024	31770.866405
464.390106	32605.439507
464.762130	35325.673848
465.134094	39411.501314
465.505999	44720.786572
465.877845	49327.176187
466.249631	50509.089830
466.621358	48836.072020
466.993026	46723.843682
467.364634	44663.589640
467.736184	42664.769620
468.107674	41406.084245
468.479105	40601.672367
468.850477	39910.608313
469.221790	38472.036925
469.593043	36691.728238
469.964238	35807.409031
470.335373	35711.853959
470.706449	37469.122052
471.077467	40057.046270
471.448425	44650.621272
471.819324	47464.684090
472.190164	45612.153313
472.560945	42026.153730
472.931667	38906.579345
473.302330	37779.006820
473.672934	36963.073385
474.043479	37459.185938
474.413965	36656.500655
474.784393	36266.711078
475.154761	37167.338418
475.525070	37208.368370
475.895321	36734.215083
476.265513	37326.091915
476.635645	38319.627721
477.005719	38134.113259
477.375734	38601.924774
477.745691	39304.182711
478.115588	40666.526811
478.485427	42642.207936
478.855207	45998.857704
479.224928	48598.724415
479.594591	50269.574528
479.964194	49280.089289
480.333739	49443.906625
480.703226	49463.269697
481.072653	50083.722309
481.442022	50574.735735
481.811333	50834.317349
482.180584	49551.994004
482.549777	49012.832518
482.918912	48472.229262
483.287988	48203.573571
483.657005	47348.001543
484.025964	46713.784060
484.394864	46734.009169
484.763706	46294.717982
485.132489	45404.840902
485.501213	45253.220638
485.869879	45397.044758
486.238487	44986.011758
486.607036	45180.413774
486.975527	44625.637314
487.343959	44823.119474
487.712333	44902.686526
488.080648	44803.925281
488.448905	45254.485968
488.817104	45079.043732
489.185244	46036.005966
489.553326	47707.098055
489.921350	50412.879408
490.289315	53283.924909
490.657222	53866.324371
491.025070	54146.907433
491.392861	53258.658646
491.760593	52025.610059
492.128267	50349.784327
492.495883	48821.571141
492.863440	47419.961493
493.230939	46067.976964
493.598380	44968.932329
493.965763	44623.512467
494.333088	43804.002333
494.700354	43296.406032
495.067563	43013.836756
495.434713	42872.858368
495.801805	42932.709467
496.168839	42540.202708
496.535815	42197.905842
496.902733	42220.507855
497.269593	41792.776033
497.636395	41714.549928
498.003139	42118.212761
498.369825	41550.490618
498.736453	41863.430325
499.103023	41385.125648
499.469535	41227.458520
499.835989	41310.524133
500.202385	40964.022944
500.568723	40969.245579
500.935003	41142.081539
501.301226	40931.232759
501.667390	41529.179140
502.033497	41777.700463
502.399546	41172.905674
502.765537	40478.481691
503.131470	40854.524041
503.497345	41190.373272
503.863163	39838.537457
504.228923	40421.088154
504.594625	40822.116984
504.960269	40076.999157
505.325856	40748.382547
505.691385	40086.065672
506.056856	40195.035254
506.422270	40594.453435
506.787625	40150.199232
507.152924	40308.993057
507.518164	40382.057020
507.883347	39557.437677
508.248472	39793.754367
508.613540	40220.513245
508.978550	40482.691054
509.343503	40186.417401
509.708398	40350.431342
510.073236	40824.982880
510.438016	40767.518767
510.802738	40198.533815
511.167403	40754.588207
511.532010	40919.237333
511.896561	41185.339680
512.261053	41949.621453
512.625488	41455.495115
512.989866	41279.846191
513.354186	41052.659031
513.718449	40999.288336
514.082655	41576.016500
514.446803	41189.309589
514.810894	41617.628705
515.174927	41481.278096
515.538904	41315.555204
515.902822	41885.659293
516.266684	41270.043668
516.630488	41610.858435
516.994235	41381.722869
517.357925	41856.042514
517.721558	41933.938423
518.085133	42116.705456
518.448651	42147.421206
518.812112	41847.538087
519.175516	41846.794517
519.538863	42070.127715
519.902152	41936.320368
520.265385	42244.513829
520.628560	42186.638863
520.991678	41885.596278
521.354739	42004.391069
521.717743	42181.242307
522.080690	41978.582882
522.443580	42371.699620
522.806413	42289.112918
523.169189	42114.459622
523.531908	42158.660459
523.894569	41906.121336
524.257174	41939.803806
524.619722	42079.663058
524.982213	41936.978239
525.344647	41734.966602
525.707025	41641.596871
526.069345	41867.329657
526.431608	41634.466158
526.793815	41795.465489
527.155964	41229.477502
527.518057	41233.938924
527.880093	40903.571948
528.242072	41224.688406
528.603995	40796.792747
528.965860	40658.549185
529.327669	40594.796233
529.689421	40350.002844
530.051117	40151.724181
530.412755	40129.994287
530.774337	40011.824600
531.135862	39684.550371
531.497331	39708.876459
531.858743	39453.098395
532.220098	39596.680539
532.581396	39167.600209
532.942638	38715.028102
533.303824	38790.408475
533.664953	38587.290305
534.026025	38168.456120
534.387040	38407.648787
534.747999	38186.974798
535.108902	38151.633789
535.469748	37575.296314
535.830537	37478.112950
536.191270	37458.339024
536.551947	36999.596545
536.912567	37074.855931
537.273131	36998.283324
537.633638	36387.328246
537.994089	36496.559967
538.354483	35981.611143
538.714821	36233.623465
539.075103	36341.426019
539.435328	35936.828053
539.795497	35670.508936
540.155609	35465.457483
540.515665	35623.643849
540.875665	35029.193508
541.235609	35069.366463
541.595496	34864.446080
541.955328	35175.956620
542.315102	34497.785317
542.674821	34128.079697
543.034483	33952.307265
543.394090	33738.317846
543.753640	33520.829866
544.113134	34032.295253
544.472571	33101.673047
544.831953	33805.312260
545.191278	33028.329300
545.550548	32616.033492
545.909761	32743.277256
546.268918	32674.654549
546.628019	32669.721780
546.987064	32164.520027
547.346053	31441.981528
547.704986	31835.136076
548.063863	31323.116162
548.422684	31246.919121
548.781449	30928.648394
549.140158	30986.044451
549.498811	30676.268068
549.857408	30075.947303
550.215949	30418.836505
550.574434	30148.131585
550.932864	29784.649269
551.291237	30033.911642
551.649555	29567.105837
552.007817	29485.476953
552.366022	29052.157013
552.724173	28946.249932
553.082267	28982.979779
553.440305	28939.595609
553.798288	28284.835424
554.156215	28266.523432
554.514086	28169.670264
554.871902	27798.059088
555.229661	27587.840452
555.587365	27262.244928
555.945014	27100.073529
556.302606	26836.290113
556.660143	26768.403415
557.017625	26572.481491
557.375050	26254.669509
557.732421	26220.230866
558.089735	25988.844425
558.446994	25740.403761
558.804197	25767.479798
559.161345	25524.165987
559.518437	24914.816516
559.875474	24854.567166
560.232455	24721.112700
560.589381	24606.262613
560.946251	24220.551329
561.303065	24360.037535
561.659825	24045.219998
562.016528	23671.471373
562.373177	23317.242095
562.729770	23342.873841
563.086307	22890.601683
563.442789	22897.981932
563.799216	22719.061300
564.155587	22405.287282
564.511904	22209.282179
564.868164	22046.755379
565.224370	21948.636881
565.580520	21616.041715
565.936615	21512.385509
566.292654	21174.325732
566.648638	21082.962381
567.004567	20861.408710
567.360441	20675.982469
567.716260	20415.937068
568.072023	20330.920529
568.427732	20128.777822
568.783385	19754.547766
569.138982	19711.277022
569.494525	19503.778089
569.850013	19210.771104
570.205445	19012.265589
570.560823	18815.564807
570.916145	18565.667249
571.271412	18386.890289
571.626625	18110.617415
571.981782	17946.807641
572.336884	17643.052916
572.691931	17569.270588
573.046923	17244.358141
573.401860	17010.030186
573.756743	16835.863362
574.111570	16697.975202
574.466342	16476.872714
574.821059	16327.357133
575.175722	16012.801735
575.530330	15842.360324
575.884882	15592.961840
576.239380	15417.665797
576.593823	15248.517442
576.948211	15060.527774
577.302544	14757.980405
577.656823	14606.125728
578.011047	14512.040153
578.365216	14288.691832
578.719330	14070.977000
579.073389	13881.341395
579.427394	13746.971960
579.781344	13605.991052
580.135239	13356.960572
580.489080	13230.304102
580.842866	12955.205817
581.196597	12924.873194
581.550273	12758.323553
581.903895	12593.127462
582.257463	12548.036862
582.610975	12264.300558
582.964434	12194.974611
583.317837	11974.416568
583.671186	11807.934983
584.024481	11725.746531
584.377721	11500.943837
584.730906	11430.597056
585.084037	11306.385546
585.437113	11118.186670
585.790135	11002.151911
586.143103	10794.106013
586.496016	10704.633093
586.848874	10584.315875
587.201679	10470.136261
587.554428	10259.272357
587.907124	10178.240850
588.259765	10017.503660
588.612352	9953.216345
588.964884	9728.574968
589.317362	9675.383233
589.669786	9560.570954
590.022155	9413.835569
590.374470	9365.314463
590.726731	9190.197381
591.078937	8999.208227
591.431090	8913.561543
591.783188	8761.346424
592.135232	8610.666335
592.487222	8541.133700
592.839157	8463.227709
593.191038	8319.706059
593.542866	8189.936676
593.894639	8011.676435
594.246358	7959.026624
594.598022	7864.835185
594.949633	7716.942855
595.301190	7623.868032
595.652692	7518.346599
596.004141	7466.642005
596.355535	7263.397805
596.706876	7169.347518
597.058162	7066.202990
597.409395	7036.316510
597.760573	6972.757642
598.111698	6845.113106
598.462768	6768.716940
598.813785	6695.572318
599.164748	6564.807308
599.515657	6531.601228
599.866511	6406.197485
600.217312	6391.620988
600.568060	6219.795780
600.918753	6225.280555
601.269392	6154.830430
601.619978	6054.239247
601.970510	6008.435323
602.320988	5958.853054
602.671412	5922.592034
603.021783	5836.872254
603.372100	5743.401700
603.722363	5691.394637
604.072572	5635.745339
604.422728	5579.876752
604.772830	5501.522098
605.122878	5452.645591
605.472872	5393.243154
605.822813	5352.137586
606.172701	5288.795488
606.522534	5253.474643
606.872314	5217.218665
607.222041	5148.797604
607.571714	5124.733656
607.921333	5038.534967
608.270899	5007.771325
608.620411	4981.643025
608.969870	4918.424435
609.319276	4872.547415
609.668627	4829.954706
610.017926	4810.674813
610.367171	4778.325729
610.716362	4733.429212
611.065500	4690.836504
611.414585	4661.706196
611.763616	4635.527484
612.112594	4589.642902
612.461518	4561.788006
612.810389	4535.914284
613.159207	4489.873426
613.507971	4455.427222
613.856682	4444.964307
614.205340	4398.691556
614.553945	4398.091659
614.902496	4335.362061
615.250994	4321.493847
615.599439	4287.440852
615.947830	4264.286833
616.296169	4235.398501
616.644454	4209.872618
616.992686	4184.031663
617.340864	4177.049665
617.688990	4137.849653
618.037063	4129.816574
618.385082	4102.034776
618.733048	4085.824945
619.080961	4058.776634
619.428821	4033.177655
619.776628	4004.024662
620.124382	3972.028459
620.472083	3945.247329
620.819731	3921.574071
621.167326	3882.694172
621.514868	3854.826673
621.862357	3813.489212
622.209793	3780.867905
622.557176	3748.322216
622.904506	3709.641442
623.251783	3675.331349
623.599007	3648.792195
623.946179	3614.640898
624.293297	3593.223556
624.640363	3556.287022
624.987376	3536.225750
625.334336	3512.812111
625.681243	3483.076865
626.028097	3466.980461
626.374899	3444.363324
626.721647	3423.820622
627.068343	3406.272366
627.414987	3390.304511
627.761577	3364.592106
628.108115	3360.032382
628.454600	3333.087415
628.801032	3321.288594
629.147412	3310.074548
629.493739	3291.331538
629.840014	3274.809156
630.186236	3268.270779
630.532405	3249.890732
630.878521	3242.006368
631.224585	3230.520099
631.570597	3212.021585
631.916556	3205.959597
632.262462	3195.037937
632.608316	3183.528983
632.954117	3172.705626
633.299866	3163.699604
633.645562	3152.026813
633.991206	3132.452012
634.336797	3112.506687
634.682336	3104.723146
635.027823	3089.448449
635.373257	3074.720718
635.718639	3061.868297
636.063968	3048.693241
636.409245	3033.226981
636.754470	3025.846732
637.099642	3012.885925
