Dividing Wavelength (nm)	Counts (n)	Blue Motor Position (mm): 0.000000	Red Motor Position (mm): 26.200000	
326.493990	1985.506333
326.888308	1985.506333
327.282561	1985.506333
327.676750	1962.995061
328.070874	1964.285596
328.464933	1970.491257
328.858929	1977.868985
329.252859	1991.832981
329.646726	2005.832266
330.040528	2021.500172
330.434265	2041.921886
330.827938	2061.736141
331.221547	2082.115006
331.615091	2098.831472
332.008571	2123.417179
332.401986	2144.118677
332.795338	2162.201296
333.188625	2181.390448
333.581847	2203.352235
333.975006	2218.127857
334.368100	2239.240209
334.761129	2254.434247
335.154095	2270.006371
335.546996	2290.181069
335.939833	2312.462969
336.332606	2326.646255
336.725315	2337.583038
337.117960	2346.878926
337.510540	2353.419823
337.903056	2363.129086
338.295508	2367.988758
338.687896	2376.349512
339.080220	2384.753115
339.472480	2384.579195
339.864676	2393.106307
340.256807	2396.751061
340.648875	2394.338869
341.040879	2399.117883
341.432818	2398.452451
341.824694	2400.027811
342.216506	2401.182235
342.608253	2402.140055
342.999937	2399.243912
343.391557	2399.513613
343.783113	2395.626884
344.174605	2393.474311
344.566033	2393.081101
344.957397	2392.372819
345.348697	2388.337375
345.739934	2391.513302
346.131106	2390.535318
346.522215	2386.792262
346.913260	2383.429812
347.304241	2384.806047
347.695159	2382.855121
348.086012	2380.054760
348.476802	2378.950747
348.867528	2376.707433
349.258191	2376.248688
349.648789	2375.404295
350.039324	2373.448328
350.429796	2376.538555
350.820203	2372.919006
351.210548	2373.231558
351.600828	2372.576208
351.991045	2371.056300
352.381198	2368.782740
352.771288	2372.238451
353.161314	2372.503111
353.551276	2372.389685
353.941175	2372.311547
354.331010	2374.096116
354.720782	2371.371372
355.110490	2372.898842
355.500135	2371.996475
355.889717	2372.162833
356.279235	2376.989738
356.668689	2375.631147
357.058080	2374.854809
357.447408	2373.796167
357.836672	2372.387165
358.225873	2375.374048
358.615010	2371.794829
359.004084	2377.929913
359.393095	2378.451673
359.782043	2380.876468
360.170927	2378.204656
360.559748	2382.441746
360.948505	2384.180944
361.337199	2382.484596
361.725830	2383.351674
362.114398	2384.211191
362.502903	2385.108516
362.891344	2387.409803
363.279722	2384.813609
363.668037	2388.491131
364.056289	2388.279402
364.444478	2388.160935
364.832603	2393.582696
365.220665	2392.178735
365.608665	2393.373488
365.996601	2392.544218
366.384474	2395.442882
366.772284	2396.433468
367.160031	2397.552605
367.547715	2397.106462
367.935336	2397.020763
368.322893	2397.766854
368.710388	2396.869528
369.097820	2401.668707
369.485189	2399.420352
369.872495	2404.700961
370.259738	2403.680127
370.646918	2409.878226
371.034035	2407.410581
371.421090	2411.531724
371.808081	2412.965933
372.195010	2418.054977
372.581875	2423.612849
372.968678	2430.425969
373.355418	2436.737493
373.742096	2448.133022
374.128710	2460.370423
374.515262	2472.116311
374.901751	2484.807416
375.288177	2503.063955
375.674540	2520.771008
376.060841	2542.581560
376.447079	2564.649211
376.833254	2592.516709
377.219367	2618.138373
377.605417	2653.628097
377.991404	2678.889318
378.377329	2720.940103
378.763191	2755.146853
379.148991	2801.170067
379.534727	2849.912983
379.920402	2898.464336
380.306013	2948.109619
380.691563	3011.260153
381.077049	3068.739389
381.462474	3124.131588
381.847835	3201.712425
382.233134	3268.381685
382.618371	3329.596416
383.003545	3416.858789
383.388657	3500.698218
383.773706	3591.630552
384.158693	3664.492869
384.543618	3757.582816
384.928480	3840.444261
385.313280	3942.187349
385.698017	4051.923186
386.082692	4173.931712
386.467305	4234.914550
386.851856	4365.112430
387.236344	4520.044732
387.620770	4584.281635
388.005133	4703.315880
388.389435	4853.297769
388.773674	4941.485193
389.157851	5073.190379
389.541965	5205.908836
389.926018	5224.777875
390.310008	5409.770577
390.693936	5533.631727
391.077802	5652.512217
391.461606	5783.720849
391.845348	5898.472634
392.229027	6019.556108
392.612645	6246.773515
392.996200	6360.295258
393.379694	6540.728237
393.763125	6765.004130
394.146494	6856.647266
394.529801	6995.604151
394.913047	7243.465083
395.296230	7238.307982
395.679351	7291.759337
396.062410	7560.324287
396.445408	7449.355888
396.828343	7602.057479
397.211217	7744.127277
397.594028	7620.435006
397.976778	7833.385947
398.359466	7995.915268
398.742092	7970.308727
399.124656	8122.601984
399.507158	8309.396899
399.889598	8327.287954
400.271977	8532.442751
400.654294	8566.737721
401.036549	8767.345397
401.418742	8791.724417
401.800874	9099.552394
402.182944	9177.586935
402.564952	9544.996310
402.946898	9366.960400
403.328783	9421.336806
403.710606	9622.004976
404.092367	9879.655828
404.474067	10240.577238
404.855705	10025.715699
405.237282	9989.762190
405.618797	10419.029043
406.000250	10662.199181
406.381642	11023.571774
406.762972	10975.204423
407.144240	10773.139854
407.525447	11028.653257
407.906593	10969.210491
408.287677	11223.539223
408.668700	11381.781043
409.049661	11354.271466
409.430560	11519.964111
409.811399	11490.483443
410.192176	11653.070737
410.572891	11723.351983
410.953545	12207.675798
411.334138	11690.203876
411.714669	12289.143365
412.095139	11588.922054
412.475547	12087.996285
412.855894	11945.520674
413.236180	12268.666198
413.616405	11953.621809
413.996568	12220.981923
414.376670	12198.379910
414.756711	12075.887433
415.136691	12357.924868
415.516609	12532.540355
415.896466	12606.216818
416.276262	12896.708267
416.655997	13347.702493
417.035670	13390.166653
417.415283	14024.875648
417.794834	14113.138690
418.174324	13861.564949
418.553753	13764.109363
418.933121	14252.876954
419.312428	14057.496955
419.691674	13973.534017
420.070859	14416.164969
420.449983	14085.858486
420.829045	14629.977947
421.208047	14383.614238
421.586988	14833.534698
421.965867	15090.923411
422.344686	15081.844293
422.723444	15646.332536
423.102141	14336.539944
423.480777	15528.966913
423.859352	15027.702301
424.237866	16141.441899
424.616319	15837.853532
424.994712	16501.695356
425.373044	16290.140814
425.751314	16965.153835
426.129524	16086.480719
426.507673	17186.916713
426.885762	16874.851646
427.263789	17075.217347
427.641756	17238.737254
428.019662	17305.066236
428.397508	17347.230447
428.775292	17636.174262
429.153016	17608.029500
429.530679	17673.534253
429.908282	17697.749435
430.285824	17424.821366
430.663305	18129.894787
431.040726	17728.858396
431.418086	17556.367755
431.795385	18210.606181
432.172624	18624.159757
432.549802	18177.919339
432.926920	18367.408750
433.303977	18249.642355
433.680974	18510.900153
434.057910	18804.343198
434.434786	18822.332556
434.811601	18729.610613
435.188355	19771.894377
435.565050	19423.207847
435.941683	19376.972905
436.318257	20253.201061
436.694770	20062.736186
437.071222	20654.255096
437.447614	19723.494258
437.823946	19732.538088
438.200218	19886.416789
438.576429	19658.349948
438.952580	19944.115315
439.328670	19917.185472
439.704700	20321.221349
440.080670	19893.439116
440.456580	20476.645164
440.832429	20653.564458
441.208218	19633.875146
441.583947	20091.881617
441.959616	20193.014725
442.335224	20422.024262
442.710773	20553.313552
443.086261	21087.428843
443.461689	20446.569640
443.837057	20572.137220
444.212365	21210.758151
444.587612	21206.170701
444.962800	20760.084039
445.337927	21198.430010
445.712995	19935.794891
446.088002	21780.448865
446.462949	21957.668108
446.837837	22132.815437
447.212664	22083.828024
447.587431	24908.686473
447.962139	27829.871289
448.336786	30172.498002
448.711374	28593.810264
449.085901	24914.718213
449.460369	24844.837739
449.834776	24767.897128
450.209124	27213.166775
450.583412	26734.453764
450.957640	27226.949289
451.331808	25870.710026
451.705917	24505.195040
452.079965	24509.147304
452.453954	24844.472255
452.827883	24700.050759
453.201752	24485.365661
453.575562	24600.465286
453.949311	25667.115466
454.323001	25687.229670
454.696632	25423.476501
455.070202	26893.532415
455.443713	26974.203479
455.817164	27496.209919
456.190556	27951.834445
456.563888	27353.520059
456.937160	27715.537920
457.310373	26039.112291
457.683526	26407.718939
458.056619	26312.413405
458.429653	26186.535794
458.802628	26649.853120
459.175542	26677.168612
459.548398	27816.928127
459.921194	29201.881802
460.293930	29730.043491
460.666607	31494.245691
461.039224	33018.539379
461.411782	33241.345776
461.784280	31991.268172
462.156719	31420.861614
462.529099	30758.269997
462.901419	29463.157244
463.273680	28358.103554
463.645882	28290.035374
464.018024	28143.942736
464.390106	28742.110927
464.762130	30980.405920
465.134094	34388.465375
465.505999	38895.755988
465.877845	42811.681446
466.249631	43664.982434
466.621358	41839.600791
466.993026	39724.415816
467.364634	37637.912486
467.736184	35686.043252
468.107674	34414.228192
468.479105	33498.908409
468.850477	32685.361960
469.221790	31273.932144
469.593043	29634.248965
469.964238	28691.596045
470.335373	28404.920750
470.706449	29537.345385
471.077467	31329.457933
471.448425	34740.718521
471.819324	36784.987064
472.190164	35051.409873
472.560945	31981.465648
472.931667	29323.960904
473.302330	28209.066882
473.672934	27341.070930
474.043479	27478.870870
474.413965	26634.485163
474.784393	26116.572140
475.154761	26522.248914
475.525070	26298.507383
475.895321	25721.970782
476.265513	25884.210236
476.635645	26296.332125
477.005719	25930.898882
477.375734	25973.305068
477.745691	26157.377760
478.115588	26783.557123
478.485427	27792.052553
478.855207	29732.097761
479.224928	31187.569617
479.594591	31946.714454
479.964194	30909.930590
480.333739	30636.707613
480.703226	30290.183739
481.072653	30341.245586
481.442022	30288.225250
481.811333	30096.028739
482.180584	28919.201621
482.549777	28227.202433
482.918912	27549.550368
483.287988	27012.672524
483.657005	26178.666553
484.025964	25473.686393
484.394864	25131.397088
484.763706	24555.246136
485.132489	23748.832919
485.501213	23327.301717
485.869879	23077.439447
486.238487	22541.642931
486.607036	22314.244043
486.975527	21724.638251
487.343959	21508.450889
487.712333	21231.056357
488.080648	20877.240454
488.448905	20762.647465
488.817104	20360.144098
489.185244	20465.781477
489.553326	20876.948067
489.921350	21759.828025
490.289315	22769.591305
490.657222	22706.579403
491.025070	22480.874342
491.392861	21688.984690
491.760593	20756.182186
492.128267	19694.570638
492.495883	18754.062730
492.863440	17885.729021
493.230939	17073.800782
493.598380	16394.066721
493.965763	15981.846530
494.333088	15440.741679
494.700354	15006.791594
495.067563	14649.429239
495.434713	14352.021327
495.801805	14113.405872
496.168839	13752.938166
496.535815	13410.442173
496.902733	13160.131241
497.269593	12798.113380
497.636395	12533.097402
498.003139	12398.720405
498.369825	12028.447655
498.736453	11875.814120
499.103023	11536.892305
499.469535	11283.483584
499.835989	11078.767367
500.202385	10793.400251
500.568723	10592.636299
500.935003	10422.328478
501.301226	10177.978710
501.667390	10097.547100
502.033497	9949.720305
502.399546	9630.743816
502.765537	9315.754880
503.131470	9189.726033
503.497345	9062.746930
503.863163	8659.928491
504.228923	8572.172084
504.594625	8455.071122
504.960269	8180.207249
505.325856	8103.422915
505.691385	7844.456321
506.056856	7699.530710
506.422270	7596.698733
506.787625	7380.897019
507.152924	7240.909218
507.518164	7105.392920
507.883347	6868.773762
508.248472	6754.231184
508.613540	6662.880436
508.978550	6553.333642
509.343503	6391.711729
509.708398	6282.812724
510.073236	6200.619231
510.438016	6074.819757
510.802738	5896.647736
511.167403	5828.027550
511.532010	5734.105813
511.896561	5643.307070
512.261053	5600.769814
512.625488	5453.237926
512.989866	5338.581923
513.354186	5228.001693
513.718449	5119.069920
514.082655	5071.705759
514.446803	4961.364984
514.810894	4900.455242
515.174927	4813.719670
515.538904	4716.896748
515.902822	4675.203886
516.266684	4570.294953
516.630488	4515.331253
516.994235	4432.893264
517.357925	4390.976070
517.721558	4334.016073
518.085133	4279.218730
518.448651	4227.567068
518.812112	4156.191891
519.175516	4103.292543
519.538863	4059.230338
519.902152	4007.810569
520.265385	3973.192966
520.628560	3926.453908
520.991678	3873.463819
521.354739	3838.823530
521.717743	3802.214671
522.080690	3762.639093
522.443580	3737.456009
522.806413	3705.338818
523.169189	3668.740041
523.531908	3641.051503
523.894569	3607.205196
524.257174	3581.228131
524.619722	3560.128381
524.982213	3536.160215
525.344647	3504.766430
525.707025	3481.234323
526.069345	3464.865697
526.431608	3442.946760
526.793815	3428.128288
527.155964	3400.903537
527.518057	3381.512739
527.880093	3360.846528
528.242072	3353.660364
528.603995	3330.264369
528.965860	3312.824497
529.327669	3300.834113
529.689421	3287.885909
530.051117	3271.855040
530.412755	3258.238883
530.774337	3248.877460
531.135862	3233.640573
531.497331	3222.756722
531.858743	3211.283056
532.220098	3204.089329
532.581396	3191.461239
532.942638	3175.463137
533.303824	3174.926254
533.664953	3163.928977
534.026025	3149.690238
534.387040	3149.949857
534.747999	3138.529123
535.108902	3137.427631
535.469748	3121.847945
535.830537	3112.345370
536.191270	3108.781274
536.551947	3098.267948
536.912567	3094.522371
537.273131	3089.955085
537.633638	3076.316244
537.994089	3075.300451
538.354483	3062.291754
538.714821	3063.882238
539.075103	3066.279306
539.435328	3057.230435
539.795497	3052.340516
540.155609	3044.120915
540.515665	3047.029660
540.875665	3034.459543
541.235609	3030.177083
541.595496	3029.695653
541.955328	3033.552136
542.315102	3018.196781
542.674821	3011.663446
543.034483	3008.391737
543.394090	3005.946777
543.753640	2997.520488
544.113134	3005.598937
544.472571	2993.409428
544.831953	3002.055006
545.191278	2991.750888
545.550548	2983.332161
545.909761	2984.922645
546.268918	2983.513643
546.628019	2986.462718
546.987064	2971.092239
547.346053	2965.307515
547.704986	2969.095943
548.063863	2959.668985
548.422684	2959.921043
548.781449	2953.884261
549.140158	2960.125209
549.498811	2955.550362
549.857408	2944.946295
550.215949	2949.601801
550.574434	2945.042077
550.932864	2940.520162
551.291237	2945.364711
551.649555	2940.557971
552.007817	2939.920265
552.366022	2938.690223
552.724173	2931.877104
553.082267	2936.794749
553.440305	2938.191149
553.798288	2927.400559
554.156215	2930.084973
554.514086	2931.753595
554.871902	2922.964344
555.229661	2923.478541
555.587365	2918.218097
555.945014	2914.069228
556.302606	2912.115781
556.660143	2916.733478
557.017625	2913.098806
557.375050	2910.520255
557.732421	2909.280132
558.089735	2910.079154
558.446994	2906.051273
558.804197	2908.125707
559.161345	2908.370203
559.518437	2896.715056
559.875474	2898.749161
560.232455	2899.394429
560.589381	2897.236815
560.946251	2896.233625
561.303065	2895.800086
561.659825	2896.586506
562.016528	2890.406052
562.373177	2886.801627
562.729770	2889.644837
563.086307	2882.004969
563.442789	2886.126112
563.799216	2885.150649
564.155587	2879.340719
564.511904	2880.971532
564.868164	2879.181923
565.224370	2879.242416
565.580520	2876.530276
565.936615	2875.806870
566.292654	2872.023484
566.648638	2872.031046
567.004567	2873.866026
567.360441	2867.514172
567.716260	2866.536188
568.072023	2866.831096
568.427732	2860.902699
568.783385	2857.149560
569.138982	2857.406658
569.494525	2855.516226
569.850013	2851.115298
570.205445	2851.029599
570.560823	2847.848631
570.916145	2848.430884
571.271412	2845.237313
571.626625	2845.189422
571.981782	2841.020388
572.336884	2835.701971
572.691931	2837.932681
573.046923	2830.988492
573.401860	2828.132678
573.756743	2829.471104
574.111570	2825.551607
574.466342	2822.040444
574.821059	2818.322593
575.175722	2816.560709
575.530330	2813.462920
575.884882	2806.871612
576.239380	2805.102167
576.593823	2806.697692
576.948211	2799.279634
577.302544	2795.665127
577.656823	2793.056330
578.011047	2792.390897
578.365216	2788.594908
578.719330	2786.429733
579.073389	2781.219700
579.427394	2781.726336
579.781344	2779.248609
580.135239	2770.842485
580.489080	2770.590427
580.842866	2761.972575
581.196597	2769.022629
581.550273	2763.568100
581.903895	2757.145670
582.257463	2759.792276
582.610975	2755.058632
582.964434	2753.858838
583.317837	2750.940010
583.671186	2746.357601
584.024481	2744.686458
584.377721	2737.911148
584.730906	2737.598596
585.084037	2735.118348
585.437113	2730.974520
585.790135	2728.945456
586.143103	2727.176011
586.496016	2723.627038
586.848874	2718.653940
587.201679	2718.580843
587.554428	2709.849565
587.907124	2711.613969
588.259765	2706.524924
588.612352	2709.973073
588.964884	2703.958977
589.317362	2703.590972
589.669786	2701.335056
590.022155	2699.280786
590.374470	2698.640559
590.726731	2694.658048
591.078937	2689.596729
591.431090	2688.906091
591.783188	2685.047088
592.135232	2682.062725
592.487222	2678.861592
592.839157	2679.852179
593.191038	2674.276663
593.542866	2674.657270
593.894639	2669.081754
594.246358	2666.011691
594.598022	2663.894406
594.949633	2663.579334
595.301190	2659.717810
595.652692	2659.266627
596.004141	2658.923829
596.355535	2655.258910
596.706876	2653.434012
597.058162	2646.368835
597.409395	2651.357057
597.760573	2648.198774
598.111698	2646.131901
598.462768	2645.388331
598.813785	2644.170892
599.164748	2640.576549
599.515657	2640.185860
599.866511	2639.928761
600.217312	2640.200983
600.568060	2635.477422
600.918753	2636.742752
601.269392	2633.569345
601.619978	2632.281331
601.970510	2631.494911
602.320988	2633.644963
602.671412	2633.728142
603.021783	2629.639766
603.372100	2625.382512
603.722363	2628.515589
604.072572	2629.196144
604.422728	2626.153808
604.772830	2624.008797
605.122878	2624.056688
605.472872	2622.561986
605.822813	2618.778600
606.172701	2622.146091
606.522534	2622.720782
606.872314	2626.037862
607.222041	2622.841770
607.571714	2622.521657
607.921333	2618.191306
608.270899	2620.734568
608.620411	2622.090638
608.969870	2622.350257
609.319276	2617.155348
609.668627	2616.570575
610.017926	2622.256996
610.367171	2621.626852
610.716362	2619.504526
611.065500	2618.844135
611.414585	2620.543004
611.763616	2621.258848
612.112594	2618.884464
612.461518	2621.142901
612.810389	2623.308077
613.159207	2618.513939
613.507971	2619.123919
613.856682	2619.922942
614.205340	2621.886471
614.553945	2623.169445
614.902496	2621.500823
615.250994	2619.224742
615.599439	2620.580812
615.947830	2620.663992
616.296169	2619.617952
616.644454	2622.161214
616.992686	2622.236832
617.340864	2622.877058
617.688990	2621.624331
618.037063	2625.029631
618.385082	2621.949486
618.733048	2623.547532
619.080961	2623.381173
619.428821	2622.377984
619.776628	2622.196502
620.124382	2623.436626
620.472083	2622.456122
620.819731	2621.624331
621.167326	2619.542335
621.514868	2620.197685
621.862357	2613.843310
622.209793	2616.179885
622.557176	2612.270470
622.904506	2610.490943
623.251783	2606.692434
623.599007	2607.602362
623.946179	2605.101950
624.293297	2607.105808
624.640363	2602.888883
624.987376	2602.387288
625.334336	2603.768564
625.681243	2601.552977
626.028097	2600.232195
626.374899	2597.613316
626.721647	2600.665734
627.068343	2597.782194
627.414987	2595.453181
627.761577	2595.145671
628.108115	2595.516196
628.454600	2591.039651
628.801032	2594.523088
629.147412	2592.609970
629.493739	2591.921853
629.840014	2590.457398
630.186236	2592.652820
630.532405	2590.618715
630.878521	2589.005545
631.224585	2591.677357
631.570597	2588.486307
631.916556	2589.736513
632.262462	2588.183837
632.608316	2588.816502
632.954117	2586.958837
633.299866	2588.919846
633.645562	2584.818867
633.991206	2582.008424
634.336797	2582.956161
634.682336	2581.539597
635.027823	2578.209914
635.373257	2580.491037
635.718639	2576.581622
636.063968	2574.413926
636.409245	2574.665983
636.754470	2573.360324
637.099642	2570.121383
637.444762	2568.924109
637.789829	2567.971331
638.134845	2569.574418
638.479808	2567.258008
638.824719	2564.790363
639.169577	2566.305230
639.514383	2566.375806
639.859137	2562.358006
640.203839	2565.874211
640.548489	2559.197203
