Dividing Wavelength (nm)	Counts (n)	Blue Motor Position (mm): 0.000000	Red Motor Position (mm): 45.200000	
326.493990	1997.786584
326.888308	1997.786584
327.282561	1997.786584
327.676750	1974.388068
328.070874	1974.176340
328.464933	1981.223873
328.858929	1992.478249
329.252859	2001.854795
329.646726	2018.009173
330.040528	2031.506862
330.434265	2053.103165
330.827938	2071.210990
331.221547	2090.800914
331.615091	2111.860334
332.008571	2131.462861
332.401986	2153.255769
332.795338	2172.954077
333.188625	2193.529547
333.581847	2211.990252
333.975006	2230.143447
334.368100	2251.081880
334.761129	2264.531678
335.154095	2280.640685
335.546996	2319.205512
335.939833	2396.388098
336.332606	2411.509039
336.725315	2424.311049
337.117960	2431.250197
337.510540	2436.573656
337.903056	2449.584874
338.295508	2454.865483
338.687896	2463.732872
339.080220	2468.975672
339.472480	2476.383648
339.864676	2479.471355
340.256807	2480.537559
340.648875	2482.062508
341.040879	2485.273723
341.432818	2488.152222
341.824694	2487.179279
342.216506	2490.022490
342.608253	2489.082314
342.999937	2487.937972
343.391557	2484.252889
343.783113	2484.835142
344.174605	2484.741881
344.566033	2484.401603
344.957397	2479.688124
345.348697	2478.727784
345.739934	2475.854327
346.131106	2475.776189
346.522215	2472.557412
346.913260	2472.713688
347.304241	2467.662452
347.695159	2468.781588
348.086012	2467.985086
348.476802	2467.397791
348.867528	2465.091463
349.258191	2465.807307
349.648789	2463.828654
350.039324	2461.058540
350.429796	2464.443675
350.820203	2461.413942
351.210548	2461.633232
351.600828	2458.900926
351.991045	2460.362861
352.381198	2458.255659
352.771288	2459.679785
353.161314	2458.386729
353.551276	2459.851184
353.941175	2459.785649
354.331010	2460.327573
354.720782	2462.034003
355.110490	2462.412090
355.500135	2460.506534
355.889717	2458.386729
356.279235	2462.124744
356.668689	2460.879579
357.058080	2463.523664
357.447408	2459.649538
357.836672	2460.027624
358.225873	2461.590382
358.615010	2457.728858
359.004084	2466.694550
359.393095	2467.065075
359.782043	2467.473408
360.170927	2468.610189
360.559748	2469.154633
360.948505	2471.506332
361.337199	2472.970787
361.725830	2472.469192
362.114398	2475.093112
362.502903	2471.082875
362.891344	2477.853144
363.279722	2475.080510
363.668037	2479.345326
364.056289	2476.822228
364.444478	2477.764924
364.832603	2481.664257
365.220665	2478.931951
365.608665	2479.229379
365.996601	2480.852631
366.384474	2482.259113
366.772284	2486.425626
367.160031	2483.801706
367.547715	2487.655668
367.935336	2483.589977
368.322893	2489.372181
368.710388	2488.263127
369.097820	2491.008035
369.485189	2490.556852
369.872495	2493.319404
370.259738	2495.303098
370.646918	2499.613285
371.034035	2499.053717
371.421090	2504.682165
371.808081	2507.704337
372.195010	2513.756242
372.581875	2517.791686
372.968678	2525.010618
373.355418	2531.228881
373.742096	2544.101467
374.128710	2555.217212
374.515262	2564.263562
374.901751	2582.825091
375.288177	2598.792946
375.674540	2619.277674
376.060841	2639.757362
376.447079	2666.349448
376.833254	2689.480783
377.219367	2717.834752
377.605417	2749.720051
377.991404	2776.107970
378.377329	2817.556337
378.763191	2854.492872
379.148991	2904.216293
379.534727	2953.886781
379.920402	3004.464678
380.306013	3054.929148
380.691563	3118.722430
381.077049	3176.070596
381.462474	3235.493197
381.847835	3311.241575
382.233134	3385.281001
382.618371	3448.184519
383.003545	3534.504196
383.388657	3620.775982
383.773706	3715.794171
384.158693	3789.989873
384.543618	3888.637692
384.928480	3971.143737
385.313280	4074.189962
385.698017	4187.595759
386.082692	4308.316270
386.467305	4372.631311
386.851856	4506.239532
387.236344	4664.345240
387.620770	4728.740939
388.005133	4853.761555
388.389435	5003.594729
388.773674	5093.538996
389.157851	5228.689810
389.541965	5365.446232
389.926018	5388.706116
390.310008	5574.757460
390.693936	5703.382501
391.077802	5822.925902
391.461606	5962.061748
391.845348	6076.926959
392.229027	6201.390527
392.612645	6435.426095
392.996200	6550.520678
393.379694	6732.047587
393.763125	6965.079965
394.146494	7059.760396
394.529801	7203.466048
394.913047	7451.526105
395.296230	7448.529139
395.679351	7510.036257
396.062410	7784.476673
396.445408	7673.911566
396.828343	7840.804005
397.211217	7978.866085
397.594028	7856.479473
397.976778	8068.071823
398.359466	8234.676917
398.742092	8207.782361
399.124656	8363.473356
399.507158	8551.137870
399.889598	8572.545130
400.271977	8784.371894
400.654294	8829.379315
401.036549	9028.610757
401.418742	9058.981188
401.800874	9361.231128
402.182944	9444.183315
402.564952	9829.743364
402.946898	9639.603644
403.328783	9701.196462
403.710606	9903.538295
404.092367	10171.800776
404.474067	10543.434637
404.855705	10322.606893
405.237282	10273.253997
405.618797	10714.748169
406.000250	10968.091355
406.381642	11339.538694
406.762972	11290.024481
407.144240	11083.995044
407.525447	11345.973727
407.906593	11284.242278
408.287677	11555.791591
408.668700	11721.426262
409.049661	11681.800273
409.430560	11855.949453
409.811399	11817.787918
410.192176	11992.042963
410.572891	12065.331257
410.953545	12574.633989
411.334138	12030.975794
411.714669	12656.492245
412.095139	11927.044846
412.475547	12464.084006
412.855894	12289.216461
413.236180	12635.170685
413.616405	12304.397896
413.996568	12598.080396
414.376670	12567.349522
414.756711	12441.638268
415.136691	12730.940005
415.516609	12929.054831
415.896466	12996.671828
416.276262	13290.271148
416.655997	13722.625708
417.035670	13760.754475
417.415283	14430.824644
417.794834	14532.262742
418.174324	14261.983799
418.553753	14168.888811
418.933121	14678.557026
419.312428	14483.323220
419.691674	14385.078693
420.070859	14853.573285
420.449983	14500.569008
420.829045	15072.876080
421.208047	14800.336180
421.586988	15276.586587
421.965867	15539.742379
422.344686	15538.109045
422.723444	16117.262005
423.102141	14767.127579
423.480777	15991.064280
423.859352	15486.260778
424.237866	16623.721526
424.616319	16318.966132
424.994712	16998.475862
425.373044	16783.740352
425.751314	17472.858521
426.129524	16579.802994
426.507673	17704.464252
426.885762	17386.669914
427.263789	17600.029188
427.641756	17762.099764
428.019662	17831.191298
428.397508	17869.637658
428.775292	18183.265483
429.153016	18150.747520
429.530679	18232.091578
429.908282	18257.277183
430.285824	17970.720354
430.663305	18696.833031
431.040726	18275.848794
431.418086	18100.991331
431.795385	18767.421788
432.172624	19192.897693
432.549802	18732.673114
432.926920	18924.239481
433.303977	18818.586978
433.680974	19066.316840
434.057910	19363.432366
434.434786	19386.659482
434.811601	19309.184509
435.188355	20367.279852
435.565050	20005.826600
435.941683	19956.229208
436.318257	20862.691684
436.694770	20657.153759
437.071222	21275.229468
437.447614	20319.714044
437.823946	20352.635300
438.200218	20497.742393
438.576429	20274.510018
438.952580	20552.726258
439.328670	20522.754077
439.704700	20943.309816
440.080670	20514.781492
440.456580	21113.080754
440.832429	21294.655554
441.208218	20251.542521
441.583947	20713.350022
441.959616	20811.702933
442.335224	21070.195659
442.710773	21201.933612
443.086261	21747.215058
443.461689	21108.256370
443.837057	21225.175851
444.212365	21884.916696
444.587612	21880.480481
444.962800	21442.154675
445.337927	21879.124411
445.712995	20581.443190
446.088002	22478.709167
446.462949	22683.443027
446.837837	22858.119008
447.212664	22819.339932
447.587431	25737.749593
447.962139	28732.283198
448.336786	31129.251029
448.711374	29538.315807
449.085901	25772.931806
449.460369	25726.636370
449.834776	25655.125082
450.209124	28202.105048
450.583412	27709.836375
450.957640	28241.773888
451.331808	26864.581068
451.705917	25465.116432
452.079965	25510.358267
452.453954	25879.925255
452.827883	25760.870845
453.201752	25554.352416
453.575562	25718.928445
453.949311	26872.891411
454.323001	26936.203262
454.696632	26692.796189
455.070202	28291.681311
455.443713	28419.706454
455.817164	29032.476348
456.190556	29561.250537
456.563888	29000.117181
456.937160	29438.921897
457.310373	27732.302277
457.683526	28213.649290
458.056619	28189.744139
458.429653	28115.888714
458.802628	28716.811897
459.175542	28837.514764
459.548398	30142.127571
459.921194	31740.369945
460.293930	32431.237394
460.666607	34482.629088
461.039224	36261.841323
461.411782	36665.068096
461.784280	35465.865816
462.156719	34994.835524
462.529099	34436.298363
462.901419	33124.431336
463.273680	32043.038301
463.645882	32115.182254
464.018024	32110.884670
464.390106	32955.010758
464.762130	35702.179985
465.134094	39805.492693
465.505999	45155.371842
465.877845	49755.525550
466.249631	50936.665375
466.621358	49263.491290
466.993026	47162.661001
467.364634	45090.335916
467.736184	43101.686424
468.107674	41835.134328
468.479105	41028.519466
468.850477	40323.390592
469.221790	38871.525682
469.593043	37095.998530
469.964238	36207.593467
470.335373	36113.306246
470.706449	37884.926504
471.077467	40524.973732
471.448425	45101.227329
471.819324	47923.116538
472.190164	46047.772019
472.560945	42462.069865
472.931667	39313.060183
473.302330	38217.393121
473.672934	37377.647795
474.043479	37888.707369
474.413965	37074.371980
474.784393	36690.871242
475.154761	37611.587581
475.525070	37635.533061
475.895321	37179.459873
476.265513	37787.954868
476.635645	38753.282898
477.005719	38576.688758
477.375734	39052.593846
477.745691	39753.513356
478.115588	41118.602365
478.485427	43117.450112
478.855207	46500.749939
479.224928	49124.259662
479.594591	50755.710637
479.964194	49785.202823
480.333739	49957.635490
480.703226	49995.166880
481.072653	50642.108236
481.442022	51099.030858
481.811333	51342.584124
482.180584	50074.466751
482.549777	49553.387883
482.918912	49020.986585
483.287988	48721.922653
483.657005	47897.147034
484.025964	47251.571832
484.394864	47284.437634
484.763706	46835.414499
485.132489	45978.239384
485.501213	45790.615200
485.869879	45944.425845
486.238487	45527.671136
486.607036	45720.727164
486.975527	45184.018199
487.343959	45392.240538
487.712333	45463.575385
488.080648	45381.102108
488.448905	45847.885228
488.817104	45661.607032
489.185244	46613.916282
489.553326	48316.896189
489.921350	51032.817823
490.289315	53860.259863
490.657222	54423.560915
491.025070	54699.770775
491.392861	53822.738555
491.760593	52624.801605
492.128267	50985.635144
492.495883	49472.331171
492.863440	48071.142459
493.230939	46701.932307
493.598380	45592.823008
493.965763	45268.901147
494.333088	44454.946365
494.700354	43956.575375
495.067563	43651.855269
495.434713	43521.642265
495.801805	43590.179272
496.168839	43193.195969
496.535815	42855.312632
496.902733	42892.123138
497.269593	42474.453459
497.636395	42400.746749
498.003139	42817.566993
498.369825	42264.249947
498.736453	42579.337186
499.103023	42089.886517
499.469535	41964.691982
499.835989	42065.207549
500.202385	41723.014026
500.568723	41745.414393
500.935003	41930.296190
501.301226	41735.634554
501.667390	42357.102959
502.033497	42627.870894
502.399546	42051.961917
502.765537	41350.618950
503.131470	41738.641603
503.497345	42101.065276
503.863163	40752.793557
504.228923	41374.811447
504.594625	41791.961887
504.960269	41079.790521
505.325856	41780.765484
505.691385	41123.691410
506.056856	41267.442432
506.422270	41706.284957
506.787625	41283.720318
507.152924	41480.161480
507.518164	41588.195928
507.883347	40784.409153
508.248472	41059.499877
508.613540	41536.846735
508.978550	41861.923020
509.343503	41582.645617
509.708398	41801.751808
510.073236	42337.964219
510.438016	42354.912578
510.802738	41789.625312
511.167403	42417.019593
511.532010	42651.526509
511.896561	42964.085609
512.261053	43812.874764
512.625488	43344.536448
512.989866	43236.224737
513.354186	43065.674941
513.718449	43061.218561
514.082655	43747.642233
514.446803	43432.844861
514.810894	43947.042553
515.174927	43859.875962
515.538904	43764.948515
515.902822	44443.119818
516.266684	43873.048497
516.630488	44324.849308
516.994235	44171.510011
517.357925	44767.271052
517.721558	44920.922900
518.085133	45229.222225
518.448651	45375.100615
518.812112	45128.018541
519.175516	45242.046921
519.538863	45582.473519
519.902152	45552.483695
520.265385	46020.910231
520.628560	46059.235603
520.991678	45846.256936
521.354739	46087.735767
521.717743	46409.028666
522.080690	46301.871379
522.443580	46856.468878
522.806413	46894.237203
523.169189	46842.938421
523.531908	47018.612551
523.894569	46883.242446
524.257174	47047.697488
524.619722	47350.489352
524.982213	47338.579626
525.344647	47265.442566
525.707025	47300.080334
526.069345	47674.108744
526.431608	47617.184035
526.793815	47946.021021
527.155964	47474.073239
527.518057	47626.064027
527.880093	47395.582473
528.242072	47938.918035
528.603995	47628.438411
528.965860	47630.298597
529.327669	47720.802432
529.689421	47634.525604
530.051117	47590.619675
530.412755	47717.598778
530.774337	47790.655180
531.135862	47579.166173
531.497331	47786.876835
531.858743	47682.877831
532.220098	48026.490439
532.581396	47729.551354
532.942638	47417.400587
533.303824	47702.898774
533.664953	47668.266047
534.026025	47378.876090
534.387040	47868.099906
534.747999	47793.387485
535.108902	47961.419225
535.469748	47475.426789
535.830537	47578.238601
536.191270	47779.229405
536.551947	47432.685366
536.912567	47738.950585
537.273131	47871.442191
537.633638	47340.071808
537.994089	47702.003969
538.354483	47276.538146
538.714821	47862.463896
539.075103	48188.399698
539.435328	47948.680229
539.795497	47838.531018
540.155609	47813.990681
540.515665	48288.206982
540.875665	47742.681039
541.235609	48080.382894
541.595496	48048.028769
541.955328	48710.456549
542.315102	48080.259386
542.674821	47858.012557
543.034483	47912.353675
543.394090	47880.014673
543.753640	47847.569807
544.113134	48842.900263
544.472571	47850.831433
544.831953	49106.968505
545.191278	48311.151794
545.550548	48038.579126
545.909761	48489.492693
546.268918	48688.041058
546.628019	49014.375111
546.987064	48571.189633
547.346053	47824.216662
547.704986	48717.990553
548.063863	48245.447915
548.422684	48461.630236
548.781449	48316.508020
549.140158	48705.548986
549.498811	48549.842867
549.857408	47970.808374
550.215949	48819.378239
550.574434	48758.750803
550.932864	48512.755098
551.291237	49229.599613
551.649555	48842.708699
552.007817	49077.810471
552.366022	48728.201410
552.724173	48896.926309
553.082267	49309.630451
553.440305	49596.761971
553.798288	48905.629861
554.156215	49204.340912
554.514086	49429.405746
554.871902	49186.119661
555.229661	49202.566426
555.587365	49019.595226
555.945014	49111.654257
556.302606	49017.750164
556.660143	49275.937899
557.017625	49359.313543
557.375050	49142.727929
557.732421	49484.069498
558.089735	49480.170165
558.446994	49370.966170
558.804197	49873.780937
559.161345	49810.544703
559.518437	49047.697138
559.875474	49356.271206
560.232455	49508.496408
560.589381	49695.009018
560.946251	49388.060722
561.303065	50091.001735
561.659825	49888.284336
562.016528	49551.739426
562.373177	49264.071023
562.729770	49767.707498
563.086307	49260.093553
563.442789	49724.847608
563.799216	49779.602101
564.155587	49557.519109
564.511904	49597.709708
564.868164	49675.280463
565.224370	49922.085273
565.580520	49654.127781
565.936615	49885.287370
566.292654	49603.078537
566.648638	49840.718529
567.004567	49785.676691
567.360441	49836.751141
567.716260	49692.185972
568.072023	49969.114197
568.427732	49962.283434
568.783385	49511.415237
569.138982	49902.180277
569.494525	49856.101610
569.850013	49645.608231
570.205445	49594.004460
570.560823	49567.682075
570.916145	49456.748964
571.271412	49483.759467
571.626625	49227.953676
571.981782	49288.770156
572.336884	48986.631121
572.691931	49310.948713
573.046923	48907.232948
573.401860	48746.730171
573.756743	48751.443650
574.111570	48866.744921
574.466342	48711.492506
574.821059	48819.010235
575.175722	48343.747895
575.530330	48350.074543
575.884882	48066.423939
576.239380	48041.220691
576.593823	48006.706431
576.948211	47939.107078
577.302544	47462.786095
577.656823	47474.766397
578.011047	47688.423100
578.365216	47436.067980
578.719330	47227.810353
579.073389	47067.741115
579.427394	47161.879622
579.781344	47122.198180
580.135239	46777.632794
580.489080	46864.111267
580.842866	46348.381064
581.196597	46779.445089
581.550273	46725.776965
581.903895	46586.530213
582.257463	47034.761887
582.610975	46388.904380
582.964434	46664.133736
583.317837	46325.010275
583.671186	46145.288099
584.024481	46390.303300
584.377721	45912.343942
584.730906	46200.952520
585.084037	46237.359733
585.437113	45952.811804
585.790135	45977.301730
586.143103	45589.079952
586.496016	45707.708384
586.848874	45748.909734
587.201679	45750.684220
587.554428	45232.544346
587.907124	45416.279280
588.259765	45159.535835
588.612352	45425.575168
588.964884	44792.161749
589.317362	45108.673113
589.669786	45043.864040
590.022155	44818.547148
590.374470	45250.014464
590.726731	44761.352737
591.078937	44294.277230
591.431090	44356.419534
591.783188	44031.413825
592.135232	43697.313874
592.487222	43954.087566
592.839157	44048.024427
593.191038	43711.202253
593.542866	43457.523830
593.894639	42857.019063
594.246358	43135.547854
594.598022	43125.248777
594.949633	42724.429155
595.301190	42666.092923
595.652692	42487.005932
596.004141	42813.861745
596.355535	41817.137409
596.706876	41773.493620
597.058162	41599.079779
597.409395	42097.995213
597.760573	42174.479600
598.111698	41735.004410
598.462768	41762.183791
598.813785	41807.554176
599.164748	41234.228790
599.515657	41629.026753
599.866511	41087.742942
600.217312	41708.251007
600.568060	40658.166058
600.918753	41418.598910
601.269392	41376.026365
601.619978	41020.355318
601.970510	41232.590415
602.320988	41424.015629
602.671412	41719.084446
603.021783	41470.928607
603.372100	41117.180759
603.722363	41243.365881
604.072572	41314.247025
604.422728	41340.730727
604.772830	41140.836374
605.122878	41239.315314
605.472872	41169.407113
605.822813	41456.145423
606.172701	41268.206167
606.522534	41516.533405
606.872314	41793.658235
607.222041	41517.168591
607.571714	41909.088055
607.921333	41325.839158
608.270899	41633.921714
608.620411	41997.086437
608.969870	41793.507001
609.319276	41780.641976
609.668627	41824.245436
610.017926	42327.501304
610.367171	42490.847292
610.716362	42583.536467
611.065500	42512.141125
611.414585	42692.281717
611.763616	42999.391330
612.112594	42913.396807
612.461518	43155.132737
612.810389	43429.127010
613.159207	43274.187147
613.507971	43373.815470
613.856682	43856.924367
614.205340	43715.083941
614.553945	44424.021407
614.902496	43880.390938
615.250994	44348.522566
615.599439	44407.105815
615.947830	44617.160613
616.296169	44661.215257
616.644454	44786.049350
616.992686	44952.883816
617.340864	45469.962527
617.688990	45176.153999
618.037063	45784.659077
618.385082	45739.162663
618.733048	46039.554939
619.080961	46063.598722
619.428821	46058.013123
619.776628	46183.734459
620.124382	46014.026536
620.472083	46144.713408
620.819731	46270.785104
621.167326	45952.766434
621.514868	45911.935608
621.862357	45489.539848
622.209793	45512.043559
622.557176	45192.769642
622.904506	44943.950891
623.251783	44585.701293
623.599007	44361.811048
623.946179	44133.688754
624.293297	44095.834730
624.640363	43475.402282
624.987376	43467.933812
625.334336	43188.265720
625.681243	42838.616331
626.028097	42783.740851
626.374899	42623.154895
626.721647	42580.799120
627.068343	42456.554842
627.414987	42211.096021
627.761577	41985.711073
628.108115	42308.838952
628.454600	41737.850142
628.801032	41904.041860
629.147412	41855.901362
629.493739	41866.029040
629.840014	41481.719197
630.186236	41827.134017
630.532405	41411.495924
630.878521	41598.840324
631.224585	41472.115799
631.570597	41177.538494
631.916556	41343.896571
632.262462	41280.861984
632.608316	41278.873248
632.954117	41174.158401
633.299866	41157.847748
633.645562	41075.934039
633.991206	40588.353639
634.336797	40144.671606
634.682336	40140.701698
635.027823	39890.791537
