Dividing Wavelength (nm)	Counts (n)	Blue Motor Position (mm): 0.000000	Red Motor Position (mm): 18.800000	
326.493990	1984.750160
326.888308	1984.750160
327.282561	1984.750160
327.676750	1957.734617
328.070874	1960.419031
328.464933	1966.367593
328.858929	1975.139200
329.252859	1988.145377
329.646726	2001.280104
330.040528	2018.412465
330.434265	2037.382327
330.827938	2056.790769
331.221547	2074.185271
331.615091	2093.608836
332.008571	2117.090531
332.401986	2139.075003
332.795338	2156.880358
333.188625	2176.286280
333.581847	2197.945598
333.975006	2213.598380
334.368100	2231.870042
334.761129	2248.992321
335.154095	2264.672830
335.546996	2281.938782
335.939833	2299.093829
336.332606	2310.401137
336.725315	2321.411017
337.117960	2332.128510
337.510540	2337.071361
337.903056	2347.115860
338.295508	2353.490399
338.687896	2360.288395
339.080220	2369.927082
339.472480	2371.618389
339.864676	2375.384131
340.256807	2378.993597
340.648875	2383.031561
341.040879	2385.176572
341.432818	2384.511140
341.824694	2386.625904
342.216506	2384.092724
342.608253	2383.512991
342.999937	2384.758156
343.391557	2381.632641
343.783113	2383.954092
344.174605	2381.183978
344.566033	2378.428987
344.957397	2379.429657
345.348697	2375.336240
345.739934	2374.358256
346.131106	2369.990096
346.522215	2369.856505
346.913260	2369.949767
347.304241	2369.112935
347.695159	2366.030270
348.086012	2364.452388
348.476802	2360.825278
348.867528	2363.562625
349.258191	2361.473067
349.648789	2359.181862
350.039324	2359.151615
350.429796	2357.591378
350.820203	2359.053313
351.210548	2354.561645
351.600828	2354.806141
351.991045	2358.544156
352.381198	2355.058198
352.771288	2355.847139
353.161314	2357.992150
353.551276	2357.861080
353.941175	2353.301356
354.331010	2354.901923
354.720782	2354.528877
355.110490	2358.639938
355.500135	2359.121368
355.889717	2358.609691
356.279235	2355.539628
356.668689	2358.425689
357.058080	2356.694053
357.447408	2359.504496
357.836672	2357.419979
358.225873	2359.159177
358.615010	2355.443847
359.004084	2362.062882
359.393095	2361.783098
359.782043	2363.764271
360.170927	2364.792666
360.559748	2366.660414
360.948505	2364.918695
361.337199	2364.515403
361.725830	2366.743593
362.114398	2366.509179
362.502903	2369.841382
362.891344	2369.649818
363.279722	2369.730477
363.668037	2373.738194
364.056289	2370.920189
364.444478	2373.090406
364.832603	2370.743748
365.220665	2369.962370
365.608665	2373.244161
365.996601	2373.402957
366.384474	2374.980838
366.772284	2377.438401
367.160031	2378.660881
367.547715	2376.188195
367.935336	2378.287835
368.322893	2379.850593
368.710388	2380.682383
369.097820	2383.535676
369.485189	2381.395707
369.872495	2384.485934
370.259738	2383.021479
370.646918	2388.385266
371.034035	2389.418703
371.421090	2392.513971
371.808081	2397.345917
372.195010	2399.039745
372.581875	2405.139541
372.968678	2412.587846
373.355418	2417.923907
373.742096	2429.079981
374.128710	2439.779830
374.515262	2451.611418
374.901751	2463.846298
375.288177	2480.610655
375.674540	2499.651093
376.060841	2521.547345
376.447079	2544.318237
376.833254	2569.672720
377.219367	2595.032245
377.605417	2627.106586
377.991404	2653.509629
378.377329	2696.838347
378.763191	2729.910837
379.148991	2771.820469
379.534727	2824.722337
379.920402	2868.497197
380.306013	2918.986873
380.691563	2977.912921
381.077049	3032.317053
381.462474	3085.360074
381.847835	3157.103255
382.233134	3228.823750
382.618371	3290.063687
383.003545	3373.779609
383.388657	3454.296918
383.773706	3543.963921
384.158693	3614.121659
384.543618	3706.160526
384.928480	3781.382103
385.313280	3883.473030
385.698017	3985.405161
386.082692	4105.992081
386.467305	4169.918953
386.851856	4289.401861
387.236344	4441.165798
387.620770	4505.289275
388.005133	4628.086741
388.389435	4772.102424
388.773674	4851.924054
389.157851	4980.276872
389.541965	5112.544146
389.926018	5134.495851
390.310008	5311.382378
390.693936	5434.739412
391.077802	5545.019694
391.461606	5680.445251
391.845348	5789.218227
392.229027	5909.908491
392.612645	6131.847810
392.996200	6242.982567
393.379694	6414.964051
393.763125	6632.547813
394.146494	6723.729683
394.529801	6861.065837
394.913047	7097.352280
395.296230	7091.048317
395.679351	7149.523181
396.062410	7400.154227
396.445408	7303.064124
396.828343	7445.396062
397.211217	7577.191988
397.594028	7466.936912
397.976778	7665.918816
398.359466	7831.533323
398.742092	7804.515259
399.124656	7948.704862
399.507158	8131.151781
399.889598	8151.434864
400.271977	8360.345320
400.654294	8390.496462
401.036549	8582.118281
401.418742	8607.366900
401.800874	8905.392354
402.182944	8976.376841
402.564952	9342.183129
402.946898	9163.955655
403.328783	9219.418430
403.710606	9411.899766
404.092367	9661.832612
404.474067	10014.857054
404.855705	9810.503800
405.237282	9772.758161
405.618797	10185.250574
406.000250	10429.789386
406.381642	10786.685434
406.762972	10742.950904
407.144240	10538.131344
407.525447	10782.269383
407.906593	10722.783768
408.287677	10973.137550
408.668700	11117.014602
409.049661	11098.243865
409.430560	11257.241857
409.811399	11230.995090
410.192176	11380.614016
410.572891	11450.219747
410.953545	11919.830954
411.334138	11405.139229
411.714669	11979.306487
412.095139	11318.461630
412.475547	11796.695731
412.855894	11646.557566
413.236180	11946.123092
413.616405	11639.298305
413.996568	11907.974161
414.376670	11868.080990
414.756711	11746.538770
415.136691	12006.291784
415.516609	12167.427226
415.896466	12213.425234
416.276262	12484.132675
416.655997	12905.237900
417.035670	12919.083429
417.415283	13531.722253
417.794834	13577.238831
418.174324	13318.743585
418.553753	13179.169158
418.933121	13623.085604
419.312428	13405.227100
419.691674	13271.760031
420.070859	13660.344773
420.449983	13293.442034
420.829045	13748.234769
421.208047	13457.634935
421.586988	13821.389473
421.965867	13997.960928
422.344686	13920.090224
422.723444	14349.926728
423.102141	13092.582300
423.480777	14067.707812
423.859352	13543.460579
424.237866	14419.640844
424.616319	14068.605137
424.994712	14525.179921
425.373044	14247.593825
425.751314	14687.787379
426.129524	13848.775542
426.507673	14606.413074
426.885762	14246.159617
427.263789	14257.696298
427.641756	14254.595988
428.019662	14160.580989
428.397508	14049.978074
428.775292	14125.023211
429.153016	13939.763327
429.530679	13838.133666
429.908282	13702.609806
430.285824	13334.222448
430.663305	13660.841326
431.040726	13220.131054
431.418086	12926.166250
431.795385	13185.150487
432.172624	13281.290332
432.549802	12799.035912
432.926920	12733.258936
433.303977	12462.957308
433.680974	12438.479986
434.057910	12423.139754
434.434786	12248.998136
434.811601	11996.050680
435.188355	12395.615054
435.565050	11999.970177
435.941683	11775.580858
436.318257	12034.781865
436.694770	11730.540669
437.071222	11824.464927
437.447614	11141.065947
437.823946	10949.421442
438.200218	10817.237347
438.576429	10506.513227
438.952580	10436.574779
439.328670	10222.018230
439.704700	10199.766577
440.080670	9822.342950
440.456580	9857.855358
440.832429	9729.782324
441.208218	9140.184094
441.583947	9119.560734
441.959616	8964.893092
442.335224	8861.085652
442.710773	8715.895381
443.086261	8699.995581
443.461689	8315.282446
443.837057	8166.376844
444.212365	8172.194335
444.587612	7997.591451
444.962800	7686.736261
445.337927	7627.250646
445.712995	7129.461909
446.088002	7421.347238
446.462949	7299.958773
446.837837	7172.783065
447.212664	6990.850343
447.587431	7424.389574
447.962139	7877.702731
448.336786	8192.220319
448.711374	7695.356634
449.085901	6800.851775
449.460369	6581.659885
449.834776	6397.055352
450.209124	6638.019985
450.583412	6423.619712
450.957640	6340.980077
451.331808	5986.259287
451.705917	5631.173013
452.079965	5485.191280
452.453954	5399.824381
452.827883	5246.991719
453.201752	5096.228452
453.575562	4994.099716
453.949311	4987.261391
454.323001	4874.294174
454.696632	4735.745623
455.070202	4765.627062
455.443713	4673.348741
455.817164	4614.097539
456.190556	4541.076426
456.563888	4403.314294
456.937160	4325.400741
457.310373	4117.347280
457.683526	4047.902866
458.056619	3961.815081
458.429653	3870.983571
458.802628	3825.545131
459.175542	3758.404524
459.548398	3751.757762
459.921194	3754.694234
460.293930	3733.249166
460.666607	3755.168103
461.039224	3766.593878
461.411782	3702.412428
461.784280	3583.249633
462.156719	3491.104903
462.529099	3410.978283
462.901419	3309.109167
463.273680	3227.497927
463.645882	3182.329188
464.018024	3140.885863
464.390106	3121.293418
464.762130	3144.823004
465.134094	3213.962429
465.505999	3297.312867
465.877845	3348.944364
466.249631	3322.672391
466.621358	3240.587283
466.993026	3161.920077
467.364634	3088.488110
467.736184	3027.956455
468.107674	2981.315699
468.479105	2950.032819
468.850477	2915.669794
469.221790	2879.318034
469.593043	2838.058710
469.964238	2812.081644
470.335373	2796.650672
470.706449	2806.178453
471.077467	2818.032726
471.448425	2851.417768
471.819324	2872.446941
472.190164	2844.188753
472.560945	2797.474901
472.931667	2761.649941
473.302330	2739.574728
473.672934	2727.785990
474.043479	2721.204764
474.413965	2708.443083
474.784393	2695.643593
475.154761	2699.757175
475.525070	2694.000177
475.895321	2683.532221
476.265513	2682.549196
476.635645	2687.368539
477.005719	2682.574402
477.375734	2682.634896
477.745691	2683.718744
478.115588	2689.321986
478.485427	2698.915302
478.855207	2715.518342
479.224928	2733.094325
479.594591	2741.157651
479.964194	2730.150291
480.333739	2725.588047
480.703226	2721.766852
481.072653	2721.701317
481.442022	2721.275340
481.811333	2721.396328
482.180584	2709.907538
482.549777	2702.761703
482.918912	2697.879345
483.287988	2691.101514
483.657005	2683.038188
484.025964	2678.352436
484.394864	2675.277332
484.763706	2673.023936
485.132489	2665.111845
485.501213	2662.273675
485.869879	2659.798469
486.238487	2659.513644
486.607036	2655.768066
486.975527	2654.021307
487.343959	2654.006183
487.712333	2649.915287
488.080648	2649.577529
488.448905	2650.245482
488.817104	2646.396561
489.185244	2654.006183
489.553326	2662.729900
489.921350	2674.611899
490.289315	2691.514888
490.657222	2695.230219
491.025070	2695.383974
491.392861	2690.103365
491.760593	2683.081038
492.128267	2672.701302
492.495883	2660.141267
492.863440	2650.994094
493.230939	2647.193064
493.598380	2639.792650
493.965763	2635.442134
494.333088	2632.331742
494.700354	2625.576596
495.067563	2626.688170
495.434713	2625.208592
495.801805	2628.019035
496.168839	2623.560134
496.535815	2623.376132
496.902733	2625.080042
497.269593	2623.081225
497.636395	2622.748509
498.003139	2626.899899
498.369825	2623.257665
498.736453	2622.937552
499.103023	2621.745319
499.469535	2624.258334
499.835989	2622.821605
500.202385	2625.410238
500.568723	2620.908487
500.935003	2623.844960
501.301226	2624.006277
501.667390	2629.745630
502.033497	2631.542802
502.399546	2630.428707
502.765537	2626.305043
503.131470	2633.062709
503.497345	2632.772843
503.863163	2629.675054
504.228923	2630.169087
504.594625	2635.563122
504.960269	2635.792494
505.325856	2638.323153
505.691385	2639.938843
506.056856	2642.315747
506.422270	2645.587456
506.787625	2643.266005
507.152924	2644.344812
507.518164	2650.056439
507.883347	2647.946716
508.248472	2650.048877
508.613540	2656.100782
508.978550	2660.191679
509.343503	2660.920126
509.708398	2661.870383
510.073236	2670.828513
510.438016	2671.907320
510.802738	2669.086795
511.167403	2673.512928
511.532010	2677.049297
511.896561	2682.521470
512.261053	2690.846935
512.625488	2690.093283
512.989866	2684.890812
513.354186	2690.274764
513.718449	2687.948272
514.082655	2698.575024
514.446803	2695.762060
514.810894	2702.431507
515.174927	2705.378061
515.538904	2703.780016
515.902822	2709.446272
516.266684	2709.345449
516.630488	2712.523897
516.994235	2713.295193
517.357925	2718.520349
517.721558	2723.193499
518.085133	2724.859600
518.448651	2725.623335
518.812112	2723.042264
519.175516	2728.854715
519.538863	2729.391598
519.902152	2731.029973
520.265385	2733.064078
520.628560	2738.296796
520.991678	2735.340159
521.354739	2737.873339
521.717743	2740.479616
522.080690	2742.354925
522.443580	2744.542786
522.806413	2744.988928
523.169189	2744.280646
523.531908	2745.732498
523.894569	2748.535379
524.257174	2752.878333
524.619722	2749.891450
524.982213	2753.435381
525.344647	2752.822881
525.707025	2751.766759
526.069345	2753.130391
526.431608	2753.926893
526.793815	2756.361771
527.155964	2752.452356
527.518057	2752.260792
527.880093	2755.527460
528.242072	2755.600557
528.603995	2755.224991
528.965860	2752.822881
529.327669	2756.649117
529.689421	2755.141812
530.051117	2756.460073
530.412755	2753.276585
530.774337	2758.239601
531.135862	2755.025865
531.497331	2757.490989
531.858743	2750.642582
532.220098	2756.429826
532.581396	2750.705596
532.942638	2751.673498
533.303824	2755.494692
533.664953	2756.417223
534.026025	2750.728281
534.387040	2756.674322
534.747999	2756.787748
535.108902	2756.767584
535.469748	2752.044022
535.830537	2753.253899
536.191270	2754.851945
536.551947	2753.251379
536.912567	2753.974784
537.273131	2755.066194
537.633638	2749.967067
537.994089	2750.783734
538.354483	2750.811460
538.714821	2754.705752
539.075103	2756.938983
539.435328	2751.103847
539.795497	2749.566295
540.155609	2750.304824
540.515665	2750.902201
540.875665	2746.428177
541.235609	2747.844741
541.595496	2747.040677
541.955328	2750.481265
542.315102	2742.367528
542.674821	2741.079513
543.034483	2740.300655
543.394090	2740.237640
543.753640	2739.322671
544.113134	2742.725450
544.472571	2731.072822
544.831953	2739.398288
545.191278	2733.986609
545.550548	2727.589385
545.909761	2729.164746
546.268918	2730.782956
546.628019	2730.974520
546.987064	2722.132336
547.346053	2717.655792
547.704986	2718.817777
548.063863	2713.738815
548.422684	2714.837787
548.781449	2708.276725
549.140158	2710.547765
549.498811	2707.124821
549.857408	2699.295909
550.215949	2700.462936
550.574434	2693.964889
550.932864	2692.613860
551.291237	2692.417255
551.649555	2691.162007
552.007817	2685.916687
552.366022	2682.922242
552.724173	2680.109278
553.082267	2678.992662
553.440305	2676.812363
553.798288	2670.919254
554.156215	2670.790705
554.514086	2668.804490
554.871902	2663.342400
555.229661	2658.533139
555.587365	2654.104486
555.945014	2651.435195
556.302606	2649.534680
556.660143	2647.457724
557.017625	2643.510501
557.375050	2640.571508
557.732421	2638.512197
558.089735	2636.747793
558.446994	2630.133799
558.804197	2631.373923
559.161345	2627.666154
559.518437	2621.238683
559.875474	2620.429578
560.232455	2618.539145
560.589381	2614.788527
560.946251	2613.059411
561.303065	2611.297528
561.659825	2611.388268
562.016528	2604.890221
562.373177	2602.775457
562.729770	2603.060282
563.086307	2598.480394
563.442789	2596.466453
563.799216	2594.323963
564.155587	2591.531163
564.511904	2589.860021
564.868164	2586.227870
565.224370	2584.322313
565.580520	2582.636047
565.936615	2583.760225
566.292654	2579.933989
566.648638	2577.713361
567.004567	2577.574729
567.360441	2575.643967
567.716260	2574.164388
568.072023	2571.797567
568.427732	2569.246743
568.783385	2566.441341
569.138982	2562.163922
569.494525	2565.687688
569.850013	2560.838098
570.205445	2566.146433
570.560823	2560.306257
570.916145	2561.190979
571.271412	2561.916905
571.626625	2559.681153
571.981782	2556.280895
572.336884	2560.086966
572.691931	2555.779300
573.046923	2554.695452
573.401860	2552.144628
573.756743	2554.249310
574.111570	2551.859803
574.466342	2549.440049
574.821059	2549.830739
575.175722	2549.951727
575.530330	2547.708413
575.884882	2546.150697
576.239380	2545.399565
576.593823	2546.453166
576.948211	2542.682383
577.302544	2541.744728
577.656823	2543.632640
578.011047	2542.934440
578.365216	2541.354039
578.719330	2539.254398
579.073389	2541.018802
579.427394	2540.640715
579.781344	2540.575180
580.135239	2537.273225
580.489080	2536.375899
580.842866	2538.611651
581.196597	2536.741383
581.550273	2537.532844
581.903895	2536.847247
582.257463	2537.578214
582.610975	2531.952287
582.964434	2534.891279
583.317837	2531.377595
583.671186	2534.228368
584.024481	2533.658717
584.377721	2532.247194
584.730906	2533.537730
585.084037	2533.199972
585.437113	2530.676875
585.790135	2529.504807
586.143103	2529.356093
586.496016	2529.093953
586.848874	2523.561286
587.201679	2526.432223
587.554428	2523.243693
587.907124	2525.492048
588.259765	2522.623632
588.612352	2528.993129
588.964884	2525.882737
589.317362	2526.497758
589.669786	2523.737727
590.022155	2527.876514
590.374470	2524.388035
590.726731	2525.245032
591.078937	2523.394928
591.431090	2520.508867
591.783188	2520.907119
592.135232	2517.388393
592.487222	2520.980215
592.839157	2519.437622
593.191038	2520.256810
593.542866	2519.553569
593.894639	2516.370080
594.246358	2519.946779
594.598022	2516.281860
594.949633	2516.856552
595.301190	2515.180368
595.652692	2514.653567
596.004141	2516.496109
596.355535	2513.294976
596.706876	2512.458145
597.058162	2511.480161
597.409395	2513.204236
597.760573	2513.874709
598.111698	2511.641478
598.462768	2514.159534
598.813785	2510.096364
599.164748	2510.925634
599.515657	2509.841786
599.866511	2511.333968
600.217312	2507.416991
600.568060	2509.070489
600.918753	2512.934534
601.269392	2509.889677
601.619978	2508.984790
601.970510	2508.127794
602.320988	2510.827332
602.671412	2509.584687
603.021783	2507.129645
603.372100	2507.313647
603.722363	2508.052176
604.072572	2506.567557
604.422728	2509.352794
604.772830	2506.522186
605.122878	2502.151506
605.472872	2504.818276
605.822813	2501.289468
606.172701	2507.094357
606.522534	2505.652587
606.872314	2509.582167
607.222041	2506.514624
607.571714	2506.796929
607.921333	2505.544202
608.270899	2509.133504
608.620411	2506.479336
608.969870	2504.447751
609.319276	2505.040087
609.668627	2505.385406
610.017926	2505.881960
610.367171	2506.053359
610.716362	2505.710560
611.065500	2507.313647
611.414585	2508.604183
611.763616	2503.328615
612.112594	2505.566888
612.461518	2506.176867
612.810389	2507.520335
613.159207	2506.796929
613.507971	2506.582680
613.856682	2504.079747
614.205340	2507.946312
614.553945	2504.314161
614.902496	2506.522186
615.250994	2505.942453
615.599439	2502.393481
615.947830	2509.322547
616.296169	2506.189470
616.644454	2508.052176
616.992686	2507.293483
617.340864	2508.674759
617.688990	2505.279542
618.037063	2508.427742
618.385082	2506.670900
618.733048	2507.384223
619.080961	2507.076713
619.428821	2508.026971
619.776628	2505.687875
620.124382	2505.697958
620.472083	2506.323061
620.819731	2508.301713
621.167326	2505.965139
621.514868	2507.185098
621.862357	2503.169819
622.209793	2503.084119
622.557176	2503.066475
622.904506	2499.890548
623.251783	2495.885352
623.599007	2494.935094
623.946179	2494.670433
624.293297	2493.251349
624.640363	2494.925012
624.987376	2495.305619
625.334336	2496.828047
625.681243	2494.357882
626.028097	2494.925012
626.374899	2494.309991
626.721647	2492.643890
627.068343	2493.405104
627.414987	2492.157418
627.761577	2492.938797
628.108115	2491.832264
628.454600	2490.251862
628.801032	2489.160452
629.147412	2492.911071
629.493739	2489.145329
629.840014	2492.147336
630.186236	2488.958806
630.532405	2488.915956
630.878521	2488.449650
631.224585	2490.244300
631.570597	2487.504433
631.916556	2488.784886
632.262462	2490.133395
632.608316	2488.626090
632.954117	2485.145173
633.299866	2484.227683
633.645562	2486.481079
633.991206	2486.723054
634.336797	2482.924545
634.682336	2485.729947
635.027823	2484.754484
635.373257	2484.424288
635.718639	2480.978660
636.063968	2483.262302
636.409245	2478.485809
636.754470	2483.831953
637.099642	2478.858854
637.444762	2482.619555
637.789829	2478.120325
638.134845	2479.569657
638.479808	2478.440439
638.824719	2476.088740
639.169577	2473.910962
639.514383	2479.488999
639.859137	2477.046560
640.203839	2476.615541
640.548489	2473.195118
640.893086	2473.449696
641.237632	2468.403501
641.582125	2475.922382
641.926566	2469.104222
642.270955	2474.904069
642.615292	2472.839717
642.959576	2475.128401
