Dividing Wavelength (nm)	Counts (n)	Blue Motor Position (mm): 0.000000	Red Motor Position (mm): 18.200000	
326.493990	1981.302011
326.888308	1981.302011
327.282561	1981.302011
327.676750	1957.099431
328.070874	1959.725872
328.464933	1964.560339
328.858929	1973.740280
329.252859	1985.934831
329.646726	2001.073416
330.040528	2011.838800
330.434265	2034.513910
330.827938	2054.015614
331.221547	2073.149313
331.615091	2094.208734
332.008571	2117.745881
332.401986	2137.539972
332.795338	2156.288023
333.188625	2176.208142
333.581847	2198.396781
333.975006	2212.358256
334.368100	2230.919785
334.761129	2247.628689
335.154095	2260.334918
335.546996	2279.859306
335.939833	2298.355300
336.332606	2309.458441
336.725315	2319.502940
337.117960	2328.743375
337.510540	2335.304437
337.903056	2344.852382
338.295508	2351.637775
338.687896	2358.844105
339.080220	2367.731659
339.472480	2373.707947
339.864676	2377.428318
340.256807	2379.588453
340.648875	2382.182127
341.040879	2382.010727
341.432818	2381.514174
341.824694	2384.788403
342.216506	2386.013403
342.608253	2383.691952
342.999937	2381.970398
343.391557	2379.737167
343.783113	2378.350850
344.174605	2380.231200
344.566033	2376.810777
344.957397	2374.385982
345.348697	2375.855478
345.739934	2373.481095
346.131106	2369.473378
346.522215	2367.403984
346.913260	2365.866432
347.304241	2365.987420
347.695159	2361.999867
348.086012	2360.142202
348.476802	2360.381657
348.867528	2359.703622
349.258191	2358.982737
349.648789	2356.356295
350.039324	2357.162880
350.429796	2357.298991
350.820203	2356.789835
351.210548	2354.274299
351.600828	2354.365040
351.991045	2355.590040
352.381198	2355.763960
352.771288	2353.114833
353.161314	2353.485358
353.551276	2355.400997
353.941175	2353.235821
354.331010	2355.174145
354.720782	2354.115503
355.110490	2353.671881
355.500135	2356.938549
355.889717	2354.725482
356.279235	2358.831502
356.668689	2358.783611
357.058080	2359.169259
357.447408	2356.257993
357.836672	2353.165245
358.225873	2359.444002
358.615010	2355.857221
359.004084	2359.350741
359.393095	2360.787470
359.782043	2363.620598
360.170927	2363.706298
360.559748	2361.331914
360.948505	2362.715711
361.337199	2363.998685
361.725830	2363.991123
362.114398	2366.902389
362.502903	2366.645290
362.891344	2365.828623
363.279722	2370.894983
363.668037	2368.906248
364.056289	2368.434900
364.444478	2371.106712
364.832603	2371.976311
365.220665	2373.123173
365.608665	2371.855323
365.996601	2372.268698
366.384474	2372.762731
366.772284	2373.997813
367.160031	2374.688451
367.547715	2375.941178
367.935336	2374.849768
368.322893	2378.270191
368.710388	2376.556199
369.097820	2381.798999
369.485189	2378.786909
369.872495	2380.694986
370.259738	2383.868393
370.646918	2384.508619
371.034035	2385.499206
371.421090	2393.567572
371.808081	2391.543549
372.195010	2398.079405
372.581875	2403.304561
372.968678	2409.923596
373.355418	2416.411561
373.742096	2425.132757
374.128710	2434.950404
374.515262	2447.283587
374.901751	2461.996195
375.288177	2475.745942
375.674540	2495.542553
376.060841	2516.410409
376.447079	2540.353370
376.833254	2566.706001
377.219367	2591.727768
377.605417	2625.959724
377.991404	2650.742036
378.377329	2693.034796
378.763191	2726.470249
379.148991	2770.663524
379.534727	2819.345947
379.920402	2867.252032
380.306013	2914.273394
380.691563	2977.630616
381.077049	3032.206147
381.462474	3088.866196
381.847835	3160.518636
382.233134	3228.662433
382.618371	3287.601084
383.003545	3373.036038
383.388657	3448.852472
383.773706	3541.776061
384.158693	3614.406485
384.543618	3702.117520
384.928480	3783.506949
385.313280	3886.101992
385.698017	3989.541427
386.082692	4109.415025
386.467305	4170.213861
386.851856	4291.660298
387.236344	4448.994710
387.620770	4510.166591
388.005133	4628.555568
388.389435	4773.587044
388.773674	4854.346329
389.157851	4986.868181
389.541965	5116.960197
389.926018	5139.473990
390.310008	5317.111649
390.693936	5441.131595
391.077802	5550.257452
391.461606	5682.597823
391.845348	5797.672242
392.229027	5915.894862
392.612645	6135.623634
392.996200	6250.866932
393.379694	6424.690957
393.763125	6640.190202
394.146494	6729.665642
394.529801	6870.490274
394.913047	7109.108251
395.296230	7105.589525
395.679351	7162.327712
396.062410	7405.437356
396.445408	7306.532438
396.828343	7459.896941
397.211217	7590.843433
397.594028	7472.998900
397.976778	7680.772576
398.359466	7834.986513
398.742092	7811.582957
399.124656	7958.202396
399.507158	8140.525807
399.889598	8155.228332
400.271977	8369.943677
400.654294	8401.438286
401.036549	8593.899457
401.418742	8615.478117
401.800874	8909.919310
402.182944	8993.657916
402.564952	9346.899128
402.946898	9175.247840
403.328783	9230.851767
403.710606	9424.946272
404.092367	9675.118573
404.474067	10028.901708
404.855705	9824.102313
405.237282	9779.546075
405.618797	10192.293066
406.000250	10436.783987
406.381642	10785.006730
406.762972	10740.510985
407.144240	10543.154853
407.525447	10791.950919
407.906593	10729.173430
408.287677	10975.862294
408.668700	11128.528597
409.049661	11103.723599
409.430560	11261.539441
409.811399	11225.656508
410.192176	11389.977959
410.572891	11446.801845
410.953545	11920.761047
411.334138	11396.801161
411.714669	11981.222126
412.095139	11289.774944
412.475547	11775.570775
412.855894	11621.422373
413.236180	11922.654001
413.616405	11609.822678
413.996568	11862.971780
414.376670	11821.152888
414.756711	11683.219357
415.136691	11936.013058
415.516609	12078.304667
415.896466	12117.303033
416.276262	12359.684230
416.655997	12761.469233
417.035670	12760.304727
417.415283	13350.207947
417.794834	13384.712124
418.174324	13091.150612
418.553753	12943.336420
418.933121	13351.354809
419.312428	13105.326337
419.691674	12954.260600
420.070859	13313.972133
420.449983	12914.649734
420.829045	13342.399199
421.208047	13026.943956
421.586988	13354.805479
421.965867	13476.975322
422.344686	13385.818658
422.723444	13753.434719
423.102141	12515.347499
423.480777	13431.383127
423.859352	12889.305333
424.237866	13695.927757
424.616319	13326.121314
424.994712	13719.033886
425.373044	13423.355089
425.751314	13799.127738
426.129524	12981.893685
426.507673	13653.667764
426.885762	13280.894602
427.263789	13269.869598
427.641756	13223.823699
428.019662	13100.970780
428.397508	12956.861836
428.775292	12986.687822
429.153016	12776.038168
429.530679	12641.015903
429.908282	12472.583391
430.285824	12112.236673
430.663305	12359.976617
431.040726	11939.735950
431.418086	11651.601241
431.795385	11834.252327
432.172624	11876.338400
432.549802	11442.806731
432.926920	11348.259890
433.303977	11089.444531
433.680974	11031.877075
434.057910	10973.750050
434.434786	10798.219594
434.811601	10551.555936
435.188355	10846.453354
435.565050	10482.025822
435.941683	10252.940668
436.318257	10439.906982
436.694770	10151.999124
437.071222	10187.934989
437.447614	9602.495710
437.823946	9404.879959
438.200218	9264.463660
438.576429	8986.665836
438.952580	8891.017503
439.328670	8687.342285
439.704700	8636.242629
440.080670	8317.492992
440.456580	8312.086355
440.832429	8176.786827
441.208218	7688.586365
441.583947	7631.722149
441.959616	7490.015315
442.335224	7377.055660
442.710773	7237.249340
443.086261	7203.138373
443.461689	6888.638428
443.837057	6749.613488
444.212365	6730.779737
444.587612	6571.670839
444.962800	6327.099260
445.337927	6254.811635
445.712995	5871.663778
446.088002	6058.725873
446.462949	5950.005829
446.837837	5833.237583
447.212664	5680.989695
447.587431	5968.257327
447.962139	6263.958808
448.336786	6460.452903
448.711374	6087.004226
449.085901	5449.119303
449.460369	5275.212099
449.834776	5122.598728
450.209124	5270.475935
450.583412	5106.252786
450.957640	5032.742681
451.331808	4780.894197
451.705917	4527.344323
452.079965	4416.343156
452.453954	4338.051516
452.827883	4230.138057
453.201752	4123.578147
453.575562	4044.858009
453.949311	4030.974671
454.323001	3945.406126
454.696632	3848.646219
455.070202	3858.587374
455.443713	3790.814102
455.817164	3743.502873
456.190556	3694.439843
456.563888	3602.489197
456.937160	3549.201680
457.310373	3420.939603
457.683526	3381.550547
458.056619	3323.418482
458.429653	3263.683329
458.802628	3232.776015
459.175542	3189.631300
459.548398	3183.715506
459.921194	3189.147349
460.293930	3173.706295
460.666607	3185.240455
461.039224	3188.524767
461.411782	3154.829694
461.784280	3089.587081
462.156719	3039.092364
462.529099	2991.483707
462.901419	2937.303906
463.273680	2893.657596
463.645882	2870.115407
464.018024	2849.386183
464.390106	2839.729852
464.762130	2858.976978
465.134094	2897.403173
465.505999	2951.829991
465.877845	2991.294663
466.249631	2979.967191
466.621358	2936.600665
466.993026	2896.389901
467.364634	2855.864065
467.736184	2819.986173
468.107674	2795.947431
468.479105	2779.712395
468.850477	2763.648759
469.221790	2736.623133
469.593043	2716.972715
469.964238	2700.830941
470.335373	2693.949766
470.706449	2700.886393
471.077467	2712.206304
471.448425	2740.862743
471.819324	2760.170362
472.190164	2743.491705
472.560945	2712.092878
472.931667	2679.577436
473.302330	2667.324912
473.672934	2657.338386
474.043479	2654.285967
474.413965	2645.884884
474.784393	2638.212248
475.154761	2640.919348
475.525070	2635.600930
475.895321	2631.535240
476.265513	2628.354272
476.635645	2635.817700
477.005719	2632.175466
477.375734	2633.957514
477.745691	2635.477422
478.115588	2639.119656
478.485427	2648.763383
478.855207	2665.016063
479.224928	2677.530728
479.594591	2685.745288
479.964194	2679.378310
480.333739	2673.258350
480.703226	2674.926972
481.072653	2674.478309
481.442022	2675.889832
481.811333	2676.396468
482.180584	2666.357010
482.549777	2663.579334
482.918912	2655.866369
483.287988	2651.720020
483.657005	2647.019144
484.025964	2644.385141
484.394864	2643.008906
484.763706	2639.588483
485.132489	2635.298461
485.501213	2631.701598
485.869879	2632.941722
486.238487	2626.307563
486.607036	2627.761936
486.975527	2627.179683
487.343959	2624.396966
487.712333	2626.642800
488.080648	2623.063581
488.448905	2625.440485
488.817104	2621.722634
489.185244	2629.652369
489.553326	2639.608648
489.921350	2650.827736
490.289315	2667.511434
490.657222	2669.185097
491.025070	2669.389264
491.392861	2665.275682
491.760593	2657.988695
492.128267	2652.521563
492.495883	2641.211735
492.863440	2636.906589
493.230939	2630.844602
493.598380	2623.673560
493.965763	2616.250461
494.333088	2616.709206
494.700354	2609.520521
495.067563	2613.258537
495.434713	2608.645881
495.801805	2615.133846
496.168839	2612.777106
496.535815	2612.235182
496.902733	2610.737960
497.269593	2608.822321
497.636395	2609.555809
498.003139	2610.927003
498.369825	2610.188474
498.736453	2610.727877
499.103023	2611.363063
499.469535	2608.880294
499.835989	2610.173350
500.202385	2605.555653
500.568723	2609.394492
500.935003	2612.704010
501.301226	2612.819956
501.667390	2616.086624
502.033497	2619.456635
502.399546	2617.009155
502.765537	2614.259206
503.131470	2617.737602
503.497345	2620.590895
503.863163	2614.753239
504.228923	2618.115688
504.594625	2621.021913
504.960269	2620.971502
505.325856	2627.502317
505.691385	2625.500979
506.056856	2628.540794
506.422270	2631.799900
506.787625	2632.482977
507.152924	2635.361476
507.518164	2634.791825
507.883347	2633.912144
508.248472	2639.533030
508.613540	2643.475213
508.978550	2648.934782
509.343503	2648.914618
509.708398	2651.034423
510.073236	2655.899136
510.438016	2658.734785
510.802738	2658.898623
511.167403	2662.808038
511.532010	2665.436999
511.896561	2670.208452
512.261053	2679.307734
512.625488	2675.282373
512.989866	2673.165088
513.354186	2677.210614
513.718449	2679.653053
514.082655	2685.712520
514.446803	2685.974660
514.810894	2691.058664
515.174927	2689.894157
515.538904	2692.896164
515.902822	2699.343800
516.266684	2702.267669
516.630488	2700.326825
516.994235	2703.777495
517.357925	2705.930068
517.721558	2708.962322
518.085133	2711.251006
518.448651	2712.065152
518.812112	2711.555995
519.175516	2717.194526
519.538863	2716.690411
519.902152	2717.844835
520.265385	2720.751060
520.628560	2726.371947
520.991678	2721.857593
521.354739	2726.669375
521.717743	2729.063923
522.080690	2726.750033
522.443580	2732.554922
522.806413	2732.877556
523.169189	2733.260683
523.531908	2734.599110
523.894569	2736.119017
524.257174	2737.439800
524.619722	2739.100860
524.982213	2741.901221
525.344647	2738.937022
525.707025	2737.331415
526.069345	2738.962228
526.431608	2739.131107
526.793815	2743.675707
527.155964	2740.381313
527.518057	2741.916344
527.880093	2743.186715
528.242072	2744.351222
528.603995	2743.534555
528.965860	2741.092116
529.327669	2743.582446
529.689421	2742.549009
530.051117	2743.342991
530.412755	2741.553381
530.774337	2745.379617
531.135862	2743.857189
531.497331	2741.175295
531.858743	2737.442320
532.220098	2743.133783
532.581396	2740.013309
532.942638	2736.948287
533.303824	2741.576067
533.664953	2742.508680
534.026025	2739.443658
534.387040	2744.013464
534.747999	2743.872312
535.108902	2745.016654
535.469748	2739.552043
535.830537	2740.900552
536.191270	2743.766448
536.551947	2743.330388
536.912567	2739.330232
537.273131	2742.163361
537.633638	2735.887124
537.994089	2736.108935
538.354483	2733.845457
538.714821	2739.935171
539.075103	2737.422156
539.435328	2737.049110
539.795497	2732.645662
540.155609	2731.874366
540.515665	2734.052144
540.875665	2728.378326
541.235609	2729.774725
541.595496	2729.568038
541.955328	2730.692215
542.315102	2726.928994
542.674821	2720.869527
543.034483	2720.531770
543.394090	2721.108982
543.753640	2714.492467
544.113134	2721.159393
544.472571	2711.891232
544.831953	2716.771069
545.191278	2709.317723
545.550548	2704.672300
545.909761	2706.182125
546.268918	2705.698175
546.628019	2702.567618
546.987064	2697.861701
547.346053	2694.690815
547.704986	2694.385825
548.063863	2690.214271
548.422684	2688.570854
548.781449	2681.533404
549.140158	2682.345029
549.498811	2678.145748
549.857408	2670.324398
550.215949	2672.600479
550.574434	2664.000271
550.932864	2663.632266
551.291237	2661.630928
551.649555	2660.111020
552.007817	2656.418375
552.366022	2654.401914
552.724173	2650.442087
553.082267	2650.885709
553.440305	2648.677683
553.798288	2639.999337
554.156215	2636.588997
554.514086	2635.411887
554.871902	2632.195631
555.229661	2629.468367
555.587365	2624.273458
555.945014	2626.239508
556.302606	2620.185082
556.660143	2619.159207
557.017625	2616.883126
557.375050	2610.218721
557.732421	2609.359204
558.089735	2607.592280
558.446994	2603.292175
558.804197	2605.326281
559.161345	2599.511310
559.518437	2593.101483
559.875474	2590.447315
560.232455	2591.183324
560.589381	2590.790114
560.946251	2588.932449
561.303065	2585.801892
561.659825	2583.432550
562.016528	2579.886098
562.373177	2577.564647
562.729770	2574.638257
563.086307	2573.012485
563.442789	2572.231106
563.799216	2569.508883
564.155587	2566.519479
564.511904	2569.014850
564.868164	2564.757595
565.224370	2563.996381
565.580520	2561.808520
565.936615	2561.516133
566.292654	2559.383725
566.648638	2559.771894
567.004567	2559.131668
567.360441	2556.326266
567.716260	2553.780483
568.072023	2553.702345
568.427732	2548.305790
568.783385	2549.666901
569.138982	2546.758156
569.494525	2549.767724
569.850013	2546.329657
570.205445	2546.180943
570.560823	2546.289328
570.916145	2543.688093
571.271412	2544.577857
571.626625	2541.389327
571.981782	2540.701209
572.336884	2541.159954
572.691931	2539.337577
573.046923	2541.706919
573.401860	2538.752803
573.756743	2540.192053
574.111570	2537.792463
574.466342	2535.438245
574.821059	2534.359438
575.175722	2534.603934
575.530330	2535.879346
575.884882	2531.990095
576.239380	2530.543284
576.593823	2532.353058
576.948211	2531.861546
577.302544	2532.302647
577.656823	2531.027235
578.011047	2529.870290
578.365216	2530.921371
578.719330	2529.474560
579.073389	2526.868283
579.427394	2531.753161
579.781344	2526.356606
580.135239	2527.594209
580.489080	2526.832995
580.842866	2524.093128
581.196597	2529.179652
581.550273	2523.962058
581.903895	2524.017511
582.257463	2524.748478
582.610975	2525.320649
582.964434	2523.089938
583.317837	2523.241173
583.671186	2522.018693
584.024481	2524.456091
584.377721	2520.725637
584.730906	2521.128929
585.084037	2524.529188
585.437113	2518.802437
585.790135	2517.365708
586.143103	2519.099865
586.496016	2518.016017
586.848874	2514.787158
587.201679	2515.802950
587.554428	2513.521828
587.907124	2514.734226
588.259765	2510.822290
588.612352	2516.312107
588.964884	2512.584174
589.317362	2515.155162
589.669786	2517.274967
590.022155	2513.065604
590.374470	2513.410923
590.726731	2514.507374
591.078937	2512.667353
591.431090	2510.524862
591.783188	2509.980418
592.135232	2511.553258
592.487222	2510.280366
592.839157	2512.437980
593.191038	2510.870181
593.542866	2509.619975
593.894639	2509.904800
594.246358	2509.889677
594.598022	2507.976559
594.949633	2507.348935
595.301190	2507.447238
595.652692	2506.862464
596.004141	2507.968997
596.355535	2505.087978
596.706876	2504.548574
597.058162	2503.696619
597.409395	2501.728049
597.760573	2506.111332
598.111698	2500.951711
598.462768	2502.680827
598.813785	2500.523213
599.164748	2503.585714
599.515657	2501.274345
599.866511	2502.373317
600.217312	2501.423059
600.568060	2499.401556
600.918753	2504.286434
601.269392	2501.481032
601.619978	2501.559170
601.970510	2499.895589
602.320988	2499.968686
602.671412	2499.257883
603.021783	2497.470794
603.372100	2498.451299
603.722363	2499.237719
604.072572	2499.494818
604.422728	2502.131341
604.772830	2500.092194
605.122878	2493.211019
605.472872	2497.609426
605.822813	2495.837461
606.172701	2499.368789
606.522534	2495.953407
606.872314	2499.623367
607.222041	2497.700167
607.571714	2500.003974
607.921333	2495.724035
608.270899	2499.850219
608.620411	2497.662358
608.969870	2497.198572
609.319276	2494.982985
609.668627	2496.349138
610.017926	2496.762512
610.367171	2497.717811
610.716362	2494.710763
611.065500	2497.438027
611.414585	2499.504900
611.763616	2495.983654
612.112594	2498.410970
612.461518	2497.511124
612.810389	2496.301247
613.159207	2493.329487
613.507971	2495.517347
613.856682	2497.112872
614.205340	2496.820486
614.553945	2501.269304
614.902496	2495.376195
615.250994	2498.801659
615.599439	2496.311329
615.947830	2499.204951
616.296169	2497.097749
616.644454	2498.388284
616.992686	2497.248984
617.340864	2495.177069
617.688990	2497.480877
618.037063	2497.314519
618.385082	2500.805518
618.733048	2499.000785
619.080961	2499.930877
619.428821	2498.191679
619.776628	2499.096567
620.124382	2498.358038
620.472083	2499.343583
620.819731	2495.527430
621.167326	2498.332832
621.514868	2494.897285
621.862357	2492.631287
622.209793	2493.011894
622.557176	2493.558859
622.904506	2491.050885
623.251783	2488.391676
623.599007	2489.863693
623.946179	2489.236070
624.293297	2486.433188
624.640363	2488.772283
624.987376	2489.382263
625.334336	2487.557365
625.681243	2488.994094
626.028097	2485.094762
626.374899	2486.365132
626.721647	2486.871768
627.068343	2483.068218
627.414987	2485.475369
627.761577	2485.636686
628.108115	2485.714824
628.454600	2484.814978
628.801032	2481.457569
629.147412	2483.887405
629.493739	2482.422950
629.840014	2484.348671
630.186236	2479.730974
630.532405	2482.095275
630.878521	2483.572333
631.224585	2480.943372
631.570597	2480.560244
631.916556	2480.230048
632.262462	2479.574698
632.608316	2482.869092
632.954117	2477.651498
633.299866	2481.558392
633.645562	2480.638382
633.991206	2478.873978
634.336797	2477.147383
634.682336	2476.260140
635.027823	2474.715026
635.373257	2476.774337
635.718639	2474.929275
636.063968	2474.102526
636.409245	2473.018678
636.754470	2474.160499
637.099642	2473.207721
637.444762	2472.098667
637.789829	2472.683441
638.134845	2473.270735
638.479808	2472.136476
638.824719	2469.946094
639.169577	2473.863071
639.514383	2467.569190
639.859137	2470.979531
640.203839	2467.670013
640.548489	2469.134469
640.893086	2466.850826
641.237632	2467.546505
641.582125	2466.815538
641.926566	2462.104580
642.270955	2465.419138
642.615292	2469.136989
642.959576	2466.858388
643.303809	2465.855198
