Dividing Wavelength (nm)	Counts (n)	Blue Motor Position (mm): 0.000000	Red Motor Position (mm): 31.000000	
326.493990	1987.936169
326.888308	1987.936169
327.282561	1987.936169
327.676750	1964.469598
328.070874	1965.354321
328.464933	1971.073510
328.858929	1980.964254
329.252859	1995.177787
329.646726	2009.164468
330.040528	2024.527385
330.434265	2041.901721
330.827938	2062.005843
331.221547	2080.736250
331.615091	2102.002358
332.008571	2123.833074
332.401986	2143.044912
332.795338	2163.688437
333.188625	2184.904133
333.581847	2201.423994
333.975006	2223.113558
334.368100	2238.645353
334.761129	2256.120513
335.154095	2270.636515
335.546996	2292.605864
335.939833	2324.619711
336.332606	2338.586228
336.725315	2348.741633
337.117960	2356.812520
337.510540	2362.879548
337.903056	2373.647453
338.295508	2380.483258
338.687896	2388.743188
339.080220	2393.970865
339.472480	2400.007647
339.864676	2404.060734
340.256807	2407.740777
340.648875	2408.968297
341.040879	2412.524832
341.432818	2409.008627
341.824694	2413.616241
342.216506	2413.051632
342.608253	2413.064235
342.999937	2410.757907
343.391557	2412.328227
343.783113	2406.288924
344.174605	2407.196332
344.566033	2404.932854
344.957397	2405.295817
345.348697	2405.263049
345.739934	2400.753737
346.131106	2400.461350
346.522215	2400.156361
346.913260	2396.183931
347.304241	2393.491955
347.695159	2391.601523
348.086012	2394.356513
348.476802	2391.515823
348.867528	2391.263765
349.258191	2388.153373
349.648789	2387.253527
350.039324	2385.204298
350.429796	2388.473487
350.820203	2387.266130
351.210548	2386.303270
351.600828	2385.539535
351.991045	2389.101110
352.381198	2384.319576
352.771288	2385.395862
353.161314	2386.189844
353.551276	2383.744884
353.941175	2383.777652
354.331010	2385.201778
354.720782	2384.001983
355.110490	2386.618342
355.500135	2386.464587
355.889717	2384.644730
356.279235	2386.174720
356.668689	2384.362426
357.058080	2387.314021
357.447408	2385.398383
357.836672	2382.240100
358.225873	2386.852756
358.615010	2386.966182
359.004084	2390.401728
359.393095	2391.460370
359.782043	2393.786863
360.170927	2392.738303
360.559748	2393.892727
360.948505	2394.399363
361.337199	2395.447923
361.725830	2397.398849
362.114398	2400.915054
362.502903	2398.404560
362.891344	2399.069992
363.279722	2401.963614
363.668037	2398.674261
364.056289	2401.991341
364.444478	2403.881773
364.832603	2404.272463
365.220665	2403.924623
365.608665	2404.627864
365.996601	2406.001578
366.384474	2407.322361
366.772284	2407.057700
367.160031	2410.236148
367.547715	2410.846127
367.935336	2411.617424
368.322893	2412.933165
368.710388	2413.006262
369.097820	2413.127249
369.485189	2414.453073
369.872495	2415.864596
370.259738	2415.985584
370.646918	2422.705442
371.034035	2421.087231
371.421090	2426.582089
371.808081	2428.979158
372.195010	2434.965528
372.581875	2438.660694
372.968678	2447.734771
373.355418	2451.440019
373.742096	2465.731690
374.128710	2475.408185
374.515262	2486.055102
374.901751	2501.052534
375.288177	2520.960051
375.674540	2537.369007
376.060841	2558.042778
376.447079	2582.948599
376.833254	2612.199894
377.219367	2636.364665
377.605417	2670.664676
377.991404	2697.281968
378.377329	2739.413412
378.763191	2774.646036
379.148991	2820.475165
379.534727	2872.136910
379.920402	2921.066349
380.306013	2969.529482
380.691563	3032.097763
381.077049	3088.241093
381.462474	3146.650422
381.847835	3222.703790
382.233134	3294.182310
382.618371	3355.127339
383.003545	3441.038683
383.388657	3526.929862
383.773706	3619.382103
384.158693	3693.971016
384.543618	3788.714461
384.928480	3870.247563
385.313280	3976.845282
385.698017	4084.168926
386.082692	4203.908933
386.467305	4266.714148
386.851856	4395.828181
387.236344	4553.707037
387.620770	4617.260863
388.005133	4741.507662
388.389435	4886.304723
388.773674	4975.056758
389.157851	5111.730000
389.541965	5243.173045
389.926018	5265.767497
390.310008	5450.384633
390.693936	5576.907512
391.077802	5692.859092
391.461606	5829.925544
391.845348	5947.202948
392.229027	6066.254837
392.612645	6292.259846
392.996200	6410.348875
393.379694	6589.420742
393.763125	6815.811399
394.146494	6910.537201
394.529801	7050.580454
394.913047	7292.873432
395.296230	7289.639532
395.679351	7350.216557
396.062410	7618.423585
396.445408	7506.411668
396.828343	7671.045670
397.211217	7808.066752
397.594028	7688.425048
397.976778	7895.974393
398.359466	8059.154022
398.742092	8031.626802
399.124656	8187.065739
399.507158	8373.401909
399.889598	8397.803614
400.271977	8607.510573
400.654294	8636.648442
401.036549	8836.537754
401.418742	8862.998770
401.800874	9173.095267
402.182944	9254.446887
402.564952	9628.084607
402.946898	9442.081154
403.328783	9502.017952
403.710606	9701.309887
404.092367	9962.897881
404.474067	10329.840949
404.855705	10110.570921
405.237282	10066.896885
405.618797	10498.177679
406.000250	10748.050031
406.381642	11120.818152
406.762972	11071.470297
407.144240	10873.214319
407.525447	11125.251847
407.906593	11066.237579
408.287677	11326.325830
408.668700	11480.322998
409.049661	11457.950357
409.430560	11622.004626
409.811399	11583.706981
410.192176	11750.090263
410.572891	11828.691934
410.953545	12311.828557
411.334138	11786.081581
411.714669	12400.436918
412.095139	11704.674508
412.475547	12206.513812
412.855894	12057.099053
413.236180	12379.077549
413.616405	12054.099567
413.996568	12335.680776
414.376670	12310.699338
414.756711	12190.087212
415.136691	12477.226294
415.516609	12650.974703
415.896466	12725.966907
416.276262	13025.484542
416.655997	13466.083909
417.035670	13497.137417
417.415283	14151.738805
417.794834	14250.802520
418.174324	13990.200072
418.553753	13893.939239
418.933121	14387.679929
419.312428	14193.164487
419.691674	14112.042239
420.070859	14561.884562
420.449983	14214.937231
420.829045	14769.985913
421.208047	14516.506615
421.586988	14969.688702
421.965867	15235.360030
422.344686	15227.810903
422.723444	15796.924404
423.102141	14468.159429
423.480777	15678.593400
423.859352	15181.149983
424.237866	16297.909232
424.616319	15991.223076
424.994712	16659.274263
425.373044	16443.659072
425.751314	17130.990152
426.129524	16247.076758
426.507673	17364.045215
426.885762	17044.715845
427.263789	17239.793376
427.641756	17407.036175
428.019662	17477.924881
428.397508	17513.913678
428.775292	17823.478333
429.153016	17779.511909
429.530679	17866.376031
429.908282	17892.390906
430.285824	17595.885360
430.663305	18308.959092
431.040726	17914.151046
431.418086	17729.428046
431.795385	18393.600065
432.172624	18808.376121
432.549802	18363.156537
432.926920	18556.469664
433.303977	18435.245037
433.680974	18699.862764
434.057910	18981.696032
434.434786	19001.341408
434.811601	18918.984078
435.188355	19969.926023
435.565050	19615.061560
435.941683	19564.178673
436.318257	20452.372008
436.694770	20262.743965
437.071222	20856.279336
437.447614	19917.558517
437.823946	19953.638055
438.200218	20107.443659
438.576429	19884.244052
438.952580	20154.986781
439.328670	20121.763056
439.704700	20534.321005
440.080670	20100.552402
440.456580	20689.223060
440.832429	20877.716843
441.208218	19860.633808
441.583947	20310.224072
441.959616	20416.468910
442.335224	20657.796507
442.710773	20781.924838
443.086261	21332.184424
443.461689	20686.609221
443.837057	20803.919392
444.212365	21457.210081
444.587612	21455.465841
444.962800	21020.875530
445.337927	21456.443825
445.712995	20171.373051
446.088002	22041.439482
446.462949	22231.430488
446.837837	22419.899066
447.212664	22352.874405
447.587431	25208.851896
447.962139	28158.620055
448.336786	30565.624823
448.711374	29009.161011
449.085901	25302.365300
449.460369	25240.129735
449.834776	25155.907178
450.209124	27644.399678
450.583412	27179.244850
450.957640	27717.014978
451.331808	26357.788831
451.705917	24985.569110
452.079965	25009.537276
452.453954	25375.419181
452.827883	25260.264104
453.201752	25068.770834
453.575562	25230.763272
453.949311	26360.581630
454.323001	26402.904637
454.696632	26167.772619
455.070202	27730.636176
455.443713	27858.810033
455.817164	28459.234141
456.190556	28994.314813
456.563888	28425.029912
456.937160	28878.345590
457.310373	27197.652624
457.683526	27650.527200
458.056619	27639.756775
458.429653	27558.410196
458.802628	28140.194638
459.175542	28252.612368
459.548398	29557.603262
459.921194	31123.713321
460.293930	31794.572431
460.666607	33815.878518
461.039224	35580.904947
461.411782	35989.508110
461.784280	34805.704035
462.156719	34322.695962
462.529099	33761.048409
462.901419	32466.729638
463.273680	31393.160474
463.645882	31474.237351
464.018024	31451.068208
464.390106	32279.594446
464.762130	34984.546529
465.134094	39016.665542
465.505999	44305.027491
465.877845	48913.841901
466.249631	50114.012082
466.621358	48410.056712
466.993026	46314.517113
467.364634	44233.637191
467.736184	42243.646751
468.107674	41001.027534
468.479105	40207.582686
468.850477	39519.709682
469.221790	38072.331398
469.593043	36317.793090
469.964238	35427.419457
470.335373	35327.097974
470.706449	37047.452218
471.077467	39604.433834
471.448425	44159.081046
471.819324	46995.120774
472.190164	45169.857598
472.560945	41618.906637
472.931667	38496.819237
473.302330	37372.926755
473.672934	36547.657103
474.043479	37042.002731
474.413965	36243.030258
474.784393	35863.002875
475.154761	36750.344255
475.525070	36769.712368
475.895321	36296.973125
476.265513	36891.236943
476.635645	37852.126236
477.005719	37664.426435
477.375734	38101.255018
477.745691	38792.238414
478.115588	40113.718922
478.485427	42046.855228
478.855207	45373.114400
479.224928	47954.041497
479.594591	49589.535477
479.964194	48586.655893
480.333739	48727.788036
480.703226	48731.662163
481.072653	49327.554273
481.442022	49780.869951
481.811333	50036.527027
482.180584	48703.010765
482.549777	48164.018157
482.918912	47603.313300
483.287988	47254.155423
483.657005	46411.254335
484.025964	45729.796199
484.394864	45720.454941
484.763706	45238.253453
485.132489	44341.268346
485.501213	44124.428154
485.869879	44228.717024
486.238487	43745.098971
486.607036	43898.387857
486.975527	43293.577945
487.343959	43429.810086
487.712333	43441.003968
488.080648	43293.759426
488.448905	43674.994165
488.817104	43427.357565
489.185244	44278.072441
489.553326	45797.219112
489.921350	48346.598667
490.289315	51152.018427
490.657222	51659.876868
491.025070	51868.068960
491.392861	50842.247084
491.760593	49500.939719
492.128267	47724.091784
492.495883	46136.564383
492.863440	44665.661555
493.230939	43243.972991
493.598380	42067.539083
493.965763	41615.516461
494.333088	40711.125899
494.700354	40134.848918
495.067563	39718.535310
495.434713	39461.139036
495.801805	39368.003718
496.168839	38867.180207
496.535815	38425.098741
496.902733	38300.932602
497.269593	37750.930114
497.636395	37544.900677
498.003139	37746.932479
498.369825	37089.876048
498.736453	37207.433236
499.103023	36632.025853
499.469535	36323.466909
499.835989	36255.194562
500.202385	35766.444614
500.568723	35619.736955
500.935003	35596.101505
501.301226	35227.376390
501.667390	35579.483342
502.033497	35617.914578
502.399546	34916.553967
502.765537	34142.169722
503.131470	34276.307264
503.497345	34371.733786
503.863163	33032.402552
504.228923	33360.425392
504.594625	33469.936898
504.960269	32667.917047
505.325856	33032.944476
505.691385	32298.675213
506.056856	32170.524041
506.422270	32311.288180
506.787625	31742.227610
507.152924	31672.722702
507.518164	31520.336183
507.883347	30675.174137
508.248472	30648.692956
508.613540	30779.979726
508.978550	30769.335329
509.343503	30331.238896
509.708398	30231.930685
510.073236	30374.071059
510.438016	30115.233015
510.802738	29485.073661
511.167403	29670.008390
511.532010	29584.190307
511.896561	29543.629183
512.261053	29900.802495
512.625488	29297.880495
512.989866	28943.789849
513.354186	28571.341841
513.718449	28291.827504
514.082655	28483.187184
514.446803	27994.439757
514.810894	28069.552949
515.174927	27738.064316
515.538904	27401.907575
515.902822	27558.775679
516.266684	26928.865862
516.630488	26930.683198
516.994235	26546.048201
517.357925	26635.831151
517.721558	26463.895037
518.085133	26351.152152
518.448651	26167.628946
518.812112	25761.995023
519.175516	25541.797423
519.538863	25456.886748
519.902152	25134.545289
520.265385	25134.915813
520.628560	24870.686255
520.991678	24477.929959
521.354739	24324.154602
521.717743	24222.986206
522.080690	23887.449527
522.443580	23885.710329
522.806413	23634.476865
523.169189	23323.921623
523.531908	23152.008195
523.894569	22809.595382
524.257174	22609.648097
524.619722	22484.914827
524.982213	22212.750493
525.344647	21895.694683
525.707025	21643.959625
526.069345	21559.865617
526.431608	21251.946899
526.793815	21140.204683
527.155964	20668.229174
527.518057	20473.945626
527.880093	20116.863055
528.242072	20079.535831
528.603995	19700.914930
528.965860	19452.607857
529.327669	19249.043544
529.689421	18954.806517
530.051117	18682.924487
530.412755	18488.648500
530.774337	18280.952962
531.135862	17971.721023
531.497331	17782.259338
531.858743	17514.816044
532.220098	17399.479486
532.581396	17057.754790
532.942638	16717.602934
533.303824	16593.799757
533.664953	16365.858945
534.026025	16050.323043
534.387040	15980.984493
534.747999	15749.202321
535.108902	15590.698362
535.469748	15235.017232
535.830537	15052.686259
536.191270	14917.139714
536.551947	14614.859527
536.912567	14499.767464
537.273131	14340.809801
537.633638	13999.180887
537.994089	13899.484508
538.354483	13603.465434
538.714821	13566.448241
539.075103	13465.912510
539.435328	13222.797824
539.795497	13003.754649
540.155609	12822.633553
540.515665	12751.190320
540.875665	12432.649891
541.235609	12332.983759
541.595496	12159.260556
541.955328	12129.689148
542.315102	11828.691934
542.674821	11614.246291
543.034483	11456.468258
543.394090	11292.499687
543.753640	11134.477158
544.113134	11178.012563
544.472571	10826.926445
544.831953	10904.792107
545.191278	10609.551891
545.550548	10403.436754
545.909761	10344.551036
546.268918	10230.215146
546.628019	10139.897834
546.987064	9923.428167
547.346053	9660.781531
547.704986	9663.569289
548.063863	9457.675963
548.422684	9361.284061
548.781449	9212.489364
549.140158	9131.130182
549.498811	8986.716248
549.857408	8769.608875
550.215949	8771.038042
550.574434	8630.707442
550.932864	8480.849062
551.291237	8459.313253
551.649555	8295.720249
552.007817	8202.514355
552.366022	8044.832104
552.724173	7952.994884
553.082267	7890.131695
553.440305	7812.560941
553.798288	7620.271168
554.156215	7549.884058
554.514086	7467.675441
554.871902	7337.545617
555.229661	7241.546924
555.587365	7114.242666
555.945014	7029.480705
556.302606	6918.386277
556.660143	6852.755495
557.017625	6770.672908
557.375050	6656.450444
557.732421	6595.936433
558.089735	6503.327916
558.446994	6407.142701
558.804197	6362.982193
559.161345	6268.659684
559.518437	6121.894052
559.875474	6061.339712
560.232455	5991.323126
560.589381	5926.196459
560.946251	5826.406819
561.303065	5799.116533
561.659825	5708.095979
562.016528	5607.688798
562.373177	5517.063975
562.729770	5477.911854
563.086307	5376.269589
563.442789	5336.396583
563.799216	5277.674702
564.155587	5192.587587
564.511904	5131.534173
564.868164	5077.883693
565.224370	5023.774468
565.580520	4950.269404
565.936615	4905.020007
566.292654	4839.248073
566.648638	4794.109581
567.004567	4736.837032
567.360441	4690.128222
567.716260	4625.288901
568.072023	4591.954271
568.427732	4536.836815
568.783385	4472.577227
569.138982	4443.336014
569.494525	4395.860948
569.850013	4343.959749
570.205445	4301.868635
570.560823	4260.894136
570.916145	4215.528793
571.271412	4179.386240
571.626625	4134.121720
571.981782	4097.033951
572.336884	4052.316396
572.691931	4029.883261
573.046923	3984.754852
573.401860	3945.348152
573.756743	3914.145931
574.111570	3882.868092
574.466342	3847.842155
574.821059	3825.106551
575.175722	3783.433853
575.530330	3756.055346
575.884882	3721.929255
576.239380	3695.211140
576.593823	3670.494362
576.948211	3641.109477
577.302544	3609.037656
577.656823	3588.124429
578.011047	3571.710432
578.365216	3543.260680
578.719330	3518.385107
579.073389	3495.175634
579.427394	3483.762462
579.781344	3462.357723
580.135239	3437.777057
580.489080	3421.998245
580.842866	3395.355747
581.196597	3387.927607
581.550273	3371.606871
581.903895	3355.346630
582.257463	3349.322451
582.610975	3326.372598
582.964434	3314.566216
583.317837	3295.137609
583.671186	3280.248561
584.024481	3268.711880
584.377721	3249.016092
584.730906	3243.770772
585.084037	3234.358937
585.437113	3216.117522
585.790135	3204.865667
586.143103	3189.427133
586.496016	3180.680731
586.848874	3165.910150
587.201679	3161.592402
587.554428	3140.089360
587.907124	3138.627426
588.259765	3124.436578
588.612352	3122.672174
588.964884	3107.405039
589.317362	3100.687702
589.669786	3092.826022
590.022155	3083.235227
590.374470	3080.351687
590.726731	3064.267886
591.078937	3049.184754
591.431090	3046.412119
591.783188	3034.855274
592.135232	3025.524098
592.487222	3022.000332
592.839157	3018.191740
593.191038	3006.569360
593.542866	3001.833196
593.894639	2986.419868
594.246358	2980.468786
594.598022	2972.407981
594.949633	2966.358596
595.301190	2957.715538
595.652692	2954.035495
596.004141	2952.742439
596.355535	2936.462033
596.706876	2928.605395
597.058162	2922.407296
597.409395	2923.216401
597.760573	2919.511153
598.111698	2909.295255
598.462768	2907.646798
598.813785	2899.885941
599.164748	2895.414438
599.515657	2889.642317
599.866511	2879.197046
600.217312	2884.333982
600.568060	2870.586755
600.918753	2874.274359
601.269392	2868.620705
601.619978	2859.642410
601.970510	2857.182327
602.320988	2856.705938
602.671412	2855.957327
603.021783	2852.927593
603.372100	2843.072137
603.722363	2840.337312
604.072572	2840.271777
604.422728	2838.197342
604.772830	2827.696618
605.122878	2822.993222
605.472872	2823.509940
605.822813	2820.651606
606.172701	2817.639516
606.522534	2816.684218
606.872314	2816.560709
607.222041	2808.988896
607.571714	2808.547795
607.921333	2801.777526
608.270899	2799.932463
608.620411	2802.914306
608.969870	2795.773512
609.319276	2792.496762
609.668627	2790.780249
610.017926	2792.252266
610.367171	2789.194806
610.716362	2785.741615
611.065500	2780.360184
611.414585	2784.917387
611.763616	2778.999072
612.112594	2780.423198
612.461518	2778.409257
612.810389	2781.227262
613.159207	2774.451951
613.507971	2772.344749
613.856682	2771.802825
614.205340	2767.976589
614.553945	2771.906169
614.902496	2762.582555
615.250994	2765.592123
615.599439	2764.662031
615.947830	2766.028183
616.296169	2760.755136
616.644454	2757.314549
616.992686	2756.659199
617.340864	2759.043665
617.688990	2753.722727
618.037063	2754.037799
618.385082	2754.347830
618.733048	2754.466297
619.080961	2750.072931
619.428821	2748.414392
619.776628	2746.715523
620.124382	2743.900038
620.472083	2741.394585
620.819731	2742.869122
621.167326	2738.047259
621.514868	2737.212948
621.862357	2731.329921
622.209793	2728.433778
622.557176	2725.061247
622.904506	2720.937583
623.251783	2714.868033
623.599007	2712.365101
623.946179	2707.555840
624.293297	2707.268494
624.640363	2702.701209
624.987376	2702.807073
625.334336	2696.858511
625.681243	2695.600743
626.028097	2694.131247
626.374899	2689.654702
626.721647	2689.498427
627.068343	2687.363498
627.414987	2683.181861
627.761577	2683.741429
628.108115	2683.771676
628.454600	2679.605162
628.801032	2676.837569
629.147412	2678.488547
629.493739	2675.491581
629.840014	2674.498473
630.186236	2674.632064
630.532405	2671.168791
630.878521	2670.173163
631.224585	2670.100067
631.570597	2667.362720
631.916556	2667.100580
632.262462	2664.859787
632.608316	2663.942297
632.954117	2663.639828
633.299866	2661.893068
633.645562	2659.858963
633.991206	2656.602377
634.336797	2653.106337
634.682336	2656.468787
635.027823	2650.416882
635.373257	2649.953095
635.718639	2645.458907
636.063968	2646.104174
636.409245	2639.636374
636.754470	2639.190232
637.099642	2639.709471
637.444762	2637.027577
637.789829	2630.736217
638.134845	2632.835857
638.479808	2633.024901
638.824719	2630.590023
