Dividing Wavelength (nm)	Counts (n)	Blue Motor Position (mm): 0.000000	Red Motor Position (mm): 1.400000	
326.493990	1971.854889
326.888308	1971.854889
327.282561	1971.854889
327.676750	1949.610797
328.070874	1950.107351
328.464933	1956.229832
328.858929	1966.173508
329.252859	1978.473924
329.646726	1991.906078
330.040528	2009.184633
330.434265	2026.102745
330.827938	2044.608821
331.221547	2065.171688
331.615091	2085.427044
332.008571	2106.902359
332.401986	2127.011522
332.795338	2146.677063
333.188625	2166.604744
333.581847	2187.165090
333.975006	2204.773840
334.368100	2221.999463
334.761129	2239.852709
335.154095	2254.126737
335.546996	2268.713315
335.939833	2283.851900
336.332606	2292.840278
336.725315	2306.738739
337.117960	2312.455407
337.510540	2318.126705
337.903056	2330.762357
338.295508	2336.771413
338.687896	2342.619151
339.080220	2348.199708
339.472480	2357.009125
339.864676	2355.524505
340.256807	2361.044568
340.648875	2361.583972
341.040879	2367.033459
341.432818	2367.512369
341.824694	2367.209900
342.216506	2366.365506
342.608253	2366.481453
342.999937	2362.700588
343.391557	2362.367871
343.783113	2365.939529
344.174605	2359.812006
344.566033	2360.933663
344.957397	2357.906450
345.348697	2356.018538
345.739934	2355.872345
346.131106	2356.058867
346.522215	2353.818074
346.913260	2349.981756
347.304241	2349.835563
347.695159	2347.050325
348.086012	2342.707371
348.476802	2343.667711
348.867528	2343.113184
349.258191	2339.627226
349.648789	2339.463389
350.039324	2339.448265
350.429796	2339.594459
350.820203	2335.720332
351.210548	2335.503563
351.600828	2335.599344
351.991045	2336.433655
352.381198	2335.130517
352.771288	2339.428101
353.161314	2334.601196
353.551276	2336.577328
353.941175	2334.172698
354.331010	2336.383244
354.720782	2335.075064
355.110490	2335.669921
355.500135	2335.927019
355.889717	2336.002637
356.279235	2336.965497
356.668689	2338.591269
357.058080	2337.585559
357.447408	2335.339725
357.836672	2333.706391
358.225873	2336.292503
358.615010	2335.112873
359.004084	2338.961794
359.393095	2341.295848
359.782043	2339.541527
360.170927	2341.638647
360.559748	2343.045129
360.948505	2341.308451
361.337199	2342.591425
361.725830	2342.183091
362.114398	2343.571929
362.502903	2340.690910
362.891344	2343.040088
363.279722	2340.814418
363.668037	2342.397340
364.056289	2344.023113
364.444478	2345.653926
364.832603	2345.296004
365.220665	2345.006138
365.608665	2344.993535
365.996601	2347.753566
366.384474	2345.507732
366.772284	2348.852538
367.160031	2345.875737
367.547715	2346.488237
367.935336	2348.751715
368.322893	2347.551920
368.710388	2349.172651
369.097820	2349.833042
369.485189	2349.195336
369.872495	2350.654750
370.259738	2349.147445
370.646918	2350.175841
371.034035	2350.337158
371.421090	2348.960923
371.808081	2351.441170
372.195010	2349.679287
372.581875	2350.170800
372.968678	2353.729854
373.355418	2350.044771
373.742096	2350.770697
374.128710	2350.740450
374.515262	2352.149453
374.901751	2354.372601
375.288177	2348.555110
375.674540	2353.313959
376.060841	2354.695235
376.447079	2352.751870
376.833254	2351.398321
377.219367	2348.918073
377.605417	2354.589371
377.991404	2349.202898
378.377329	2351.678105
378.763191	2347.725840
379.148991	2353.621469
379.534727	2354.168435
379.920402	2357.283868
380.306013	2355.237159
380.691563	2354.664988
381.077049	2355.579958
381.462474	2353.896212
381.847835	2354.307066
382.233134	2354.637262
382.618371	2356.568024
383.003545	2357.704804
383.388657	2355.678260
383.773706	2354.423013
384.158693	2356.835205
384.543618	2356.734382
384.928480	2357.810668
385.313280	2359.073477
385.698017	2355.332941
386.082692	2361.566328
386.467305	2355.940400
386.851856	2358.637418
387.236344	2358.380319
387.620770	2360.447192
388.005133	2359.839733
388.389435	2362.370392
388.773674	2359.227233
389.157851	2362.614888
389.541965	2359.869980
389.926018	2357.838395
390.310008	2357.787983
390.693936	2359.179342
391.077802	2359.280165
391.461606	2361.195803
391.845348	2360.880731
392.229027	2361.324353
392.612645	2356.812520
392.996200	2362.196472
393.379694	2362.924919
393.763125	2364.074302
394.146494	2359.844774
394.529801	2362.007429
394.913047	2361.420134
395.296230	2363.139168
395.679351	2363.993643
396.062410	2362.622450
396.445408	2361.702439
396.828343	2365.604292
397.211217	2359.819568
397.594028	2360.593385
397.976778	2362.309898
398.359466	2365.735362
398.742092	2361.258818
399.124656	2368.747452
399.507158	2363.686133
399.889598	2365.470702
400.271977	2363.391226
400.654294	2364.606144
401.036549	2364.832996
401.418742	2366.080681
401.800874	2364.918695
402.182944	2367.782071
402.564952	2365.785774
402.946898	2368.444982
403.328783	2366.667976
403.710606	2365.795856
404.092367	2365.395084
404.474067	2365.251411
404.855705	2368.737369
405.237282	2367.141844
405.618797	2366.615043
406.000250	2369.564118
406.381642	2366.446165
406.762972	2368.019005
407.144240	2367.900538
407.525447	2367.376258
407.906593	2367.867770
408.287677	2369.370034
408.668700	2366.168901
409.049661	2367.444313
409.430560	2367.625795
409.811399	2369.133100
410.192176	2367.522451
410.572891	2372.281300
410.953545	2370.922709
411.334138	2370.070754
411.714669	2369.362472
412.095139	2371.207535
412.475547	2370.859695
412.855894	2369.675024
413.236180	2371.709129
413.616405	2369.894314
413.996568	2369.516228
414.376670	2370.950436
414.756711	2372.084695
415.136691	2371.946064
415.516609	2367.719056
415.896466	2371.018491
416.276262	2372.946733
416.655997	2370.499253
417.035670	2368.654190
417.415283	2372.004037
417.794834	2367.915661
418.174324	2373.496218
418.553753	2372.107381
418.933121	2372.419932
419.312428	2372.235930
419.691674	2372.772813
420.070859	2374.605272
420.449983	2375.268184
420.829045	2370.726104
421.208047	2373.415560
421.586988	2374.658204
421.965867	2373.196270
422.344686	2372.177957
422.723444	2372.167874
423.102141	2374.244830
423.480777	2372.593852
423.859352	2371.857843
424.237866	2373.730632
424.616319	2374.108719
424.994712	2376.962012
425.373044	2375.351363
425.751314	2372.946733
426.129524	2374.073431
426.507673	2375.323637
426.885762	2375.177443
427.263789	2376.694831
427.641756	2373.718029
428.019662	2375.663915
428.397508	2375.580736
428.775292	2377.350181
429.153016	2379.026364
429.530679	2379.701879
429.908282	2375.497557
430.285824	2376.223483
430.663305	2378.050901
431.040726	2375.406816
431.418086	2377.811446
431.795385	2376.094933
432.172624	2377.939996
432.549802	2377.740870
432.926920	2376.634337
433.303977	2376.321785
433.680974	2376.820859
434.057910	2378.146683
434.434786	2376.904038
434.811601	2378.998638
435.188355	2375.041332
435.565050	2377.811446
435.941683	2379.850593
436.318257	2377.405633
436.694770	2372.946733
437.071222	2376.911600
437.447614	2373.496218
437.823946	2374.285159
438.200218	2376.583925
438.576429	2379.333875
438.952580	2379.104502
439.328670	2378.698689
439.704700	2378.486961
440.080670	2378.108874
440.456580	2379.522918
440.832429	2379.843031
441.208218	2379.616179
441.583947	2381.965357
441.959616	2378.706251
442.335224	2376.823380
442.710773	2378.600387
443.086261	2378.522249
443.461689	2377.120808
443.837057	2380.705068
444.212365	2376.571322
444.587612	2378.814636
444.962800	2378.441590
445.337927	2382.197250
445.712995	2378.423946
446.088002	2378.595346
446.462949	2381.809081
446.837837	2381.506612
447.212664	2378.229862
447.587431	2376.009234
447.962139	2378.129039
448.336786	2380.652136
448.711374	2377.188864
449.085901	2379.681714
449.460369	2377.105685
449.834776	2381.952754
450.209124	2382.093906
450.583412	2378.890253
450.957640	2382.209853
451.331808	2383.394524
451.705917	2381.597353
452.079965	2383.233207
452.453954	2380.821015
452.827883	2382.837477
453.201752	2383.150028
453.575562	2380.745398
453.949311	2382.270347
454.323001	2382.330841
454.696632	2381.360418
455.070202	2383.676829
455.443713	2382.870244
455.817164	2377.440921
456.190556	2378.194574
456.563888	2381.705738
456.937160	2378.018133
457.310373	2382.414020
457.683526	2383.011396
458.056619	2383.507950
458.429653	2381.912425
458.802628	2384.813609
459.175542	2381.693135
459.548398	2383.129863
459.921194	2383.134905
460.293930	2385.353012
460.666607	2381.403268
461.039224	2382.504760
461.411782	2382.451828
461.784280	2385.005173
462.156719	2381.766231
462.529099	2384.831253
462.901419	2381.456200
463.273680	2384.748074
463.645882	2386.083980
464.018024	2384.932076
464.390106	2381.443598
464.762130	2384.415358
465.134094	2386.242776
465.505999	2383.008876
465.877845	2385.831922
466.249631	2385.826881
466.621358	2383.918804
466.993026	2387.901316
467.364634	2389.532129
467.736184	2386.071377
468.107674	2384.148177
468.479105	2385.665564
468.850477	2385.279916
469.221790	2384.153218
469.593043	2385.017776
469.964238	2386.852756
470.335373	2384.236397
470.706449	2384.823691
471.077467	2384.128012
471.448425	2383.621376
471.819324	2384.992570
472.190164	2386.963661
472.560945	2384.674977
472.931667	2383.845707
473.302330	2384.153218
473.672934	2385.284957
474.043479	2384.369987
474.413965	2386.162117
474.784393	2383.041643
475.154761	2384.775800
475.525070	2381.824205
475.895321	2380.931920
476.265513	2380.717671
476.635645	2385.433671
477.005719	2383.996942
477.375734	2388.317211
477.745691	2387.598846
478.115588	2386.683877
478.485427	2385.078269
478.855207	2383.349154
479.224928	2386.701521
479.594591	2387.329145
479.964194	2387.467776
480.333739	2387.205636
480.703226	2386.114227
481.072653	2386.081459
481.442022	2387.402241
481.811333	2387.293857
482.180584	2385.690770
482.549777	2385.844525
482.918912	2387.848383
483.287988	2389.716131
483.657005	2384.927035
484.025964	2385.899978
484.394864	2386.991387
484.763706	2390.646224
485.132489	2386.346120
485.501213	2388.334855
485.869879	2385.708414
486.238487	2389.527088
486.607036	2388.148332
486.975527	2388.589433
487.343959	2387.649258
487.712333	2386.888044
488.080648	2389.779145
488.448905	2388.901985
488.817104	2386.693959
489.185244	2389.164125
489.553326	2387.278733
489.921350	2387.470297
490.289315	2387.951727
490.657222	2387.611449
491.025070	2389.007849
491.392861	2387.941645
491.760593	2388.125647
492.128267	2386.908208
492.495883	2388.279402
492.863440	2388.531460
493.230939	2386.847714
493.598380	2389.146481
493.965763	2380.667260
494.333088	2385.312683
494.700354	2384.571633
495.067563	2386.751933
495.434713	2382.285470
495.801805	2389.375853
496.168839	2387.354350
496.535815	2388.228991
496.902733	2386.726727
497.269593	2387.863507
497.636395	2388.292005
498.003139	2390.837788
498.369825	2388.450801
498.736453	2389.149001
499.103023	2390.404248
499.469535	2388.886861
499.835989	2388.604557
500.202385	2388.319731
500.568723	2388.261758
500.935003	2387.442571
501.301226	2390.394166
501.667390	2387.399721
502.033497	2390.409290
502.399546	2388.334855
502.765537	2388.319731
503.131470	2387.061963
503.497345	2387.780328
503.863163	2390.883158
504.228923	2388.465925
504.594625	2387.571120
504.960269	2386.928373
505.325856	2389.138919
505.691385	2388.919629
506.056856	2390.305946
506.422270	2389.711090
506.787625	2390.172355
507.152924	2389.643034
507.518164	2391.984650
507.883347	2391.815772
508.248472	2388.748229
508.613540	2389.259907
508.978550	2390.991543
509.343503	2390.462222
509.708398	2390.368960
510.073236	2390.699156
510.438016	2390.855432
510.802738	2391.727551
511.167403	2389.068343
511.532010	2390.852911
511.896561	2390.673950
512.261053	2387.659340
512.625488	2386.177241
512.989866	2385.708414
513.354186	2389.222098
513.718449	2388.052550
514.082655	2390.968858
514.446803	2389.000287
514.810894	2392.161091
515.174927	2391.475494
515.538904	2391.659496
515.902822	2390.787376
516.266684	2390.124464
516.630488	2388.637324
516.994235	2392.932387
517.357925	2392.455998
517.721558	2388.896943
518.085133	2388.528939
518.448651	2388.967520
518.812112	2390.739485
519.175516	2391.561193
519.538863	2390.805020
519.902152	2389.239742
520.265385	2389.816954
520.628560	2389.186810
520.991678	2389.809392
521.354739	2390.943652
521.717743	2389.733775
522.080690	2387.966851
522.443580	2388.780997
522.806413	2390.091697
523.169189	2392.070350
523.531908	2389.988353
523.894569	2391.011708
524.257174	2389.733775
524.619722	2389.171686
524.982213	2391.208313
525.344647	2388.642365
525.707025	2393.512120
526.069345	2390.195041
526.431608	2390.474825
526.793815	2390.789897
527.155964	2392.942469
527.518057	2390.452139
527.880093	2392.135885
528.242072	2391.150339
528.603995	2391.019269
528.965860	2391.639331
529.327669	2393.668396
529.689421	2391.813251
530.051117	2391.732592
530.412755	2388.453322
530.774337	2390.721841
531.135862	2392.153529
531.497331	2390.895761
531.858743	2390.240411
532.220098	2391.309136
532.581396	2385.650440
532.942638	2387.929042
533.303824	2391.677140
533.664953	2391.583878
534.026025	2391.533467
534.387040	2392.040103
534.747999	2390.742006
535.108902	2392.677809
535.469748	2389.998436
535.830537	2391.588920
536.191270	2391.626728
536.551947	2392.105638
536.912567	2392.151008
537.273131	2393.738972
537.633638	2391.566234
537.994089	2390.749568
538.354483	2390.184958
538.714821	2392.498848
539.075103	2390.628580
539.435328	2389.690925
539.795497	2391.067160
540.155609	2390.961296
540.515665	2389.695966
540.875665	2390.936090
541.235609	2390.963817
541.595496	2390.449619
541.955328	2389.174207
542.315102	2393.161760
542.674821	2390.525236
543.034483	2391.357027
543.394090	2391.039434
543.753640	2391.946842
544.113134	2390.094218
544.472571	2391.619167
544.831953	2392.327449
545.191278	2394.275855
545.550548	2392.687891
545.909761	2391.886348
546.268918	2391.538508
546.628019	2391.357027
546.987064	2392.340052
547.346053	2391.624208
547.704986	2390.202602
548.063863	2390.424413
548.422684	2389.577499
548.781449	2392.093035
549.140158	2390.810061
549.498811	2392.060268
549.857408	2390.840308
550.215949	2390.086656
550.574434	2389.481717
550.932864	2389.723693
551.291237	2387.389638
551.649555	2391.185627
552.007817	2390.532798
552.366022	2392.955072
552.724173	2389.499361
553.082267	2390.623539
553.440305	2391.815772
553.798288	2395.210989
554.156215	2392.965155
554.514086	2394.371637
554.871902	2392.309805
555.229661	2391.785525
555.587365	2392.627397
555.945014	2392.138405
556.302606	2391.699825
556.660143	2394.094373
557.017625	2392.211502
557.375050	2390.714279
557.732421	2391.535988
558.089735	2391.314177
558.446994	2392.922305
558.804197	2391.682181
559.161345	2393.983468
559.518437	2389.592623
559.875474	2390.840308
560.232455	2390.555483
560.589381	2392.715617
560.946251	2390.913405
561.303065	2391.246121
561.659825	2395.153015
562.016528	2392.866852
562.373177	2393.519682
562.729770	2390.326111
563.086307	2390.772253
563.442789	2391.709907
563.799216	2393.222253
564.155587	2391.165463
564.511904	2390.711759
564.868164	2392.811399
565.224370	2392.408107
565.580520	2390.991543
565.936615	2392.496327
566.292654	2394.522871
566.648638	2395.606719
567.004567	2393.118910
567.360441	2391.445247
567.716260	2392.087994
568.072023	2392.990360
568.427732	2387.961809
568.783385	2390.452139
569.138982	2387.308980
569.494525	2388.904505
569.850013	2387.563558
570.205445	2392.924825
570.560823	2393.093704
570.916145	2392.352654
571.271412	2390.736965
571.626625	2392.675288
571.981782	2394.699312
572.336884	2391.941800
572.691931	2395.790721
573.046923	2393.471791
573.401860	2390.734444
573.756743	2393.567572
574.111570	2393.829712
574.466342	2392.710576
574.821059	2391.142778
575.175722	2393.718807
575.530330	2390.258055
575.884882	2392.372819
576.239380	2394.885834
576.593823	2391.556152
576.948211	2392.455998
577.302544	2392.939949
577.656823	2391.125133
578.011047	2392.123282
578.365216	2392.869373
578.719330	2394.699312
579.073389	2391.669578
579.427394	2393.096225
579.781344	2392.549259
580.135239	2394.779970
580.489080	2392.450957
580.842866	2394.681667
581.196597	2391.697304
581.550273	2395.727707
581.903895	2392.955072
582.257463	2393.650752
582.610975	2391.210833
582.964434	2392.955072
583.317837	2393.244939
583.671186	2392.597150
584.024481	2392.967675
584.377721	2391.435164
584.730906	2391.692263
585.084037	2391.508261
585.437113	2393.658313
585.790135	2391.397356
586.143103	2390.232849
586.496016	2391.644372
586.848874	2387.954248
587.201679	2393.857439
587.554428	2389.025493
587.907124	2392.304763
588.259765	2390.222767
588.612352	2390.525236
588.964884	2391.147819
589.317362	2390.565565
589.669786	2391.193189
590.022155	2392.312325
590.374470	2392.042623
590.726731	2391.210833
591.078937	2392.377860
591.431090	2392.803838
591.783188	2392.796276
592.135232	2391.936759
592.487222	2393.431461
592.839157	2394.268293
593.191038	2392.350134
593.542866	2393.255021
593.894639	2392.708056
594.246358	2393.053375
594.598022	2392.188817
594.949633	2392.138405
595.301190	2393.461708
595.652692	2389.869886
596.004141	2391.624208
596.355535	2394.444733
596.706876	2390.684033
597.058162	2392.148488
597.409395	2392.261914
597.760573	2393.262583
598.111698	2390.989022
598.462768	2393.219733
598.813785	2393.746533
599.164748	2394.225443
599.515657	2393.184445
599.866511	2392.075391
600.217312	2392.962634
600.568060	2395.757954
600.918753	2396.761143
601.269392	2391.901471
601.619978	2392.181255
601.970510	2395.589075
602.320988	2390.568086
602.671412	2394.038920
603.021783	2392.995402
603.372100	2394.038920
603.722363	2393.907850
604.072572	2392.037582
604.422728	2392.166132
604.772830	2388.382746
605.122878	2388.105482
605.472872	2390.462222
605.822813	2389.194372
606.172701	2394.926163
606.522534	2393.136554
606.872314	2393.197048
607.222041	2391.573796
607.571714	2393.486914
607.921333	2389.499361
608.270899	2393.078581
608.620411	2393.764177
608.969870	2393.557490
609.319276	2394.671585
609.668627	2394.560680
610.017926	2391.848539
610.367171	2391.838457
610.716362	2392.493807
611.065500	2392.251831
611.414585	2390.051368
611.763616	2391.846018
612.112594	2394.575803
612.461518	2388.881820
612.810389	2390.429454
613.159207	2392.844167
613.507971	2394.200237
613.856682	2394.986657
614.205340	2389.973230
614.553945	2393.197048
614.902496	2394.709394
615.250994	2391.576317
615.599439	2393.542367
615.947830	2394.187634
616.296169	2391.977088
616.644454	2394.210320
616.992686	2391.876265
617.340864	2391.709907
617.688990	2392.592109
618.037063	2390.666388
618.385082	2391.281409
618.733048	2394.104455
619.080961	2391.898951
619.428821	2393.668396
619.776628	2391.830895
620.124382	2393.428941
620.472083	2393.166801
620.819731	2390.704197
621.167326	2394.326266
621.514868	2396.251987
621.862357	2392.377860
622.209793	2393.111348
622.557176	2392.723179
622.904506	2391.523385
623.251783	2387.276212
623.599007	2389.474156
623.946179	2388.733106
624.293297	2390.411810
624.640363	2393.496996
624.987376	2392.042623
625.334336	2391.911553
625.681243	2393.479352
626.028097	2391.871224
626.374899	2394.013715
626.721647	2394.727038
627.068343	2393.895247
627.414987	2392.284599
627.761577	2395.170659
628.108115	2392.690412
628.454600	2390.668909
628.801032	2392.521533
629.147412	2392.486245
629.493739	2394.719476
629.840014	2390.237890
630.186236	2391.442726
630.532405	2391.798128
630.878521	2391.949362
631.224585	2391.893909
631.570597	2392.433313
631.916556	2393.202089
632.262462	2390.787376
632.608316	2393.920453
632.954117	2391.364588
633.299866	2392.876934
633.645562	2392.576986
633.991206	2391.488097
634.336797	2388.203785
634.682336	2393.446585
635.027823	2392.355175
635.373257	2393.005484
635.718639	2391.876265
636.063968	2392.589589
636.409245	2390.094217
636.754470	2390.210164
637.099642	2388.929711
637.444762	2393.943138
637.789829	2390.797458
638.134845	2393.275186
638.479808	2391.248642
638.824719	2392.745864
639.169577	2392.667727
639.514383	2389.448950
639.859137	2392.614794
640.203839	2390.757129
640.548489	2393.496996
640.893086	2391.480535
641.237632	2388.284443
641.582125	2391.883827
641.926566	2387.903836
642.270955	2392.614794
642.615292	2391.412479
642.959576	2391.006666
643.303809	2391.349465
643.647990	2391.571276
643.992118	2393.925494
644.336195	2389.116234
