Dividing Wavelength (nm)	Counts (n)	Blue Motor Position (mm): 0.000000	Red Motor Position (mm): 16.000000	
326.493990	1982.058184
326.888308	1982.058184
327.282561	1982.058184
327.676750	1959.070522
328.070874	1957.164966
328.464933	1965.959259
328.858929	1972.696761
329.252859	1984.745119
329.646726	2001.391009
330.040528	2013.981291
330.434265	2037.830990
330.827938	2053.478731
331.221547	2075.291804
331.615091	2096.310895
332.008571	2113.206322
332.401986	2138.107101
332.795338	2154.919349
333.188625	2174.627740
333.581847	2194.767150
333.975006	2212.945551
334.368100	2230.713098
334.761129	2247.089286
335.154095	2263.072264
335.546996	2276.169182
335.939833	2295.824641
336.332606	2310.386013
336.725315	2319.996973
337.117960	2325.640545
337.510540	2332.879642
337.903056	2343.662670
338.295508	2348.171982
338.687896	2358.602129
339.080220	2364.696884
339.472480	2369.007071
339.864676	2374.685931
340.256807	2375.303472
340.648875	2378.542413
341.040879	2379.341436
341.432818	2380.881509
341.824694	2382.197250
342.216506	2379.739687
342.608253	2381.937631
342.999937	2379.749770
343.391557	2376.883874
343.783113	2378.005531
344.174605	2375.694162
344.566033	2376.382279
344.957397	2375.449666
345.348697	2370.138810
345.739934	2372.934130
346.131106	2367.683768
346.522215	2365.937008
346.913260	2361.989785
347.304241	2362.297295
347.695159	2363.108921
348.086012	2360.071626
348.476802	2355.355626
348.867528	2357.293950
349.258191	2356.454598
349.648789	2355.834536
350.039324	2354.533918
350.429796	2353.750019
350.820203	2353.825636
351.210548	2353.258506
351.600828	2353.666840
351.991045	2352.356140
352.381198	2349.389421
352.771288	2351.806654
353.161314	2349.820439
353.551276	2353.427385
353.941175	2352.731706
354.331010	2352.318331
354.720782	2353.616428
355.110490	2352.638444
355.500135	2352.963599
355.889717	2351.574761
356.279235	2353.024093
356.668689	2354.644824
357.058080	2352.419154
357.447408	2352.270440
357.836672	2352.038547
358.225873	2352.157014
358.615010	2351.015193
359.004084	2359.292768
359.393095	2360.280834
359.782043	2357.661954
360.170927	2359.665813
360.559748	2358.476101
360.948505	2359.862418
361.337199	2361.619260
361.725830	2363.585310
362.114398	2364.265866
362.502903	2362.564476
362.891344	2363.678571
363.279722	2366.022708
363.668037	2365.695033
364.056289	2365.868953
364.444478	2369.654859
364.832603	2370.529499
365.220665	2369.022194
365.608665	2367.666124
365.996601	2369.375075
366.384474	2368.046731
366.772284	2374.469161
367.160031	2372.956815
367.547715	2373.103008
367.935336	2375.147196
368.322893	2373.392875
368.710388	2373.062679
369.097820	2379.278422
369.485189	2373.851620
369.872495	2377.002341
370.259738	2380.006869
370.646918	2383.752446
371.034035	2384.422919
371.421090	2386.943496
371.808081	2388.929711
372.195010	2394.361554
372.581875	2399.823644
372.968678	2404.355642
373.355418	2408.381003
373.742096	2422.907088
374.128710	2431.023346
374.515262	2446.068669
374.901751	2458.457305
375.288177	2476.429018
375.674540	2493.286637
376.060841	2513.685666
376.447079	2537.265663
376.833254	2559.214847
377.219367	2584.947417
377.605417	2622.143570
377.991404	2648.788589
378.377329	2686.897191
378.763191	2719.382387
379.148991	2768.460540
379.534727	2811.396047
379.920402	2860.980837
380.306013	2908.720563
380.691563	2969.993268
381.077049	3025.105682
381.462474	3077.705082
381.847835	3147.646050
382.233134	3224.584140
382.618371	3279.568005
383.003545	3367.208465
383.388657	3445.300979
383.773706	3531.343393
384.158693	3602.123713
384.543618	3696.272303
384.928480	3775.420938
385.313280	3877.267370
385.698017	3977.248574
386.082692	4095.362808
386.467305	4154.679545
386.851856	4279.559008
387.236344	4435.292853
387.620770	4495.721165
388.005133	4614.498311
388.389435	4762.083131
388.773674	4843.878373
389.157851	4972.153053
389.541965	5101.960244
389.926018	5123.238954
390.310008	5300.871572
390.693936	5419.880611
391.077802	5535.665833
391.461606	5664.109392
391.845348	5778.296567
392.229027	5897.030864
392.612645	6117.357013
392.996200	6228.610237
393.379694	6405.511888
393.763125	6620.806966
394.146494	6710.186623
394.529801	6840.235790
394.913047	7079.733447
395.296230	7078.120278
395.679351	7127.939481
396.062410	7381.154118
396.445408	7281.724920
396.828343	7432.730163
397.211217	7557.738175
397.594028	7442.331040
397.976778	7642.679097
398.359466	7810.083213
398.742092	7779.886702
399.124656	7923.221829
399.507158	8103.503573
399.889598	8123.932849
400.271977	8330.910023
400.654294	8362.175259
401.036549	8553.303046
401.418742	8579.935461
401.800874	8871.649390
402.182944	8949.131925
402.564952	9296.089338
402.946898	9121.171382
403.328783	9174.612654
403.710606	9363.877734
404.092367	9603.251883
404.474067	9953.259195
404.855705	9741.003933
405.237282	9687.582826
405.618797	10092.528632
406.000250	10324.777110
406.381642	10655.965794
406.762972	10591.227297
407.144240	10383.955215
407.525447	10603.338669
407.906593	10521.558550
408.287677	10739.459905
408.668700	10862.436332
409.049661	10807.669237
409.430560	10923.323388
409.811399	10851.943171
410.192176	10960.496857
410.572891	10981.268931
410.953545	11371.277799
411.334138	10834.074801
411.714669	11318.338122
412.095139	10628.889757
412.475547	11008.967551
412.855894	10800.273864
413.236180	11008.808755
413.616405	10655.832204
413.996568	10807.782663
414.376670	10699.896929
414.756711	10502.016518
415.136691	10638.631787
415.516609	10686.610968
415.896466	10637.084153
416.276262	10751.082285
416.655997	10984.369241
417.035670	10893.603266
417.415283	11253.760941
417.794834	11193.425891
418.174324	10874.981244
418.553753	10660.109623
418.933121	10864.692249
419.312428	10587.753942
419.691674	10384.489577
420.070859	10532.943996
420.449983	10155.921141
420.829045	10357.423622
421.208047	10038.232884
421.586988	10161.773921
421.965867	10156.460545
422.344686	9990.621707
422.723444	10133.702256
423.102141	9227.640552
423.480777	9716.536693
423.859352	9278.281463
424.237866	9681.384727
424.616319	9350.793419
424.994712	9497.400256
425.373044	9212.073468
425.751314	9336.771450
426.129524	8759.609746
426.507673	9050.191936
426.885762	8729.942556
427.263789	8622.444991
427.641756	8499.755909
428.019662	8340.805808
428.397508	8174.528390
428.775292	8091.654341
429.153016	7894.225112
429.530679	7732.472129
429.908282	7555.918319
430.285824	7290.806559
430.663305	7325.494738
431.040726	7037.075203
431.418086	6826.324726
431.795385	6826.269273
432.172624	6769.047136
432.549802	6496.136710
432.926920	6375.257403
433.303977	6191.464495
433.680974	6094.392037
434.057910	6003.129508
434.434786	5856.321026
434.811601	5691.296334
435.188355	5739.484724
435.565050	5538.675402
435.941683	5389.646291
436.318257	5393.787599
436.694770	5226.224686
437.071222	5174.472201
437.447614	4915.724897
437.823946	4793.469355
438.200218	4691.522101
438.576429	4551.569587
438.952580	4468.806444
439.328670	4362.460783
439.704700	4295.703303
440.080670	4161.664064
440.456580	4117.644708
440.832429	4035.289899
441.208218	3867.225391
441.583947	3815.243533
441.959616	3741.907348
442.335224	3679.684386
442.710773	3615.029067
443.086261	3570.729928
443.461689	3470.408446
443.837057	3409.102974
444.212365	3381.336298
444.587612	3320.839932
444.962800	3247.511308
445.337927	3210.047973
445.712995	3113.855196
446.088002	3133.629122
446.462949	3091.913574
446.837837	3054.518294
447.212664	3008.865605
447.587431	3045.340874
447.962139	3085.193716
448.336786	3110.195318
448.711374	3033.718494
449.085901	2919.531318
449.460369	2881.699979
449.834776	2850.452387
450.209124	2864.895293
450.583412	2834.151816
450.957640	2819.628252
451.331808	2782.142232
451.705917	2736.018194
452.079965	2722.122254
452.453954	2708.337219
452.827883	2690.194106
453.201752	2677.883608
453.575562	2666.614109
453.949311	2668.030673
454.323001	2656.216729
454.696632	2644.891777
455.070202	2652.118271
455.443713	2644.196098
455.817164	2639.863226
456.190556	2632.621608
456.563888	2623.126595
456.937160	2614.672580
457.310373	2606.589090
457.683526	2599.642380
458.056619	2596.521906
458.429653	2589.625607
458.802628	2589.000504
459.175542	2585.811974
459.548398	2591.004363
459.921194	2596.090887
460.293930	2594.747420
460.666607	2608.169492
461.039224	2611.473968
461.411782	2610.463217
461.784280	2599.155909
462.156719	2593.056112
462.529099	2587.099989
462.901419	2575.344018
463.273680	2565.924623
463.645882	2564.250959
464.018024	2565.561659
464.390106	2564.941597
464.762130	2581.002714
465.134094	2600.247318
465.505999	2622.751029
465.877845	2643.563433
466.249631	2645.423619
466.621358	2634.789305
466.993026	2618.713065
467.364634	2609.933896
467.736184	2598.858481
468.107674	2588.831626
468.479105	2582.651171
468.850477	2576.170768
469.221790	2568.787998
469.593043	2560.510423
469.964238	2551.680842
470.335373	2550.932231
470.706449	2561.629559
471.077467	2570.794377
471.448425	2591.440423
471.819324	2600.159098
472.190164	2593.787080
472.560945	2578.015830
472.931667	2560.497820
473.302330	2556.835422
473.672934	2550.806202
474.043479	2552.169834
474.413965	2546.163299
474.784393	2542.687424
475.154761	2547.620193
475.525070	2545.031560
475.895321	2544.903011
476.265513	2542.563916
476.635645	2553.193188
477.005719	2550.856614
477.375734	2553.137736
477.745691	2555.486913
478.115588	2561.732903
478.485427	2566.315312
478.855207	2581.353074
479.224928	2595.667430
479.594591	2601.121959
479.964194	2595.795980
480.333739	2595.443099
480.703226	2596.471494
481.072653	2598.162801
481.442022	2603.473657
481.811333	2604.131527
482.180584	2596.733634
482.549777	2594.757502
482.918912	2591.695001
483.287988	2588.035123
483.657005	2585.953127
484.025964	2584.264340
484.394864	2582.638568
484.763706	2581.872313
485.132489	2579.210583
485.501213	2578.895511
485.869879	2575.530541
486.238487	2576.415264
486.607036	2574.648339
486.975527	2573.085582
487.343959	2573.516600
487.712333	2574.797053
488.080648	2573.846796
488.448905	2578.698906
488.817104	2576.374934
489.185244	2580.559092
489.553326	2586.953796
489.921350	2599.559201
490.289315	2610.932044
490.657222	2615.854731
491.025070	2615.643002
491.392861	2613.462703
491.760593	2606.163112
492.128267	2600.438882
492.495883	2590.727099
492.863440	2588.120823
493.230939	2580.301993
493.598380	2576.626992
493.965763	2571.366548
494.333088	2567.079047
494.700354	2566.257339
495.067563	2565.417987
495.434713	2566.375806
495.801805	2570.375961
496.168839	2570.418811
496.535815	2567.590724
496.902733	2567.363872
497.269593	2566.897565
497.636395	2568.188101
498.003139	2569.778585
498.369825	2569.758420
498.736453	2568.346897
499.103023	2566.060734
499.469535	2568.417473
499.835989	2569.352607
500.202385	2569.304716
500.568723	2568.835889
500.935003	2573.478792
501.301226	2570.315467
501.667390	2577.577250
502.033497	2577.156313
502.399546	2574.819738
502.765537	2575.812846
503.131470	2575.742270
503.497345	2578.567836
503.863163	2575.389389
504.228923	2583.319124
504.594625	2585.945565
504.960269	2583.906418
505.325856	2589.204671
505.691385	2584.037488
506.056856	2589.943200
506.422270	2595.637183
506.787625	2593.550146
507.152924	2597.134406
507.518164	2598.750096
507.883347	2598.772781
508.248472	2600.501897
508.613540	2604.693616
508.978550	2611.814246
509.343503	2611.607559
509.708398	2608.136724
510.073236	2617.520832
510.438016	2623.207254
510.802738	2620.013683
511.167403	2624.986781
511.532010	2630.179169
511.896561	2633.977679
512.261053	2640.667290
512.625488	2638.557567
512.989866	2636.868781
513.354186	2640.695016
513.718449	2639.974131
514.082655	2648.090389
514.446803	2650.321100
514.810894	2654.716986
515.174927	2650.651295
515.538904	2655.521050
515.902822	2659.601864
516.266684	2661.320897
516.630488	2662.787873
516.994235	2662.364416
517.357925	2668.887669
517.721558	2671.151147
518.085133	2674.448062
518.448651	2676.000737
518.812112	2674.720284
519.175516	2674.790860
519.538863	2680.129442
519.902152	2680.991480
520.265385	2681.301511
520.628560	2682.161027
520.991678	2683.988446
521.354739	2683.711182
521.717743	2689.954651
522.080690	2686.325020
522.443580	2690.920032
522.806413	2692.492872
523.169189	2692.444981
523.531908	2696.430013
523.894569	2693.967410
524.257174	2695.174766
524.619722	2695.734334
524.982213	2696.886238
525.344647	2694.153932
525.707025	2698.973275
526.069345	2699.905889
526.431608	2698.080991
526.793815	2703.096939
527.155964	2702.144161
527.518057	2701.559387
527.880093	2699.265662
528.242072	2699.721887
528.603995	2700.893955
528.965860	2701.032587
529.327669	2697.909592
529.689421	2700.460416
530.051117	2695.704087
530.412755	2698.454037
530.774337	2698.854808
531.135862	2698.408666
531.497331	2693.790969
531.858743	2691.288036
532.220098	2694.912626
532.581396	2686.929959
532.942638	2687.282840
533.303824	2689.846266
533.664953	2689.558921
534.026025	2686.057839
534.387040	2688.144877
534.747999	2685.775535
535.108902	2685.231090
535.469748	2679.176664
535.830537	2677.134997
536.191270	2679.668177
536.551947	2676.560305
536.912567	2672.489574
537.273131	2675.932682
537.633638	2666.089829
537.994089	2666.624191
538.354483	2663.186124
538.714821	2664.146464
539.075103	2664.474139
539.435328	2659.591782
539.795497	2654.061636
540.155609	2651.281439
540.515665	2651.243631
540.875665	2648.029895
541.235609	2648.566778
541.595496	2644.435552
541.955328	2643.757517
542.315102	2638.537402
542.674821	2632.165384
543.034483	2631.230250
543.394090	2628.543315
543.753640	2625.342182
544.113134	2624.104579
544.472571	2615.774072
544.831953	2622.173817
545.191278	2611.816767
545.550548	2606.412650
545.909761	2609.454986
546.268918	2605.900972
546.628019	2602.064654
546.987064	2597.451999
547.346053	2594.283633
547.704986	2590.444795
548.063863	2585.869948
548.422684	2583.535893
548.781449	2578.618248
549.140158	2582.257961
549.498811	2575.235634
549.857408	2571.389233
550.215949	2567.920919
550.574434	2564.742472
550.932864	2561.495969
551.291237	2563.101576
551.649555	2562.728531
552.007817	2558.499003
552.366022	2554.110678
552.724173	2552.757129
553.082267	2551.683363
553.440305	2548.459545
553.798288	2547.234545
554.156215	2545.150028
554.514086	2544.136756
554.871902	2540.852444
555.229661	2540.381096
555.587365	2536.844727
555.945014	2534.346835
556.302606	2533.583100
556.660143	2535.332380
557.017625	2533.268028
557.375050	2528.710825
557.732421	2529.635877
558.089735	2529.071267
558.446994	2524.703108
558.804197	2530.717204
559.161345	2524.645134
559.518437	2523.654547
559.875474	2520.740761
560.232455	2520.392921
560.589381	2520.173631
560.946251	2521.514578
561.303065	2519.044412
561.659825	2516.218846
562.016528	2518.494927
562.373177	2517.373270
562.729770	2517.829494
563.086307	2512.203567
563.442789	2514.131808
563.799216	2513.441170
564.155587	2512.725326
564.511904	2510.197187
564.868164	2511.447393
565.224370	2509.045284
565.580520	2510.101405
565.936615	2509.625016
566.292654	2509.849348
566.648638	2511.918741
567.004567	2507.752228
567.360441	2507.646363
567.716260	2507.459841
568.072023	2505.702999
568.427732	2505.299706
568.783385	2506.272649
569.138982	2503.938595
569.494525	2502.325426
569.850013	2499.918275
570.205445	2505.687875
570.560823	2503.096722
570.916145	2500.498007
571.271412	2505.403050
571.626625	2504.881291
571.981782	2504.583862
572.336884	2506.025632
572.691931	2500.535816
573.046923	2501.082781
573.401860	2504.389778
573.756743	2501.836434
574.111570	2501.947339
574.466342	2503.016064
574.821059	2501.478512
575.175722	2499.353665
575.530330	2498.010198
575.884882	2497.596823
576.239380	2496.265959
576.593823	2498.776453
576.948211	2498.153871
577.302544	2497.664879
577.656823	2495.076246
578.011047	2500.553460
578.365216	2498.511793
578.719330	2495.230002
579.073389	2495.358551
579.427394	2498.778974
579.781344	2495.968531
580.135239	2495.696308
580.489080	2492.880824
580.842866	2490.574496
581.196597	2497.148161
581.550273	2497.075064
581.903895	2492.812768
582.257463	2494.844353
582.610975	2493.465598
582.964434	2493.175731
583.317837	2491.726400
583.671186	2489.871255
584.024481	2493.700011
584.377721	2491.242449
584.730906	2490.645072
585.084037	2490.640031
585.437113	2489.609115
585.790135	2491.343272
586.143103	2490.461070
586.496016	2490.564414
586.848874	2486.793631
587.201679	2483.388331
587.554428	2485.659371
587.907124	2488.706748
588.259765	2483.085862
588.612352	2489.498210
588.964884	2487.249855
589.317362	2486.720534
589.669786	2486.957468
590.022155	2488.777325
590.374470	2486.458394
590.726731	2485.929073
591.078937	2486.037457
591.431090	2484.154587
591.783188	2482.808598
592.135232	2485.475369
592.487222	2483.022848
592.839157	2483.983187
593.191038	2481.870944
593.542866	2480.577888
593.894639	2482.095275
594.246358	2482.236428
594.598022	2483.214411
594.949633	2480.222487
595.301190	2479.511684
595.652692	2480.603094
596.004141	2481.271047
596.355535	2479.857003
596.706876	2476.643267
597.058162	2479.582260
597.409395	2479.950264
597.760573	2477.883391
598.111698	2480.161993
598.462768	2479.027733
598.813785	2478.148052
599.164748	2477.091930
599.515657	2478.629482
599.866511	2478.929431
600.217312	2477.754842
600.568060	2474.833493
600.918753	2477.782568
601.269392	2478.180819
601.619978	2473.792495
601.970510	2476.761734
602.320988	2475.065386
602.671412	2476.076137
603.021783	2474.649491
603.372100	2476.411374
603.722363	2475.014975
604.072572	2473.570684
604.422728	2477.225521
604.772830	2471.143368
605.122878	2470.545992
605.472872	2472.232258
605.822813	2470.518265
606.172701	2473.779892
606.522534	2476.292907
606.872314	2474.314254
607.222041	2473.532875
607.571714	2473.411888
607.921333	2472.622947
608.270899	2473.432052
608.620411	2472.839717
608.969870	2472.386013
609.319276	2475.279635
609.668627	2471.655046
610.017926	2474.682258
610.367171	2474.203349
610.716362	2476.376086
611.065500	2476.234934
611.414585	2472.814511
611.763616	2474.974645
612.112594	2474.004223
612.461518	2474.152937
612.810389	2473.573205
613.159207	2478.203504
613.507971	2472.721250
613.856682	2476.277784
614.205340	2470.944243
614.553945	2476.456745
614.902496	2473.326188
615.250994	2474.810808
615.599439	2473.323667
615.947830	2475.135962
616.296169	2476.237454
616.644454	2476.446662
616.992686	2474.836014
617.340864	2476.103864
617.688990	2473.938688
618.037063	2476.106384
618.385082	2475.798874
618.733048	2474.178143
619.080961	2476.691158
619.428821	2474.495736
619.776628	2474.841055
620.124382	2475.713174
620.472083	2472.837196
620.819731	2477.449852
621.167326	2473.059007
621.514868	2474.962042
621.862357	2472.010447
622.209793	2474.682258
622.557176	2471.201342
622.904506	2471.793677
623.251783	2465.489714
623.599007	2468.794191
623.946179	2466.122379
624.293297	2468.670683
624.640363	2468.307719
624.987376	2467.168419
625.334336	2465.837554
625.681243	2464.020218
626.028097	2466.472739
626.374899	2467.722946
626.721647	2464.589868
627.068343	2470.324181
627.414987	2465.933336
627.761577	2464.534416
628.108115	2466.061885
628.454600	2465.061216
628.801032	2463.579117
629.147412	2462.328911
629.493739	2465.063737
629.840014	2462.028962
630.186236	2462.896041
630.532405	2463.995012
630.878521	2460.080556
631.224585	2461.411421
631.570597	2459.825978
631.916556	2463.868983
632.262462	2462.873356
632.608316	2462.056689
632.954117	2459.957048
633.299866	2462.394446
633.645562	2462.109621
633.991206	2461.116513
634.336797	2459.594085
634.682336	2457.864969
635.027823	2457.950669
635.373257	2459.962089
635.718639	2460.176338
636.063968	2458.454784
636.409245	2456.874383
636.754470	2457.428909
637.099642	2451.898764
637.444762	2455.669547
637.789829	2456.178703
638.134845	2454.799948
638.479808	2455.256172
638.824719	2456.808848
639.169577	2454.068980
639.514383	2452.685184
639.859137	2455.707355
640.203839	2452.231480
640.548489	2450.610749
640.893086	2450.978753
641.237632	2445.254523
641.582125	2448.740481
641.926566	2447.477672
642.270955	2452.687704
642.615292	2452.722992
642.959576	2452.410441
643.303809	2454.525205
643.647990	2449.718465
