Dividing Wavelength (nm)	Counts (n)	Blue Motor Position (mm): 0.000000	Red Motor Position (mm): 29.200000	
326.493990	1989.554380
326.888308	1989.554380
327.282561	1989.554380
327.676750	1962.619495
328.070874	1965.233333
328.464933	1971.411267
328.858929	1981.332258
329.252859	1994.071254
329.646726	2009.711433
330.040528	2024.542508
330.434265	2042.567154
330.827938	2059.598692
331.221547	2081.152145
331.615091	2101.072265
332.008571	2124.485904
332.401986	2143.569192
332.795338	2164.273210
333.188625	2184.926818
333.581847	2202.470033
333.975006	2218.664740
334.368100	2238.516804
334.761129	2253.642786
335.154095	2270.258429
335.546996	2290.216357
335.939833	2319.661737
336.332606	2333.217399
336.725315	2344.343226
337.117960	2352.421675
337.510540	2359.123889
337.903056	2370.388347
338.295508	2376.659543
338.687896	2384.276726
339.080220	2392.143447
339.472480	2397.396329
339.864676	2399.470764
340.256807	2402.283728
340.648875	2404.476629
341.040879	2408.282701
341.432818	2407.871847
341.824694	2409.432084
342.216506	2408.260015
342.608253	2411.216652
342.999937	2406.805643
343.391557	2408.315468
343.783113	2405.847823
344.174605	2404.703481
344.566033	2400.355486
344.957397	2402.089643
345.348697	2398.656617
345.739934	2398.336504
346.131106	2397.260218
346.522215	2392.100597
346.913260	2392.531615
347.304241	2390.426934
347.695159	2390.956255
348.086012	2388.299567
348.476802	2387.848383
348.867528	2385.320245
349.258191	2385.002652
349.648789	2383.760008
350.039324	2381.625079
350.429796	2382.892929
350.820203	2380.677342
351.210548	2382.502240
351.600828	2380.362270
351.991045	2381.627600
352.381198	2379.646426
352.771288	2380.826056
353.161314	2379.459903
353.551276	2379.598535
353.941175	2381.075593
354.331010	2382.144318
354.720782	2381.597353
355.110490	2380.274050
355.500135	2380.258926
355.889717	2382.930738
356.279235	2383.432333
356.668689	2383.152549
357.058080	2382.033413
357.447408	2383.442415
357.836672	2379.974101
358.225873	2383.119781
358.615010	2382.998793
359.004084	2385.133722
359.393095	2388.349978
359.782043	2389.537170
360.170927	2391.049516
360.559748	2389.413662
360.948505	2390.517674
361.337199	2391.412479
361.725830	2392.400545
362.114398	2392.246790
362.502903	2394.207799
362.891344	2395.175701
363.279722	2394.212840
363.668037	2399.115362
364.056289	2397.693757
364.444478	2399.904303
364.832603	2397.298026
365.220665	2400.657955
365.608665	2398.999416
365.996601	2400.995713
366.384474	2405.222720
366.772284	2407.183729
367.160031	2405.376475
367.547715	2405.187432
367.935336	2405.530231
368.322893	2408.048287
368.710388	2409.694224
369.097820	2411.214132
369.485189	2411.090623
369.872495	2413.139852
370.259738	2412.502146
370.646918	2417.434915
371.034035	2417.603794
371.421090	2420.351223
371.808081	2426.629980
372.195010	2427.509661
372.581875	2435.661207
372.968678	2439.873091
373.355418	2448.788372
373.742096	2458.585854
374.128710	2470.470374
374.515262	2482.664926
374.901751	2493.639517
375.288177	2514.696417
375.674540	2531.919519
376.060841	2552.956254
376.447079	2577.234451
376.833254	2606.342073
377.219367	2632.213275
377.605417	2667.140909
377.991404	2690.481452
378.377329	2732.842267
378.763191	2765.065323
379.148991	2814.811429
379.534727	2865.535519
379.920402	2910.061510
380.306013	2961.365333
380.691563	3022.494365
381.077049	3083.260433
381.462474	3140.900986
381.847835	3212.898745
382.233134	3286.925569
382.618371	3348.397399
383.003545	3434.573403
383.388657	3513.596011
383.773706	3609.728294
384.158693	3682.237730
384.543618	3779.421094
384.928480	3859.086448
385.313280	3963.970175
385.698017	4067.515475
386.082692	4189.806305
386.467305	4252.200666
386.851856	4381.339904
387.236344	4542.185480
387.620770	4606.172845
388.005133	4729.565168
388.389435	4876.406418
388.773674	4962.942865
389.157851	5097.768524
389.541965	5228.533535
389.926018	5256.829531
390.310008	5435.533394
390.693936	5554.870108
391.077802	5679.336197
391.461606	5818.076312
391.845348	5925.488177
392.229027	6052.517692
392.612645	6280.700480
392.996200	6397.970322
393.379694	6573.909111
393.763125	6798.517721
394.146494	6890.332256
394.529801	7030.625047
394.913047	7281.072091
395.296230	7279.917666
395.679351	7327.672517
396.062410	7596.466840
396.445408	7486.972978
396.828343	7649.262844
397.211217	7787.108155
397.594028	7665.823034
397.976778	7868.280814
398.359466	8041.101650
398.742092	8019.091973
399.124656	8164.660331
399.507158	8352.614711
399.889598	8368.688430
400.271977	8579.486799
400.654294	8620.161348
401.036549	8813.527407
401.418742	8844.149896
401.800874	9155.219335
402.182944	9228.623577
402.564952	9597.673847
402.946898	9415.960415
403.328783	9480.409047
403.710606	9675.809211
404.092367	9934.745557
404.474067	10304.133585
404.855705	10086.088558
405.237282	10043.954594
405.618797	10476.798145
406.000250	10720.643798
406.381642	11090.724984
406.762972	11043.217150
407.144240	10839.141160
407.525447	11096.597928
407.906593	11034.838753
408.287677	11296.633434
408.668700	11451.016250
409.049661	11425.868454
409.430560	11586.071282
409.811399	11565.936913
410.192176	11719.699667
410.572891	11804.121350
410.953545	12282.768826
411.334138	11757.843558
411.714669	12358.423942
412.095139	11666.674291
412.475547	12175.949296
412.855894	12017.147909
413.236180	12345.619411
413.616405	12026.279959
413.996568	12308.768577
414.376670	12283.330914
414.756711	12154.635298
415.136691	12446.064402
415.516609	12616.929270
415.896466	12692.894417
416.276262	12988.220333
416.655997	13423.854163
417.035670	13458.549905
417.415283	14114.688845
417.794834	14209.959091
418.174324	13952.661119
418.553753	13851.787631
418.933121	14346.105533
419.312428	14157.515968
419.691674	14061.308067
420.070859	14522.896278
420.449983	14175.946426
420.829045	14728.953441
421.208047	14476.963805
421.586988	14936.870791
421.965867	15189.699779
422.344686	15182.493450
422.723444	15753.847745
423.102141	14429.423203
423.480777	15629.820237
423.859352	15137.118024
424.237866	16247.074237
424.616319	15959.617562
424.994712	16607.872138
425.373044	16403.360088
425.751314	17083.434427
426.129524	16202.523040
426.507673	17305.618242
426.885762	16995.085686
427.263789	17193.359308
427.641756	17360.123197
428.019662	17424.707940
428.397508	17461.909135
428.775292	17773.601157
429.153016	17729.581801
429.530679	17816.907189
429.908282	17837.081886
430.285824	17548.246456
430.663305	18261.912524
431.040726	17858.784054
431.418086	17687.236109
431.795385	18342.419751
432.172624	18759.106404
432.549802	18312.941604
432.926920	18497.389861
433.303977	18389.642759
433.680974	18646.819743
434.057910	18940.323282
434.434786	18959.104101
434.811601	18865.487353
435.188355	19916.391490
435.565050	19560.370082
435.941683	19504.602317
436.318257	20402.562887
436.694770	20211.253619
437.071222	20795.830861
437.447614	19862.564570
437.823946	19890.674043
438.200218	20040.383710
438.576429	19820.541511
438.952580	20092.660475
439.328670	20055.862573
439.704700	20475.357149
440.080670	20043.032836
440.456580	20636.505193
440.832429	20821.218111
441.208218	19799.837492
441.583947	20249.667212
441.959616	20340.634833
442.335224	20591.795200
442.710773	20725.582382
443.086261	21258.865882
443.461689	20625.008842
443.837057	20736.748538
444.212365	21391.367570
444.587612	21380.564377
444.962800	20952.013368
445.337927	21380.639995
445.712995	20119.265165
446.088002	21968.282258
446.462949	22161.920538
446.837837	22331.328513
447.212664	22287.104991
447.587431	25128.349711
447.962139	28080.683817
448.336786	30475.834311
448.711374	28909.421782
449.085901	25223.567024
449.460369	25164.255329
449.834776	25072.123201
450.209124	27556.383652
450.583412	27105.364220
450.957640	27631.149005
451.331808	26266.634687
451.705917	24894.848506
452.079965	24939.450114
452.453954	25302.730784
452.827883	25176.487689
453.201752	24975.612831
453.575562	25139.997297
453.949311	26252.189261
454.323001	26320.426319
454.696632	26074.115543
455.070202	27644.397157
455.443713	27768.762422
455.817164	28364.185706
456.190556	28901.973478
456.563888	28332.721344
456.937160	28766.341233
457.310373	27090.906191
457.683526	27544.095839
458.056619	27524.102623
458.429653	27453.965050
458.802628	28032.412248
459.175542	28149.596390
459.548398	29451.086202
459.921194	31035.420032
460.293930	31693.920753
460.666607	33719.093406
461.039224	35495.621227
461.411782	35867.524790
461.784280	34677.593192
462.156719	34179.839744
462.529099	33617.630102
462.901419	32316.611638
463.273680	31244.635479
463.645882	31315.362867
464.018024	31309.416826
464.390106	32132.133134
464.762130	34832.684290
465.134094	38872.233964
465.505999	44160.429554
465.877845	48727.397346
466.249631	49902.742366
466.621358	48183.580355
466.993026	46065.731130
467.364634	43966.062827
467.736184	41982.893068
468.107674	40742.144119
468.479105	39919.299262
468.850477	39209.898010
469.221790	37773.063300
469.593043	36024.425662
469.964238	35126.291173
470.335373	35017.114904
470.706449	36710.425878
471.077467	39220.123991
471.448425	43733.227054
471.819324	46538.462811
472.190164	44716.705758
472.560945	41131.769859
472.931667	38030.225161
473.302330	36878.921404
473.672934	36054.833903
474.043479	36519.482094
474.413965	35692.352256
474.784393	35267.844252
475.154761	36114.349765
475.525070	36117.306402
475.895321	35616.576152
476.265513	36143.280947
476.635645	37046.196971
477.005719	36824.144226
477.375734	37222.329845
477.745691	37831.886004
478.115588	39084.610214
478.485427	40932.117481
478.855207	44087.940283
479.224928	46567.651092
479.594591	48111.615363
479.964194	47043.422589
480.333739	47104.919625
480.703226	47022.501801
481.072653	47519.065537
481.442022	47883.566166
481.811333	48033.742139
482.180584	46648.533885
482.549777	46020.645571
482.918912	45374.846037
483.287988	44958.053519
483.657005	44020.782031
484.025964	43285.489413
484.394864	43156.839167
484.763706	42600.802419
485.132489	41647.658858
485.501213	41347.120389
485.869879	41326.839827
486.238487	40774.503286
486.607036	40805.713069
486.975527	40142.382922
487.343959	40158.776755
487.712333	40056.390920
488.080648	39799.012290
488.448905	40018.012616
488.817104	39651.903859
489.185244	40320.076034
489.553326	41571.910480
489.921350	43806.396882
490.289315	46324.317117
490.657222	46674.805858
491.025070	46730.346771
491.392861	45593.223780
491.760593	44163.030790
492.128267	42350.925025
492.495883	40756.337488
492.863440	39290.130494
493.230939	37869.500573
493.598380	36691.040121
493.965763	36162.628895
494.333088	35233.161114
494.700354	34581.037452
495.067563	34084.342646
495.434713	33717.969228
495.801805	33504.229347
496.168839	32919.674791
496.535815	32392.458318
496.902733	32161.598678
497.269593	31551.397252
497.636395	31235.173233
498.003139	31255.715935
498.369825	30561.818752
498.736453	30520.156136
499.103023	29878.510513
499.469535	29495.700413
499.835989	29288.151068
500.202385	28744.840712
500.568723	28454.223234
500.935003	28303.270923
501.301226	27844.672117
501.667390	27965.589233
502.033497	27836.702053
502.399546	27148.733267
502.765537	26389.661526
503.131470	26324.875138
503.497345	26238.905821
503.863163	25111.834891
504.228923	25168.419322
504.594625	25106.332471
504.960269	24356.173491
505.325856	24461.273987
505.691385	23769.909984
506.056856	23524.108363
506.422270	23474.107679
506.787625	22917.292072
507.152924	22699.541952
507.518164	22436.834822
507.883347	21694.744209
508.248472	21528.161800
508.613540	21455.609514
508.978550	21294.695883
509.343503	20844.122594
509.708398	20637.258846
510.073236	20568.835265
510.438016	20254.088304
510.802738	19686.398928
511.167403	19653.301232
511.532010	19445.691393
511.896561	19282.110992
512.261053	19332.124280
512.625488	18813.326534
512.989866	18435.945758
513.354186	18071.248524
513.718449	17752.486284
514.082655	17713.573617
514.446803	17280.563707
514.810894	17180.360692
515.174927	16857.946137
515.538904	16529.520005
515.902822	16471.735779
516.266684	15995.961761
516.630488	15855.658888
516.994235	15531.802562
517.357925	15435.352686
517.721558	15208.011771
518.085133	15035.498445
518.448651	14806.017560
518.812112	14477.430111
519.175516	14227.880393
519.538863	14080.741715
519.902152	13819.105831
520.265385	13682.861086
520.628560	13453.022279
520.991678	13143.389569
521.354739	12959.185807
521.717743	12786.720373
522.080690	12525.104653
522.443580	12413.014597
522.806413	12196.088706
523.169189	11961.148251
523.531908	11778.769388
523.894569	11531.140349
524.257174	11354.899090
524.619722	11199.447549
524.982213	10999.832980
525.344647	10778.337283
525.707025	10585.445093
526.069345	10461.475558
526.431608	10256.043498
526.793815	10126.339651
527.155964	9861.540442
527.518057	9700.732675
527.880093	9485.858534
528.242072	9396.362930
528.603995	9179.542903
528.965860	9014.319085
529.327669	8867.624029
529.689421	8693.467287
530.051117	8525.985033
530.412755	8396.019046
530.774337	8254.728106
531.135862	8083.028927
531.497331	7958.885472
531.858743	7812.906260
532.220098	7705.761576
532.581396	7539.516925
532.942638	7369.380503
533.303824	7281.896319
533.664953	7152.348748
534.026025	7002.613876
534.387040	6934.429749
534.747999	6808.670605
535.108902	6714.658127
535.469748	6559.340177
535.830537	6465.297452
536.191270	6380.245625
536.551947	6247.365850
536.912567	6172.570251
537.273131	6087.432724
537.633638	5950.973731
537.994089	5883.659203
538.354483	5764.196460
538.714821	5720.214913
539.075103	5660.560419
539.435328	5561.380758
539.795497	5473.457994
540.155609	5391.783740
540.515665	5342.629970
540.875665	5234.270368
541.235609	5179.528478
541.595496	5101.251962
541.955328	5075.748764
542.315102	4969.075428
542.674821	4892.452411
543.034483	4822.327440
543.394090	4762.567082
543.753640	4701.082649
544.113134	4690.024878
544.472571	4585.965380
544.831953	4587.457562
545.191278	4498.829036
545.550548	4427.562244
545.909761	4391.951533
546.268918	4352.620451
546.628019	4317.430677
546.987064	4251.212600
547.346053	4169.150177
547.704986	4159.705576
548.063863	4102.947224
548.422684	4066.789548
548.781449	4024.660626
549.140158	3995.535359
549.498811	3955.609421
549.857408	3895.619690
550.215949	3886.780027
550.574434	3846.309644
550.932864	3803.517809
551.291237	3794.852066
551.649555	3751.755242
552.007817	3731.620873
552.366022	3694.550748
552.724173	3670.446471
553.082267	3651.655570
553.440305	3632.594968
553.798288	3592.200202
554.156215	3578.311823
554.514086	3560.564441
554.871902	3531.645862
555.229661	3506.603930
555.587365	3482.648367
555.945014	3468.807879
556.302606	3447.367852
556.660143	3433.300512
557.017625	3419.621341
557.375050	3397.362126
557.732421	3388.610683
558.089735	3371.818600
558.446994	3354.950899
558.804197	3350.396217
559.161345	3336.485153
559.518437	3307.029691
559.875474	3301.335707
560.232455	3289.294911
560.589381	3280.309055
560.946251	3266.982764
561.303065	3262.735592
561.659825	3251.748397
562.016528	3235.049575
562.373177	3221.551886
562.729770	3220.833522
563.086307	3199.562373
563.442789	3198.339893
563.799216	3192.401414
564.155587	3180.405988
564.511904	3171.021880
564.868164	3165.617763
565.224370	3165.756395
565.580520	3149.355001
565.936615	3145.329640
566.292654	3134.024852
566.648638	3131.305150
567.004567	3120.312914
567.360441	3115.115484
567.716260	3105.658280
568.072023	3106.490070
568.427732	3094.051023
568.783385	3085.652461
569.138982	3080.555854
569.494525	3076.159968
569.850013	3066.511199
570.205445	3064.530026
570.560823	3059.725806
570.916145	3050.278684
571.271412	3045.812222
571.626625	3039.397353
571.981782	3034.613298
572.336884	3027.535518
572.691931	3024.137781
573.046923	3017.932120
573.401860	3008.893332
573.756743	3002.564163
574.111570	2999.705829
574.466342	2994.568893
574.821059	2994.296671
575.175722	2982.644043
575.530330	2980.655308
575.884882	2972.067703
576.239380	2967.210551
576.593823	2964.014459
576.948211	2961.750981
577.302544	2950.733540
577.656823	2947.865123
578.011047	2945.682303
578.365216	2935.962959
578.719330	2931.935077
579.073389	2928.260076
579.427394	2926.805703
579.781344	2921.734302
580.135239	2913.759197
580.489080	2913.313055
580.842866	2903.472722
581.196597	2907.359452
581.550273	2898.489542
581.903895	2897.945097
582.257463	2900.662279
582.610975	2889.629714
582.964434	2889.556617
583.317837	2883.499671
583.671186	2877.160420
584.024481	2880.028836
584.377721	2870.604399
584.730906	2870.622043
585.084037	2869.548277
585.437113	2862.047041
585.790135	2859.521422
586.143103	2851.236286
586.496016	2849.557582
586.848874	2844.294617
587.201679	2844.236644
587.554428	2835.913699
587.907124	2836.281703
588.259765	2830.000426
588.612352	2832.626867
588.964884	2828.367092
589.317362	2822.665547
589.669786	2823.280567
590.022155	2819.550114
590.374470	2819.489620
590.726731	2812.242961
591.078937	2809.296407
591.431090	2803.862043
591.783188	2798.228553
592.135232	2795.092956
592.487222	2793.908285
592.839157	2793.666309
593.191038	2788.078190
593.542866	2786.195319
593.894639	2778.842796
594.246358	2776.337343
594.598022	2773.796601
594.949633	2768.417690
595.301190	2765.725714
595.652692	2763.694129
596.004141	2761.609612
596.355535	2753.412696
596.706876	2748.114443
597.058162	2747.000348
597.409395	2749.767942
597.760573	2749.082345
598.111698	2740.502301
598.462768	2739.889801
598.813785	2737.699419
599.164748	2733.338821
599.515657	2732.769171
599.866511	2728.375805
600.217312	2732.267576
600.568060	2723.196020
600.918753	2726.641648
601.269392	2726.921432
601.619978	2720.914897
601.970510	2718.169989
602.320988	2717.688559
602.671412	2720.720813
603.021783	2713.118753
603.372100	2712.528938
603.722363	2709.607589
604.072572	2708.412836
604.422728	2706.955942
604.772830	2701.256918
605.122878	2700.732638
605.472872	2696.145188
605.822813	2695.237780
606.172701	2698.259952
606.522534	2700.848585
606.872314	2699.356403
607.222041	2695.688964
607.571714	2698.239787
607.921333	2692.074456
608.270899	2692.525640
608.620411	2692.112265
608.969870	2691.681246
609.319276	2689.115299
609.668627	2687.199661
610.017926	2687.436595
610.367171	2688.974147
610.716362	2687.010617
611.065500	2688.591019
611.414585	2688.717048
611.763616	2687.885257
612.112594	2682.173630
612.461518	2683.494412
612.810389	2685.525997
613.159207	2682.319824
613.507971	2683.602797
613.856682	2684.981553
614.205340	2683.280163
614.553945	2685.306707
614.902496	2679.862261
615.250994	2684.870647
615.599439	2681.462827
615.947830	2680.646161
616.296169	2681.346881
616.644454	2681.142714
616.992686	2679.335461
617.340864	2682.092972
617.688990	2679.474092
618.037063	2679.973167
618.385082	2678.554082
618.733048	2680.915862
619.080961	2678.702796
619.428821	2679.017868
619.776628	2680.124401
620.124382	2678.314627
620.472083	2676.802281
620.819731	2676.177178
621.167326	2673.089471
621.514868	2675.849503
621.862357	2671.375479
622.209793	2670.243740
622.557176	2664.751402
622.904506	2662.871052
623.251783	2656.781338
623.599007	2658.384425
623.946179	2656.400731
624.293297	2651.790596
624.640363	2653.381080
624.987376	2652.871923
625.334336	2648.339926
625.681243	2647.787920
626.028097	2646.827580
626.374899	2644.130563
626.721647	2643.999493
627.068343	2641.836838
627.414987	2642.860192
627.761577	2640.082516
628.108115	2640.982362
628.454600	2635.747124
628.801032	2636.979686
629.147412	2637.693009
629.493739	2637.004892
629.840014	2637.267032
630.186236	2635.306023
630.532405	2634.824593
630.878521	2634.514562
631.224585	2632.349386
631.570597	2628.596247
631.916556	2630.045579
632.262462	2628.964251
632.608316	2631.154633
632.954117	2628.949128
633.299866	2632.447689
633.645562	2627.207409
633.991206	2623.844960
634.336797	2622.950155
634.682336	2622.851852
635.027823	2617.568723
635.373257	2619.781790
635.718639	2612.837600
636.063968	2617.629217
636.409245	2613.689555
636.754470	2612.399020
637.099642	2609.772579
637.444762	2606.936930
637.789829	2607.493977
638.134845	2607.216714
638.479808	2606.558843
638.824719	2605.331322
639.169577	2601.550457
639.514383	2601.303440
