Dividing Wavelength (nm)	Counts (n)	Blue Motor Position (mm): 0.000000	Red Motor Position (mm): 27.200000	
326.493990	1988.629328
326.888308	1988.629328
327.282561	1988.629328
327.676750	1961.686881
328.070874	1963.799125
328.464933	1970.798767
328.858929	1980.006434
329.252859	1991.291057
329.646726	2006.434683
330.040528	2020.282733
330.434265	2039.580270
330.827938	2058.613146
331.221547	2078.535786
331.615091	2098.181163
332.008571	2120.500872
332.401986	2141.918214
332.795338	2163.045689
333.188625	2182.040757
333.581847	2200.728314
333.975006	2218.334544
334.368100	2235.832389
334.761129	2252.158166
335.154095	2268.385640
335.546996	2287.405914
335.939833	2312.924234
336.332606	2327.175576
336.725315	2338.805518
337.117960	2346.100068
337.510540	2350.256499
337.903056	2365.760568
338.295508	2369.937164
338.687896	2374.945550
339.080220	2386.492313
339.472480	2387.140101
339.864676	2395.881462
340.256807	2395.447923
340.648875	2397.555125
341.040879	2398.606206
341.432818	2401.923285
341.824694	2401.920764
342.216506	2402.971845
342.608253	2401.683830
342.999937	2404.612741
343.391557	2398.505383
343.783113	2401.073851
344.174605	2396.688047
344.566033	2397.149312
344.957397	2390.631100
345.348697	2390.046327
345.739934	2390.918446
346.131106	2389.322921
346.522215	2389.209495
346.913260	2386.540204
347.304241	2387.165307
347.695159	2382.688763
348.086012	2382.436705
348.476802	2380.019472
348.867528	2379.633823
349.258191	2378.955788
349.648789	2379.275901
350.039324	2376.029398
350.429796	2377.418236
350.820203	2369.669983
351.210548	2375.454707
351.600828	2373.077803
351.991045	2374.101157
352.381198	2373.879346
352.771288	2374.050745
353.161314	2373.239120
353.551276	2372.107381
353.941175	2372.001516
354.331010	2375.134593
354.720782	2376.256250
355.110490	2372.064531
355.500135	2375.817670
355.889717	2374.575025
356.279235	2375.091744
356.668689	2377.211549
357.058080	2376.452855
357.447408	2373.839017
357.836672	2371.457072
358.225873	2380.137939
358.615010	2374.307844
359.004084	2380.639533
359.393095	2380.379914
359.782043	2381.844369
360.170927	2382.056098
360.559748	2380.730274
360.948505	2384.322096
361.337199	2384.238917
361.725830	2385.272354
362.114398	2387.724875
362.502903	2388.899464
362.891344	2387.989536
363.279722	2391.251162
363.668037	2390.764691
364.056289	2389.383415
364.444478	2391.641852
364.832603	2388.092879
365.220665	2393.890206
365.608665	2393.239898
365.996601	2396.032697
366.384474	2397.676113
366.772284	2393.786863
367.160031	2399.115362
367.547715	2396.506565
367.935336	2399.790877
368.322893	2399.080074
368.710388	2402.613923
369.097820	2405.348749
369.485189	2403.680127
369.872495	2405.336146
370.259738	2406.419994
370.646918	2409.106929
371.034035	2410.546179
371.421090	2416.451890
371.808081	2418.289391
372.195010	2421.493044
372.581875	2428.064188
372.968678	2432.424786
373.355418	2439.928544
373.742096	2452.818774
374.128710	2462.517954
374.515262	2474.914152
374.901751	2487.713641
375.288177	2506.469254
375.674540	2525.061029
376.060841	2547.350491
376.447079	2567.631053
376.833254	2593.109045
377.219367	2622.481327
377.605417	2657.774446
377.991404	2682.496264
378.377329	2721.350957
378.763191	2757.760691
379.148991	2806.468319
379.534727	2856.743747
379.920402	2902.489697
380.306013	2951.567851
380.691563	3015.741739
381.077049	3069.813155
381.462474	3127.667957
381.847835	3203.184442
382.233134	3274.509207
382.618371	3334.756037
383.003545	3423.089655
383.388657	3503.480935
383.773706	3596.901078
384.158693	3670.718694
384.543618	3767.193775
384.928480	3847.769058
385.313280	3953.083803
385.698017	4054.985687
386.082692	4177.878935
386.467305	4240.842947
386.851856	4370.400601
387.236344	4526.537738
387.620770	4591.064507
388.005133	4713.435996
388.389435	4860.143656
388.773674	4944.958548
389.157851	5083.126493
389.541965	5216.160023
389.926018	5238.411676
390.310008	5418.496814
390.693936	5543.162028
391.077802	5662.705430
391.461606	5799.792047
391.845348	5915.080715
392.229027	6032.733684
392.612645	6254.693167
392.996200	6376.626076
393.379694	6554.160391
393.763125	6777.518795
394.146494	6869.426591
394.529801	7007.939855
394.913047	7254.366578
395.296230	7253.842298
395.679351	7306.575288
396.062410	7572.849034
396.445408	7468.111501
396.828343	7620.124975
397.211217	7761.269721
397.594028	7643.102554
397.976778	7846.702155
398.359466	8011.757094
398.742092	7986.299267
399.124656	8136.006412
399.507158	8327.829878
399.889598	8344.775717
400.271977	8564.176814
400.654294	8591.867872
401.036549	8790.847256
401.418742	8815.851379
401.800874	9119.059139
402.182944	9201.575266
402.564952	9570.824661
402.946898	9386.557885
403.328783	9443.850599
403.710606	9641.965424
404.092367	9913.804604
404.474067	10268.626218
404.855705	10056.431450
405.237282	10010.425880
405.618797	10443.710532
406.000250	10690.182626
406.381642	11065.178937
406.762972	11006.056285
407.144240	10804.417693
407.525447	11058.363297
407.906593	10987.494756
408.287677	11256.452917
408.668700	11419.952660
409.049661	11386.567618
409.430560	11559.965667
409.811399	11523.034173
410.192176	11686.949811
410.572891	11757.099988
410.953545	12241.766601
411.334138	11719.548433
411.714669	12311.911736
412.095139	11627.290276
412.475547	12132.411371
412.855894	11972.420271
413.236180	12308.589616
413.616405	11994.364414
413.996568	12268.116712
414.376670	12241.854821
414.756711	12118.825461
415.136691	12399.121177
415.516609	12584.638159
415.896466	12647.150987
416.276262	12944.100155
416.655997	13380.996794
417.035670	13428.224844
417.415283	14069.905755
417.794834	14166.998378
418.174324	13904.989448
418.553753	13804.655363
418.933121	14294.731134
419.312428	14109.453607
419.691674	14020.051264
420.070859	14483.398838
420.449983	14136.459068
420.829045	14684.767728
421.208047	14425.513788
421.586988	14881.836514
421.965867	15136.689526
422.344686	15130.758609
422.723444	15692.517067
423.102141	14388.420978
423.480777	15577.941722
423.859352	15074.547223
424.237866	16196.619849
424.616319	15894.062398
424.994712	16544.938374
425.373044	16344.028228
425.751314	17015.330960
426.129524	16150.168137
426.507673	17236.836739
426.885762	16927.700582
427.263789	17130.914535
427.641756	17297.383517
428.019662	17365.996142
428.397508	17402.403355
428.775292	17702.203295
429.153016	17661.798447
429.530679	17741.804079
429.908282	17767.534128
430.285824	17489.131366
430.663305	18204.385397
431.040726	17788.550698
431.418086	17616.594420
431.795385	18277.587992
432.172624	18689.619140
432.549802	18243.091376
432.926920	18428.694058
433.303977	18318.260021
433.680974	18567.159430
434.057910	18873.651502
434.434786	18888.585920
434.811601	18794.092012
435.188355	19843.327527
435.565050	19485.834102
435.941683	19436.690413
436.318257	20324.825774
436.694770	20132.263780
437.071222	20732.395501
437.447614	19794.551842
437.823946	19816.392642
438.200218	19961.267841
438.576429	19744.614173
438.952580	20026.886020
439.328670	19972.013061
439.704700	20397.075591
440.080670	19969.749583
440.456580	20553.033768
440.832429	20729.363247
441.208218	19725.528364
441.583947	20169.759882
441.959616	20275.054463
442.335224	20507.615492
442.710773	20647.089096
443.086261	21176.611896
443.461689	20541.376100
443.837057	20658.393883
444.212365	21300.767953
444.587612	21299.981533
444.962800	20868.957838
445.337927	21294.884927
445.712995	20024.345279
446.088002	21879.860419
446.462949	22069.543915
446.837837	22244.227457
447.212664	22196.926311
447.587431	25050.841970
447.962139	27987.593870
448.336786	30363.348525
448.711374	28786.427711
449.085901	25091.637508
449.460369	25034.831266
449.834776	24947.112668
450.209124	27442.821579
450.583412	26965.381460
450.957640	27491.582140
451.331808	26128.086136
451.705917	24761.018474
452.079965	24789.735407
452.453954	25153.661344
452.827883	25032.406471
453.201752	24821.592978
453.575562	24979.582740
453.949311	26101.302485
454.323001	26139.012837
454.696632	25889.631997
455.070202	27433.429910
455.443713	27554.480616
455.817164	28127.284243
456.190556	28645.504776
456.563888	28077.371778
456.937160	28484.681886
457.310373	26814.340929
457.683526	27235.279796
458.056619	27201.569600
458.429653	27120.848124
458.802628	27656.662284
459.175542	27752.582839
459.548398	28999.033333
459.921194	30519.944407
460.293930	31141.783337
460.666607	33081.437856
461.039224	34771.220022
461.411782	35090.022591
461.784280	33866.121178
462.156719	33336.787422
462.529099	32742.425301
462.901419	31432.879725
463.273680	30350.657420
463.645882	30374.602901
464.018024	30284.998912
464.390106	31033.504394
464.762130	33547.434556
465.134094	37347.489092
465.505999	42321.525016
465.877845	46679.045469
466.249631	47701.134370
466.621358	45917.944664
466.993026	43735.561108
467.364634	41619.206586
467.736184	39617.921441
468.107674	38309.812594
468.479105	37431.411701
468.850477	36659.686664
469.221790	35204.111465
469.593043	33460.222594
469.964238	32509.617254
470.335373	32302.360296
470.706449	33732.797783
471.077467	35931.834790
471.448425	39943.292634
471.819324	42399.131059
472.190164	40559.021685
472.560945	37149.465008
472.931667	34188.828121
473.302330	33041.002761
473.672934	32149.691473
474.043479	32419.529315
474.413965	31552.917160
474.784393	31064.431873
475.154761	31683.702335
475.525070	31522.584537
475.895321	30963.883539
476.265513	31282.179472
476.635645	31932.203493
477.005719	31599.338625
477.375734	31796.394808
477.745691	32181.496112
478.115588	33059.529001
478.485427	34499.637941
478.855207	37011.929728
479.224928	38973.926640
479.594591	40113.338315
479.964194	38986.080862
480.333739	38855.144453
480.703226	38585.132691
481.072653	38823.692694
481.442022	38928.243704
481.811333	38850.713278
482.180584	37500.357042
482.549777	36767.985773
482.918912	36060.548050
483.287988	35523.418149
483.657005	34590.043473
484.025964	33806.605316
484.394864	33516.570091
484.763706	32880.895715
485.132489	31954.596298
485.501213	31541.524152
485.869879	31337.896825
486.238487	30757.561715
486.607036	30581.761557
486.975527	29906.171324
487.343959	29739.641848
487.712333	29488.393261
488.080648	29101.275495
488.448905	29101.928324
488.817104	28648.458892
489.185244	28942.164077
489.553326	29685.567911
489.921350	31112.668153
490.289315	32727.208578
490.657222	32788.216622
491.025070	32608.237347
491.392861	31591.005598
491.760593	30362.544461
492.128267	28907.107893
492.495883	27626.566596
492.863440	26447.632275
493.230939	25340.252092
493.598380	24399.963474
493.965763	23893.191401
494.333088	23119.817907
494.700354	22555.959808
495.067563	22092.975198
495.434713	21717.356304
495.801805	21443.891352
496.168839	20943.408119
496.535815	20485.139508
496.902733	20188.684374
497.269593	19705.066321
497.636395	19369.333036
498.003139	19255.970089
498.369825	18719.896310
498.736453	18558.307164
499.103023	18059.051452
499.469535	17709.107155
499.835989	17458.251778
500.202385	17041.176955
500.568723	16759.618431
500.935003	16563.681384
501.301226	16206.762650
501.667390	16143.959956
502.033497	15981.876777
502.399546	15498.586399
502.765537	14998.849257
503.131470	14863.826992
503.497345	14720.615373
503.863163	14042.401220
504.228923	13968.979334
504.594625	13834.577132
504.960269	13379.308007
505.325856	13323.762054
505.691385	12896.499059
506.056856	12686.603057
506.422270	12558.323336
506.787625	12204.653626
507.152924	12013.314111
507.518164	11816.658700
507.883347	11399.420040
508.248472	11236.273178
508.613540	11121.357556
508.978550	10970.637138
509.343503	10692.793944
509.708398	10523.214569
510.073236	10420.236399
510.438016	10216.659483
510.802738	9896.735258
511.167403	9817.695006
511.532010	9661.275564
511.896561	9518.540334
512.261053	9472.779260
512.625488	9194.368936
512.989866	8983.341195
513.354186	8772.273125
513.718449	8585.780679
514.082655	8510.919545
514.446803	8288.725648
514.810894	8187.965585
515.174927	8007.053697
515.538904	7831.740010
515.902822	7747.678770
516.266684	7513.857452
516.630488	7410.642347
516.994235	7244.674960
517.357925	7162.378123
517.721558	7034.098402
518.085133	6919.061792
518.448651	6796.607124
518.812112	6636.265664
519.175516	6508.752198
519.538863	6410.250572
519.902152	6282.106962
520.265385	6195.532707
520.628560	6078.920736
520.991678	5936.331699
521.354739	5846.400035
521.717743	5759.059524
522.080690	5641.237677
522.443580	5573.948355
522.806413	5472.139732
523.169189	5371.160380
523.531908	5284.550836
523.894569	5181.975958
524.257174	5103.376808
524.619722	5030.128843
524.982213	4944.295637
525.344647	4859.652143
525.707025	4783.616420
526.069345	4728.123398
526.431608	4649.496522
526.793815	4593.086010
527.155964	4501.735261
527.518057	4440.573462
527.880093	4368.212740
528.242072	4328.503571
528.603995	4259.064197
528.965860	4199.858366
529.327669	4153.923372
529.689421	4090.558589
530.051117	4046.826579
530.412755	4001.418386
530.774337	3960.206953
531.135862	3911.191814
531.497331	3874.877863
531.858743	3831.559228
532.220098	3804.248777
532.581396	3759.359822
532.942638	3714.090261
533.303824	3694.661654
533.664953	3661.395080
534.026025	3621.950571
534.387040	3606.602778
534.747999	3577.369127
535.108902	3556.846590
535.469748	3521.258564
535.830537	3498.457426
536.191270	3481.025116
536.551947	3457.069552
536.912567	3440.895010
537.273131	3420.735436
537.633638	3394.224008
537.994089	3381.653891
538.354483	3354.787062
538.714821	3351.875795
539.075103	3343.981348
539.435328	3326.876713
539.795497	3304.927529
540.155609	3294.993936
540.515665	3286.595373
540.875665	3266.531581
541.235609	3257.485231
541.595496	3246.896287
541.955328	3249.202615
542.315102	3228.188565
542.674821	3214.138869
543.034483	3203.151674
543.394090	3193.749922
543.753640	3185.487471
544.113134	3190.523584
544.472571	3167.528361
544.831953	3177.890452
545.191278	3158.184582
545.550548	3143.358549
545.909761	3146.448776
546.268918	3139.141623
546.628019	3141.513486
546.987064	3124.582771
547.346053	3105.655759
547.704986	3113.759414
548.063863	3101.446396
548.422684	3097.388267
548.781449	3086.922831
549.140158	3085.183633
549.498811	3080.699527
549.857408	3065.240829
550.215949	3066.843916
550.574434	3060.973492
550.932864	3054.601473
551.291237	3055.284550
551.649555	3048.393292
552.007817	3048.456307
552.366022	3038.719318
552.724173	3036.281920
553.082267	3035.087167
553.440305	3036.198741
553.798288	3021.087883
554.156215	3018.534538
554.514086	3019.157121
554.871902	3010.241840
555.229661	3005.830831
555.587365	3001.147599
555.945014	2998.682474
556.302606	2994.430261
556.660143	2993.137205
557.017625	2990.165445
557.375050	2983.070021
557.732421	2985.749394
558.089735	2980.829228
558.446994	2978.490133
558.804197	2980.201604
559.161345	2975.969556
559.518437	2962.663430
559.875474	2966.381281
560.232455	2960.790642
560.589381	2959.104376
560.946251	2959.656382
561.303065	2955.855352
561.659825	2954.489199
562.016528	2945.765483
562.373177	2939.227106
562.729770	2943.033177
563.086307	2934.133020
563.442789	2938.929678
563.799216	2933.583534
564.155587	2929.522885
564.511904	2925.880651
564.868164	2926.336876
565.224370	2923.165990
565.580520	2918.659198
565.936615	2924.832091
566.292654	2915.523601
566.648638	2918.180289
567.004567	2911.634350
567.360441	2910.779875
567.716260	2905.693351
568.072023	2905.564801
568.427732	2901.718401
568.783385	2895.855539
569.138982	2896.248749
569.494525	2895.540467
569.850013	2887.948489
570.205445	2889.677605
570.560823	2890.161556
570.916145	2885.800958
571.271412	2884.507902
571.626625	2879.968343
571.981782	2878.894577
572.336884	2870.732949
572.691931	2872.325953
573.046923	2869.172712
573.401860	2865.565766
573.756743	2862.576362
574.111570	2863.748430
574.466342	2860.375898
574.821059	2859.322297
575.175722	2851.523632
575.530330	2850.303673
575.884882	2847.450380
576.239380	2841.781602
576.593823	2843.354442
576.948211	2841.098526
577.302544	2834.234995
577.656823	2826.774087
578.011047	2833.090653
578.365216	2825.642348
578.719330	2823.635969
579.073389	2815.980977
579.427394	2820.288643
579.781344	2814.824032
580.135239	2811.121304
580.489080	2806.889256
580.842866	2801.936322
581.196597	2806.732980
581.550273	2804.308185
581.903895	2798.974644
582.257463	2799.975313
582.610975	2794.137657
582.964434	2793.021042
583.317837	2788.655402
583.671186	2784.637603
584.024481	2785.199691
584.377721	2779.891356
584.730906	2779.354473
585.084037	2775.931530
585.437113	2771.717125
585.790135	2772.869029
586.143103	2764.057092
586.496016	2766.365941
586.848874	2757.223808
587.201679	2758.080804
587.554428	2751.179465
587.907124	2749.717530
588.259765	2746.123187
588.612352	2747.698548
588.964884	2745.062024
589.317362	2742.417939
589.669786	2739.794019
590.022155	2737.127248
590.374470	2738.100191
590.726731	2731.352607
591.078937	2725.386401
591.431090	2724.418499
591.783188	2720.007490
592.135232	2718.611090
592.487222	2716.642520
592.839157	2716.140925
593.191038	2709.456355
593.542866	2709.562219
593.894639	2703.885880
594.246358	2700.594006
594.598022	2699.948739
594.949633	2695.023531
595.301190	2693.440609
595.652692	2693.554035
596.004141	2691.572862
596.355535	2687.194619
596.706876	2683.444001
597.058162	2680.885615
597.409395	2681.102385
597.760573	2680.129442
598.111698	2676.744307
598.462768	2675.095850
598.813785	2674.211128
599.164748	2671.468740
599.515657	2670.326919
599.866511	2666.467915
600.217312	2665.946156
600.568060	2662.354334
600.918753	2667.370282
601.269392	2664.706032
601.619978	2658.286123
601.970510	2661.709066
602.320988	2659.233860
602.671412	2659.243942
603.021783	2655.710093
603.372100	2654.764877
603.722363	2652.813950
604.072572	2654.117088
604.422728	2652.380411
604.772830	2647.750111
605.122878	2645.887405
605.472872	2645.927734
605.822813	2645.358084
606.172701	2645.111067
606.522534	2647.251037
606.872314	2648.362611
607.222041	2645.617703
607.571714	2651.868734
607.921333	2640.750469
608.270899	2641.042856
608.620411	2641.897332
608.969870	2639.054121
609.319276	2639.850623
609.668627	2640.405150
610.017926	2640.367341
610.367171	2642.179636
610.716362	2641.070582
611.065500	2638.366003
611.414585	2643.074441
611.763616	2639.437248
612.112594	2638.202166
612.461518	2640.684934
612.810389	2639.500263
613.159207	2638.665952
613.507971	2637.947587
613.856682	2639.674183
614.205340	2637.584624
614.553945	2642.451858
614.902496	2633.970117
615.250994	2637.990437
615.599439	2640.435397
615.947830	2637.211579
616.296169	2640.712660
616.644454	2637.110756
616.992686	2638.023205
617.340864	2641.085706
617.688990	2638.673514
618.037063	2641.332722
618.385082	2640.894142
618.733048	2641.877167
619.080961	2638.492032
619.428821	2639.225520
619.776628	2642.111581
620.124382	2636.089922
620.472083	2637.594707
620.819731	2637.950108
621.167326	2632.646814
621.514868	2634.156640
621.862357	2633.561784
622.209793	2632.422483
622.557176	2629.458284
622.904506	2627.366206
623.251783	2622.745988
623.599007	2622.564507
623.946179	2620.064094
624.293297	2621.619290
624.640363	2620.966461
624.987376	2618.087962
625.334336	2616.681480
625.681243	2613.966819
626.028097	2616.505040
626.374899	2613.583691
626.721647	2612.106633
627.068343	2613.535800
627.414987	2611.920110
627.761577	2607.191508
628.108115	2607.569594
628.454600	2604.428956
628.801032	2605.263267
629.147412	2607.451127
629.493739	2606.667228
629.840014	2603.914758
630.186236	2603.070365
630.532405	2601.316043
630.878521	2604.141610
631.224585	2601.091712
631.570597	2600.733790
631.916556	2601.540374
632.262462	2600.353183
632.608316	2600.141454
632.954117	2598.949221
633.299866	2600.622884
633.645562	2596.905033
633.991206	2598.208172
634.336797	2594.757502
634.682336	2593.083839
635.027823	2591.818509
635.373257	2590.865731
635.718639	2590.883375
636.063968	2587.704928
636.409245	2585.126377
636.754470	2583.301480
637.099642	2583.581264
637.444762	2584.264340
637.789829	2580.949782
638.134845	2578.724112
638.479808	2583.228383
638.824719	2577.660429
639.169577	2575.850654
639.514383	2576.448031
639.859137	2573.884604
640.203839	2576.500963
