Dividing Wavelength (nm)	Counts (n)	Blue Motor Position (mm): 0.000000	Red Motor Position (mm): 36.000000	
326.493990	1992.548825
326.888308	1992.548825
327.282561	1992.548825
327.676750	1965.916409
328.070874	1969.735083
328.464933	1973.823459
328.858929	1983.658750
329.252859	1996.564104
329.646726	2012.471465
330.040528	2026.624505
330.434265	2044.336599
330.827938	2064.332335
331.221547	2082.339337
331.615091	2104.699375
332.008571	2123.018928
332.401986	2145.043729
332.795338	2166.642553
333.188625	2188.095183
333.581847	2206.548327
333.975006	2226.256718
334.368100	2243.338667
334.761129	2258.038672
335.154095	2270.530651
335.546996	2299.144240
335.939833	2340.766527
336.332606	2351.310100
336.725315	2361.878879
337.117960	2372.379603
337.510540	2378.055942
337.903056	2390.318549
338.295508	2395.543705
338.687896	2403.173491
339.080220	2409.134656
339.472480	2414.735377
339.864676	2420.701583
340.256807	2422.501275
340.648875	2424.575710
341.040879	2427.897830
341.432818	2428.028900
341.824694	2428.001174
342.216506	2428.104517
342.608253	2429.763057
342.999937	2428.255752
343.391557	2427.799528
343.783113	2425.498241
344.174605	2422.607139
344.566033	2422.105544
344.957397	2419.390883
345.348697	2419.837025
345.739934	2415.791499
346.131106	2414.755542
346.522215	2414.926941
346.913260	2409.162382
347.304241	2410.505849
347.695159	2408.620458
348.086012	2411.199008
348.476802	2408.471744
348.867528	2406.861095
349.258191	2401.635939
349.648789	2405.187432
350.039324	2403.654921
350.429796	2406.593914
350.820203	2402.311454
351.210548	2401.514952
351.600828	2401.935888
351.991045	2396.869528
352.381198	2400.340363
352.771288	2400.983110
353.161314	2400.776423
353.551276	2401.547719
353.941175	2399.990003
354.331010	2402.737431
354.720782	2400.811711
355.110490	2399.695095
355.500135	2400.884807
355.889717	2403.571742
356.279235	2400.345404
356.668689	2405.129459
357.058080	2402.984448
357.447408	2402.618964
357.836672	2401.666186
358.225873	2400.761299
358.615010	2403.158368
359.004084	2408.585170
359.393095	2406.856054
359.782043	2410.435273
360.170927	2409.953843
360.559748	2410.894018
360.948505	2407.811353
361.337199	2410.210942
361.725830	2411.612383
362.114398	2417.734864
362.502903	2414.374935
362.891344	2413.790161
363.279722	2415.045408
363.668037	2413.555748
364.056289	2418.455749
364.444478	2416.358629
364.832603	2420.883065
365.220665	2420.126892
365.608665	2421.500606
365.996601	2422.077818
366.384474	2424.300967
366.772284	2425.818354
367.160031	2426.161153
367.547715	2425.614187
367.935336	2425.737696
368.322893	2427.504620
368.710388	2429.707604
369.097820	2430.970413
369.485189	2430.302461
369.872495	2432.729776
370.259738	2435.353697
370.646918	2437.501228
371.034035	2440.357042
371.421090	2442.902825
371.808081	2444.513473
372.195010	2452.589402
372.581875	2456.461008
372.968678	2464.456278
373.355418	2472.486836
373.742096	2482.246510
374.128710	2495.184631
374.515262	2504.636795
374.901751	2520.178672
375.288177	2536.464119
375.674540	2557.684857
376.060841	2581.058166
376.447079	2602.112545
376.833254	2631.046248
377.219367	2650.462252
377.605417	2690.483972
377.991404	2714.837787
378.377329	2756.762542
378.763191	2793.719241
379.148991	2841.431242
379.534727	2890.380846
379.920402	2940.119390
380.306013	2989.615959
380.691563	3053.560475
381.077049	3112.204218
381.462474	3167.850995
381.847835	3243.861512
382.233134	3316.857420
382.618371	3376.259856
383.003545	3462.912250
383.388657	3547.497770
383.773706	3638.863643
384.158693	3714.780899
384.543618	3812.717915
384.928480	3890.442425
385.313280	4000.274044
385.698017	4102.987554
386.082692	4230.440526
386.467305	4290.316831
386.851856	4421.553189
387.236344	4576.936674
387.620770	4643.931088
388.005133	4763.918111
388.389435	4917.701030
388.773674	5002.760418
389.157851	5138.853928
389.541965	5271.171614
389.926018	5296.538700
390.310008	5477.725331
390.693936	5605.165700
391.077802	5722.826231
391.461606	5859.063414
391.845348	5977.616229
392.229027	6096.988231
392.612645	6324.981976
392.996200	6442.352640
393.379694	6620.501976
393.763125	6850.981009
394.146494	6946.896523
394.529801	7083.569765
394.913047	7333.800039
395.296230	7327.428021
395.679351	7388.161322
396.062410	7657.227867
396.445408	7548.462452
396.828343	7707.649488
397.211217	7842.215528
397.594028	7726.707570
397.976778	7937.074920
398.359466	8099.178263
398.742092	8076.109943
399.124656	8224.004794
399.507158	8414.580574
399.889598	8440.731560
400.271977	8650.297366
400.654294	8686.565947
401.036549	8885.366370
401.418742	8911.703878
401.800874	9219.700734
402.182944	9299.688722
402.564952	9674.881638
402.946898	9490.307352
403.328783	9546.178460
403.710606	9751.582794
404.092367	10013.687506
404.474067	10384.355987
404.855705	10164.841463
405.237282	10113.290624
405.618797	10556.445856
406.000250	10803.873248
406.381642	11171.396049
406.762972	11125.962650
407.144240	10922.904973
407.525447	11183.273007
407.906593	11111.744075
408.287677	11377.702749
408.668700	11536.698221
409.049661	11509.095383
409.430560	11675.337513
409.811399	11648.521096
410.192176	11814.954790
410.572891	11887.706202
410.953545	12381.313301
411.334138	11854.724453
411.714669	12463.857154
412.095139	11763.618200
412.475547	12271.814398
412.855894	12112.178700
413.236180	12442.354112
413.616405	12124.378292
413.996568	12406.985377
414.376670	12384.839588
414.756711	12254.760175
415.136691	12543.058722
415.516609	12723.358110
415.896466	12791.685909
416.276262	13086.212802
416.655997	13528.994988
417.035670	13559.952714
417.415283	14227.162029
417.794834	14321.202233
418.174324	14057.302870
418.553753	13959.234784
418.933121	14468.151868
419.312428	14261.172173
419.691674	14181.627807
420.070859	14638.741993
420.449983	14296.906392
420.829045	14853.346433
421.208047	14593.759777
421.586988	15052.658533
421.965867	15312.144365
422.344686	15305.517768
422.723444	15882.190480
423.102141	14551.963571
423.480777	15755.750780
423.859352	15254.234110
424.237866	16379.684309
424.616319	16081.205152
424.994712	16744.303405
425.373044	16543.665482
425.751314	17222.164461
426.129524	16335.657392
426.507673	17441.565558
426.885762	17142.423489
427.263789	17339.154518
427.641756	17505.593253
428.019662	17570.954334
428.397508	17613.274820
428.775292	17927.827697
429.153016	17873.632772
429.530679	17971.133729
429.908282	17990.383375
430.285824	17696.479064
430.663305	18417.096883
431.040726	18000.705137
431.418086	17828.796750
431.795385	18489.543305
432.172624	18911.187933
432.549802	18465.181929
432.926920	18645.778745
433.303977	18542.114978
433.680974	18799.498649
434.057910	19088.606302
434.434786	19111.110013
434.811601	19023.025932
435.188355	20079.626572
435.565050	19721.034175
435.941683	19664.084260
436.318257	20557.616177
436.694770	20362.891527
437.071222	20965.001901
437.447614	20031.062616
437.823946	20067.303471
438.200218	20211.906449
438.576429	19984.986470
438.952580	20263.984089
439.328670	20212.271933
439.704700	20638.703136
440.080670	20206.356138
440.456580	20804.110956
440.832429	20980.011937
441.208218	19957.035793
441.583947	20414.268447
441.959616	20523.911022
442.335224	20753.490209
442.710773	20893.656972
443.086261	21433.930032
443.461689	20796.760953
443.837057	20919.694531
444.212365	21574.046383
444.587612	21565.000032
444.962800	21134.293930
445.337927	21560.271430
445.712995	20282.870772
446.088002	22158.895846
446.462949	22342.381243
446.837837	22531.764790
447.212664	22483.122697
447.587431	25355.373033
447.962139	28318.772472
448.336786	30716.337679
448.711374	29129.700041
449.085901	25421.023979
449.460369	25370.241916
449.834776	25295.148888
450.209124	27795.931721
450.583412	27323.923445
450.957640	27839.565428
451.331808	26476.119835
451.705917	25104.232831
452.079965	25151.995243
452.453954	25517.451170
452.827883	25403.687451
453.201752	25195.487797
453.575562	25369.619334
453.949311	26487.293553
454.323001	26557.330303
454.696632	26307.926778
455.070202	27883.201656
455.443713	28014.216203
455.817164	28611.250135
456.190556	29143.212854
456.563888	28579.004395
456.937160	29032.297387
457.310373	27340.463471
457.683526	27809.396643
458.056619	27795.094889
458.429653	27711.610861
458.802628	28300.813361
459.175542	28415.965918
459.548398	29727.495188
459.921194	31307.007155
460.293930	31978.388024
460.666607	34015.767830
461.039224	35793.029139
461.411782	36184.749478
461.784280	34998.371894
462.156719	34507.005587
462.529099	33955.548727
462.901419	32642.325629
463.273680	31581.414802
463.645882	31677.731088
464.018024	31654.135967
464.390106	32488.966168
464.762130	35207.778904
465.134094	39287.229310
465.505999	44588.055512
465.877845	49187.984888
466.249631	50367.188911
466.621358	48675.337351
466.993026	46577.796414
467.364634	44513.769069
467.736184	42518.485417
468.107674	41263.858172
468.479105	40462.186161
468.850477	39787.362183
469.221790	38332.681788
469.593043	36558.223361
469.964238	35679.903126
470.335373	35602.231548
470.706449	37344.224945
471.077467	39933.215367
471.448425	44498.373385
471.819324	47329.767689
472.190164	45460.033975
472.560945	41903.560430
472.931667	38795.419382
473.302330	37664.376023
473.672934	36849.753288
474.043479	37354.942438
474.413965	36559.019863
474.784393	36170.117529
475.154761	37074.712258
475.525070	37105.175950
475.895321	36632.224979
476.265513	37224.426965
476.635645	38215.875733
477.005719	38031.344297
477.375734	38501.779733
477.745691	39226.107841
478.115588	40551.462475
478.485427	42529.835575
478.855207	45891.836528
479.224928	48492.285493
479.594591	50139.631226
479.964194	49146.934772
480.333739	49315.395010
480.703226	49336.703968
481.072653	49976.988479
481.442022	50456.321552
481.811333	50713.654812
482.180584	49422.133881
482.549777	48888.179907
482.918912	48359.680461
483.287988	48080.259386
483.657005	47241.058505
484.025964	46602.513192
484.394864	46611.977958
484.763706	46188.773092
485.132489	45301.479604
485.501213	45143.381458
485.869879	45288.435618
486.238487	44867.927770
486.607036	45061.122430
486.975527	44500.818344
487.343959	44728.013066
487.712333	44802.763295
488.080648	44711.636878
488.448905	45156.690104
488.817104	44968.299664
489.185244	45938.323528
489.553326	47610.660782
489.921350	50309.596248
490.289315	53183.769785
490.657222	53766.567498
491.025070	54032.400144
491.392861	53138.953927
491.760593	51907.168149
492.128267	50252.865624
492.495883	48727.359538
492.863440	47320.968355
493.230939	45958.835983
493.598380	44859.985433
493.965763	44531.665165
494.333088	43701.220768
494.700354	43232.499325
495.067563	42919.267231
495.434713	42792.189824
495.801805	42860.116852
496.168839	42471.819456
496.535815	42131.274391
496.902733	42153.382371
497.269593	41749.840526
497.636395	41675.700276
498.003139	42060.899883
498.369825	41526.441793
498.736453	41843.278312
499.103023	41357.669004
499.469535	41218.651625
499.835989	41312.684267
500.202385	40968.237348
500.568723	40990.478919
500.935003	41178.529081
501.301226	40967.834056
501.667390	41595.329161
502.033497	41847.175124
502.399546	41265.262133
502.765537	40577.951218
503.131470	40963.055042
503.497345	41315.416573
503.863163	39972.496038
504.228923	40586.304410
504.594625	40994.315237
504.960269	40289.572012
505.325856	40970.636938
505.691385	40334.695380
506.056856	40459.557199
506.422270	40903.987843
506.787625	40474.849539
507.152924	40655.171612
507.518164	40759.747828
507.883347	39961.833998
508.248472	40231.520605
508.613540	40694.275843
508.978550	41007.003822
509.343503	40725.218445
509.708398	40931.056318
510.073236	41452.210803
510.438016	41455.732049
510.802738	40904.892730
511.167403	41524.314426
511.532010	41753.276072
511.896561	42045.816751
512.261053	42889.874783
512.625488	42427.449741
512.989866	42304.332161
513.354186	42143.657985
513.718449	42106.691204
514.082655	42778.513174
514.446803	42456.622898
514.810894	42975.478617
515.174927	42890.028538
515.538904	42768.022533
515.902822	43449.152994
516.266684	42877.839028
516.630488	43295.145744
516.994235	43140.357115
517.357925	43716.606370
517.721558	43863.626581
518.085133	44135.274197
518.448651	44283.950427
518.812112	44035.023291
519.175516	44130.109535
519.538863	44459.523733
519.902152	44392.118465
520.265385	44837.113718
520.628560	44865.679416
520.991678	44643.026774
521.354739	44878.483947
521.717743	45186.115319
522.080690	45046.682045
522.443580	45575.080667
522.806413	45597.987670
523.169189	45527.935797
523.531908	45680.619744
523.894569	45533.050047
524.257174	45676.483477
524.619722	45944.793849
524.982213	45914.224292
525.344647	45821.956053
525.707025	45838.934660
526.069345	46175.330856
526.431608	46090.420181
526.793815	46359.683331
527.155964	45886.182874
527.518057	46010.848088
527.880093	45777.659435
528.242072	46249.408091
528.603995	45933.179031
528.965860	45890.863585
529.327669	45956.995962
529.689421	45825.983935
530.051117	45732.848618
530.412755	45839.342993
530.774337	45857.627258
531.135862	45632.670809
531.497331	45784.296114
531.858743	45638.667261
532.220098	45945.640763
532.581396	45601.861797
532.942638	45202.516713
533.303824	45466.106045
533.664953	45368.897475
534.026025	45050.074741
534.387040	45476.745400
534.747999	45347.429721
535.108902	45467.242825
535.469748	44931.161484
535.830537	44997.795455
536.191270	45119.718282
536.551947	44725.046347
536.912567	44961.960413
537.273131	45018.769176
537.633638	44446.013440
537.994089	44713.451693
538.354483	44252.657464
538.714821	44734.921967
539.075103	45005.279048
539.435328	44701.068099
539.795497	44527.934711
540.155609	44427.507365
540.515665	44795.355320
540.875665	44211.438470
541.235609	44452.561899
541.595496	44335.609651
541.955328	44904.594603
542.315102	44215.267226
542.674821	43922.199747
543.034483	43884.078542
543.394090	43764.570428
543.753640	43645.906708
544.113134	44517.307959
544.472571	43476.319772
544.831953	44573.804170
545.191278	43748.181637
545.550548	43371.178947
545.909761	43716.603849
546.268918	43816.980784
546.628019	43998.434596
546.987064	43496.088657
547.346053	42712.471538
547.704986	43447.398672
548.063863	42907.947320
548.422684	42992.298426
548.781449	42749.859256
549.140158	43007.832742
549.498811	42757.582303
549.857408	42119.735189
550.215949	42786.231181
550.574434	42591.569545
550.932864	42276.220167
551.291237	42807.993842
551.649555	42320.801611
552.007817	42429.148610
552.366022	41966.937816
552.724173	42025.596682
553.082267	42254.994388
553.440305	42398.843713
553.798288	41636.994297
554.156215	41785.693212
554.514086	41844.011800
554.871902	41488.963335
555.229661	41364.484644
555.587365	41055.683724
555.945014	41010.598164
556.302606	40800.077059
556.660143	40867.973840
557.017625	40794.594804
557.375050	40454.160644
557.732421	40622.056273
558.089735	40439.831164
558.446994	40227.507846
558.804197	40477.155867
559.161345	40272.608529
559.518437	39476.386006
559.875474	39569.181045
560.232455	39543.934947
560.589381	39527.974653
560.946251	39102.967576
561.303065	39533.943380
561.659825	39200.486176
562.016528	38745.189325
562.373177	38336.813014
562.729770	38585.498174
563.086307	38004.916048
563.442789	38193.896303
563.799216	38062.717918
564.155587	37703.505459
564.511904	37560.979437
564.868164	37436.132742
565.224370	37443.167672
565.580520	37051.865748
565.936615	37029.172994
566.292654	36608.181196
566.648638	36620.915150
567.004567	36385.483183
567.360441	36218.799952
567.716260	35921.167708
568.072023	35917.953973
568.427732	35719.652624
568.783385	35175.681877
569.138982	35265.976505
569.494525	35030.776431
569.850013	34665.411244
570.205445	34436.048826
570.560823	34195.217784
570.916145	33904.436468
571.271412	33714.556367
571.626625	33329.802903
571.981782	33164.707635
572.336884	32738.951946
572.691931	32758.521705
573.046923	32248.046905
573.401860	31945.199588
573.756743	31723.822357
574.111570	31590.945104
574.466342	31290.046193
574.821059	31138.219242
575.175722	30611.814395
575.530330	30411.229404
575.884882	30016.933036
576.239380	29800.586877
576.593823	29553.653518
576.948211	29275.381825
577.302544	28761.171530
577.656823	28561.690552
578.011047	28486.751279
578.365216	28099.933463
578.719330	27758.138191
579.073389	27450.950440
579.427394	27288.612683
579.781344	27057.914360
580.135239	26627.500644
580.489080	26468.258156
580.842866	25960.513141
581.196597	26008.923341
581.550273	25751.920277
581.903895	25464.856812
582.257463	25495.696071
582.610975	24928.407467
582.964434	24863.759710
583.317837	24454.942298
583.671186	24150.335617
584.024481	24060.635847
584.377721	23613.576241
584.730906	23553.831006
585.084037	23364.891081
585.437113	23003.188292
585.790135	22811.198469
586.143103	22402.131519
586.496016	22265.211260
586.848874	22073.160943
587.201679	21873.679964
587.554428	21421.357394
587.907124	21307.865898
588.259765	20981.007565
588.612352	20909.130793
588.964884	20418.384549
589.317362	20357.424396
589.669786	20142.025974
590.022155	19827.405042
590.374470	19828.158695
590.726731	19427.069371
591.078937	19035.268374
591.431090	18870.631851
591.783188	18554.443120
592.135232	18227.362976
592.487222	18131.760014
592.839157	17980.621180
593.191038	17662.771389
593.542866	17371.009569
593.894639	16972.405535
594.246358	16895.989204
594.598022	16705.247066
594.949633	16384.392747
595.301190	16198.507761
595.652692	15962.659899
596.004141	15894.354785
596.355535	15396.606377
596.706876	15212.110229
597.058162	14989.949099
597.409395	14993.125026
597.760573	14851.476165
598.111698	14550.786462
598.462768	14396.804417
598.813785	14253.484413
599.164748	13922.275565
599.515657	13881.268299
599.866511	13580.863420
600.217312	13606.013737
600.568060	13157.282989
600.918753	13218.114592
601.269392	13058.262125
601.619978	12810.489413
601.970510	12717.280999
602.320988	12610.912653
602.671412	12557.083212
603.021783	12336.013492
603.372100	12109.849687
603.722363	12000.943120
604.072572	11881.646735
604.422728	11744.555076
604.772830	11569.778272
605.122878	11460.526386
605.472872	11314.224540
605.822813	11245.369940
606.172701	11081.300547
606.522534	11005.796665
606.872314	10940.332242
607.222041	10764.015365
607.571714	10724.974149
607.921333	10482.227468
608.270899	10430.837946
608.620411	10374.374502
608.969870	10222.003107
609.319276	10104.153532
609.668627	9999.955403
610.017926	9979.919337
610.367171	9893.589578
610.716362	9797.099372
611.065500	9687.905459
611.414585	9611.700857
611.763616	9552.666425
612.112594	9435.106718
612.461518	9374.696050
612.810389	9320.904418
613.159207	9190.061270
613.507971	9106.688147
613.856682	9084.128984
614.205340	8970.813928
614.553945	8982.668201
614.902496	8804.894431
615.250994	8779.098847
615.599439	8696.560035
615.947830	8635.836816
616.296169	8555.788334
616.644454	8484.382911
616.992686	8425.429137
617.340864	8413.083351
617.688990	8289.670864
618.037063	8288.765977
618.385082	8207.089202
618.733048	8164.259559
619.080961	8085.625121
619.428821	8007.658636
619.776628	7940.467617
620.124382	7839.256371
620.472083	7770.333715
620.819731	7701.622788
621.167326	7578.109478
621.514868	7488.969275
621.862357	7360.157712
622.209793	7281.445136
622.557176	7163.978690
622.904506	7060.085550
623.251783	6944.716224
623.599007	6853.032759
623.946179	6753.419559
624.293297	6680.320307
624.640363	6551.448250
624.987376	6490.299054
625.334336	6400.997534
625.681243	6303.557072
626.028097	6237.376804
626.374899	6170.495816
626.721647	6112.184789
627.068343	6044.451846
627.414987	5972.103727
627.761577	5901.005814
628.108115	5873.652513
628.454600	5775.034941
628.801032	5745.261886
629.147412	5694.368917
629.493739	5645.368902
629.840014	5568.153549
630.186236	5552.178132
630.532405	5484.021732
630.878521	5452.194407
631.224585	5405.505761
631.570597	5342.017469
631.916556	5312.909847
632.262462	5276.154794
632.608316	5232.327003
632.954117	5183.367317
633.299866	5143.305267
633.645562	5097.350109
633.991206	5022.400754
634.336797	4947.322850
634.682336	4906.297940
635.027823	4850.575546
635.373257	4796.899860
635.718639	4742.082353
636.063968	4693.062173
