Dividing Wavelength (nm)	Counts (n)	Blue Motor Position (mm): 0.000000	Red Motor Position (mm): 17.600000	
326.493990	1982.527011
326.888308	1982.527011
327.282561	1982.527011
327.676750	1956.461725
328.070874	1962.006995
328.464933	1963.640328
328.858929	1976.485188
329.252859	1984.919039
329.646726	2001.489312
330.040528	2017.240397
330.434265	2038.057842
330.827938	2054.509647
331.221547	2073.479509
331.615091	2095.942891
332.008571	2115.479882
332.401986	2139.448048
332.795338	2157.245842
333.188625	2176.450118
333.581847	2193.794207
333.975006	2211.990252
334.368100	2233.500856
334.761129	2248.793196
335.154095	2264.907244
335.546996	2279.468617
335.939833	2295.617953
336.332606	2309.818884
336.725315	2320.901860
337.117960	2329.668427
337.510540	2333.988696
337.903056	2347.100737
338.295508	2354.949813
338.687896	2359.544825
339.080220	2365.193438
339.472480	2370.942874
339.864676	2378.764224
340.256807	2378.277753
340.648875	2381.262116
341.040879	2382.701365
341.432818	2381.771273
341.824694	2384.105327
342.216506	2385.390821
342.608253	2384.135574
342.999937	2382.040974
343.391557	2379.797661
343.783113	2376.757845
344.174605	2378.600387
344.566033	2377.708103
344.957397	2376.289018
345.348697	2376.329347
345.739934	2369.324664
346.131106	2373.287011
346.522215	2369.115456
346.913260	2364.704446
347.304241	2368.477750
347.695159	2363.166894
348.086012	2362.882069
348.476802	2364.102028
348.867528	2362.110773
349.258191	2357.828312
349.648789	2357.964423
350.039324	2355.272447
350.429796	2358.266893
350.820203	2356.928466
351.210548	2354.758250
351.600828	2354.483507
351.991045	2355.345544
352.381198	2353.071984
352.771288	2354.846470
353.161314	2354.241531
353.551276	2354.430575
353.941175	2353.122395
354.331010	2356.240349
354.720782	2352.643486
355.110490	2356.527695
355.500135	2354.896881
355.889717	2355.090966
356.279235	2357.167921
356.668689	2354.735564
357.058080	2355.731192
357.447408	2355.763960
357.836672	2353.676922
358.225873	2357.064578
358.615010	2355.698425
359.004084	2359.759074
359.393095	2358.536594
359.782043	2362.244363
360.170927	2360.815196
360.559748	2362.965248
360.948505	2365.770650
361.337199	2364.901051
361.725830	2362.511544
362.114398	2365.498428
362.502903	2367.532533
362.891344	2367.837523
363.279722	2365.684951
363.668037	2369.430528
364.056289	2367.469519
364.444478	2372.792977
364.832603	2369.034797
365.220665	2370.743748
365.608665	2372.125025
365.996601	2373.004706
366.384474	2374.418750
366.772284	2375.706764
367.160031	2376.016795
367.547715	2374.738863
367.935336	2375.023688
368.322893	2377.950078
368.710388	2374.159130
369.097820	2380.768083
369.485189	2377.052753
369.872495	2380.314379
370.259738	2380.518546
370.646918	2387.505585
371.034035	2389.244783
371.421090	2390.547921
371.808081	2394.548077
372.195010	2400.267266
372.581875	2401.126783
372.968678	2405.689027
373.355418	2419.443815
373.742096	2423.144022
374.128710	2435.288162
374.515262	2447.815429
374.901751	2461.580300
375.288177	2479.005048
375.674540	2495.887872
376.060841	2517.655574
376.447079	2540.189532
376.833254	2565.107956
377.219367	2592.564600
377.605417	2625.904271
377.991404	2652.882006
378.377329	2693.932122
378.763191	2722.891030
379.148991	2769.748555
379.534727	2819.237562
379.920402	2861.643748
380.306013	2913.423960
380.691563	2973.743886
381.077049	3027.331352
381.462474	3084.354363
381.847835	3156.679798
382.233134	3224.637072
382.618371	3285.841721
383.003545	3368.352807
383.388657	3448.111422
383.773706	3540.654404
384.158693	3614.280456
384.543618	3704.428889
384.928480	3780.235240
385.313280	3882.999162
385.698017	3983.048421
386.082692	4104.159622
386.467305	4166.546421
386.851856	4288.837252
387.236344	4443.278041
387.620770	4506.683154
388.005133	4623.491729
388.389435	4769.153349
388.773674	4849.335422
389.157851	4983.024301
389.541965	5110.988950
389.926018	5140.152025
390.310008	5308.609743
390.693936	5428.546355
391.077802	5545.352410
391.461606	5674.050547
391.845348	5786.876611
392.229027	5908.275157
392.612645	6124.613754
392.996200	6242.102886
393.379694	6409.943062
393.763125	6635.837166
394.146494	6726.351083
394.529801	6859.674479
394.913047	7098.012671
395.296230	7095.088802
395.679351	7144.696276
396.062410	7405.026502
396.445408	7295.101622
396.828343	7449.882689
397.211217	7574.263078
397.594028	7461.938608
397.976778	7661.964031
398.359466	7831.127510
398.742092	7801.228427
399.124656	7945.372659
399.507158	8128.167418
399.889598	8147.742219
400.271977	8347.303855
400.654294	8380.872899
401.036549	8578.889422
401.418742	8603.061755
401.800874	8899.191734
402.182944	8975.310637
402.564952	9340.824538
402.946898	9164.994133
403.328783	9215.362821
403.710606	9402.465246
404.092367	9658.437395
404.474067	10010.468729
404.855705	9803.219333
405.237282	9760.198126
405.618797	10173.693729
406.000250	10420.962325
406.381642	10781.959352
406.762972	10720.424508
407.144240	10527.325630
407.525447	10775.567169
407.906593	10697.298215
408.287677	10951.316916
408.668700	11101.865934
409.049661	11072.644886
409.430560	11224.635674
409.811399	11187.121928
410.192176	11335.969557
410.572891	11398.749567
410.953545	11853.133968
411.334138	11337.345792
411.714669	11902.217163
412.095139	11220.673328
412.475547	11692.895852
412.855894	11520.639625
413.236180	11813.139974
413.616405	11484.630663
413.996568	11722.918444
414.376670	11670.412306
414.756711	11521.153823
415.136691	11745.003739
415.516609	11871.912267
415.896466	11893.947150
416.276262	12104.221239
416.655997	12461.359262
417.035670	12430.688882
417.415283	12980.247748
417.794834	13000.800533
418.174324	12676.238445
418.553753	12500.453410
418.933121	12872.130122
419.312428	12604.719595
419.691674	12437.837238
420.070859	12742.436357
420.449983	12333.185405
420.829045	12712.396121
421.208047	12377.285419
421.586988	12656.658603
421.965867	12745.191347
422.344686	12612.137653
422.723444	12937.498764
423.102141	11761.097623
423.480777	12558.275445
423.859352	12040.826208
424.237866	12744.087335
424.616319	12359.966535
424.994712	12699.034543
425.373044	12384.678271
425.751314	12703.939585
426.129524	11918.540419
426.507673	12491.873367
426.885762	12120.796553
427.263789	12059.599465
427.641756	11989.668579
428.019662	11842.073677
428.397508	11686.861591
428.775292	11673.898264
429.153016	11469.545011
429.530679	11318.867443
429.908282	11140.443364
430.285824	10797.024841
430.663305	10970.301901
431.040726	10577.845554
431.418086	10300.992946
431.795385	10427.609087
432.172624	10430.195199
432.549802	10026.713848
432.926920	9913.529862
433.303977	9669.906020
433.680974	9575.439838
434.057910	9507.515331
434.434786	9324.574378
434.811601	9098.965100
435.188355	9298.481366
435.565050	8979.194846
435.941683	8765.891024
436.318257	8880.332778
436.694770	8622.908777
437.071222	8623.017162
437.447614	8127.260011
437.823946	7937.034591
438.200218	7801.049466
438.576429	7549.289202
438.952580	7442.638551
439.328670	7262.387054
439.704700	7194.525561
440.080670	6929.391116
440.456580	6901.173257
440.832429	6772.185254
441.208218	6388.389609
441.583947	6329.841648
441.959616	6197.458427
442.335224	6089.073620
442.710773	5965.840093
443.086261	5913.802783
443.461689	5663.774155
443.837057	5548.520775
444.212365	5512.587430
444.587612	5383.755703
444.962800	5188.146331
445.337927	5122.439931
445.712995	4833.428061
446.088002	4947.403508
446.462949	4854.764744
446.837837	4754.586935
447.212664	4634.181496
447.587431	4810.062313
447.962139	4989.141741
448.336786	5111.944249
448.711374	4844.896686
449.085901	4406.333945
449.460369	4278.765027
449.834776	4166.591792
450.209124	4242.453595
450.583412	4129.151142
450.957640	4073.660641
451.331808	3903.612440
451.705917	3732.997108
452.079965	3655.822084
452.453954	3600.760081
452.827883	3522.654964
453.201752	3455.012762
453.575562	3400.764905
453.949311	3384.872668
454.323001	3329.876200
454.696632	3268.795059
455.070202	3271.948301
455.443713	3229.615212
455.817164	3195.418544
456.190556	3164.256652
456.563888	3110.328909
456.937160	3075.098805
457.310373	3005.465347
457.683526	2977.464258
458.056619	2947.217335
458.429653	2915.387489
458.802628	2898.676064
459.175542	2873.137579
459.548398	2869.954090
459.921194	2872.923330
460.293930	2869.548278
460.666607	2877.283928
461.039224	2880.429608
461.411782	2868.285468
461.784280	2832.848677
462.156719	2807.269863
462.529099	2784.037705
462.901419	2754.065525
463.273680	2730.276320
463.645882	2717.749053
464.018024	2708.846375
464.390106	2705.216744
464.762130	2719.578992
465.134094	2752.774990
465.505999	2789.083900
465.877845	2819.204795
466.249631	2817.740339
466.621358	2797.303502
466.993026	2771.959101
467.364634	2749.536048
467.736184	2720.909856
468.107674	2701.874459
468.479105	2694.673171
468.850477	2681.535924
469.221790	2668.348266
469.593043	2650.399237
469.964238	2640.039666
470.335373	2636.823410
470.706449	2643.202990
471.077467	2652.816471
471.448425	2680.618434
471.819324	2694.595033
472.190164	2678.118022
472.560945	2656.708242
472.931667	2632.193110
473.302330	2621.480658
473.672934	2614.753239
474.043479	2616.699124
474.413965	2606.518514
474.784393	2597.890579
475.154761	2599.899479
475.525070	2600.098604
475.895321	2595.438058
476.265513	2594.311360
476.635645	2602.566249
477.005719	2600.249839
477.375734	2601.681527
477.745691	2602.437700
478.115588	2609.419698
478.485427	2616.557972
478.855207	2633.697895
479.224928	2647.843372
479.594591	2652.002324
479.964194	2648.236582
480.333739	2644.624596
480.703226	2643.545789
481.072653	2645.695841
481.442022	2649.448980
481.811333	2651.346974
482.180584	2639.354069
482.549777	2638.267701
482.918912	2637.148565
483.287988	2630.693367
483.657005	2622.874537
484.025964	2624.396966
484.394864	2621.977212
484.763706	2619.446553
485.132489	2615.070831
485.501213	2615.698455
485.869879	2613.694596
486.238487	2613.929010
486.607036	2614.629730
486.975527	2609.986828
487.343959	2606.594131
487.712333	2610.763165
488.080648	2608.091354
488.448905	2614.082765
488.817104	2611.138731
489.185244	2615.476644
489.553326	2622.120885
489.921350	2636.556229
490.289315	2650.789927
490.657222	2652.655154
491.025070	2654.240597
491.392861	2651.067190
491.760593	2642.782054
492.128267	2635.810138
492.495883	2628.361833
492.863440	2619.857407
493.230939	2615.758949
493.598380	2609.676797
493.965763	2606.261415
494.333088	2601.953749
494.700354	2600.932915
495.067563	2601.767226
495.434713	2597.802359
495.801805	2598.225816
496.168839	2598.094746
496.535815	2599.952411
496.902733	2597.820003
497.269593	2596.471494
497.636395	2599.660024
498.003139	2599.889397
498.369825	2597.106680
498.736453	2600.690940
499.103023	2595.221288
499.469535	2596.849581
499.835989	2599.004674
500.202385	2600.242277
500.568723	2599.455857
500.935003	2599.614654
501.301226	2601.127000
501.667390	2603.577001
502.033497	2607.940119
502.399546	2607.015068
502.765537	2603.370313
503.131470	2607.337701
503.497345	2607.927516
503.863163	2605.565736
504.228923	2606.833586
504.594625	2615.171654
504.960269	2609.147476
505.325856	2617.735081
505.691385	2613.621500
506.056856	2617.535956
506.422270	2620.149794
506.787625	2622.163735
507.152924	2624.465022
507.518164	2628.603809
507.883347	2624.351596
508.248472	2626.728500
508.613540	2632.203193
508.978550	2636.195787
509.343503	2639.470016
509.708398	2642.030922
510.073236	2648.569299
510.438016	2652.105668
510.802738	2649.595173
511.167403	2652.818991
511.532010	2657.499703
511.896561	2663.405414
512.261053	2669.331291
512.625488	2666.649397
512.989866	2668.310457
513.354186	2667.755930
513.718449	2666.016732
514.082655	2679.206911
514.446803	2675.320182
514.810894	2683.333096
515.174927	2684.447191
515.538904	2683.391069
515.902822	2690.978005
516.266684	2688.477593
516.630488	2692.334076
516.994235	2691.620752
517.357925	2695.845239
517.721558	2702.509645
518.085133	2705.055427
518.448651	2704.057279
518.812112	2702.711291
519.175516	2704.604244
519.538863	2708.279245
519.902152	2710.615820
520.265385	2712.954916
520.628560	2714.636140
520.991678	2714.061449
521.354739	2715.535986
521.717743	2717.426419
522.080690	2718.112016
522.443580	2723.546380
522.806413	2723.206102
523.169189	2722.638972
523.531908	2725.056205
523.894569	2724.297512
524.257174	2724.675598
524.619722	2729.215157
524.982213	2727.720455
525.344647	2729.288254
525.707025	2727.619632
526.069345	2734.261352
526.431608	2731.619788
526.793815	2732.244891
527.155964	2732.796897
527.518057	2732.872514
527.880093	2732.738924
528.242072	2734.470560
528.603995	2732.965776
528.965860	2730.341855
529.327669	2731.997874
529.689421	2730.397308
530.051117	2732.454099
530.412755	2733.288410
530.774337	2735.171281
531.135862	2734.246229
531.497331	2732.186917
531.858743	2730.785477
532.220098	2732.607854
532.581396	2728.862277
532.942638	2727.692729
533.303824	2732.012998
533.664953	2732.595251
534.026025	2728.521999
534.387040	2732.454099
534.747999	2730.362020
535.108902	2730.866135
535.469748	2727.886813
535.830537	2727.652400
536.191270	2729.235322
536.551947	2728.436299
536.912567	2724.035372
537.273131	2725.855228
537.633638	2721.509754
537.994089	2724.229456
538.354483	2720.221739
538.714821	2721.724003
539.075103	2722.402038
539.435328	2722.321379
539.795497	2717.428940
540.155609	2713.885008
540.515665	2715.667056
540.875665	2709.819318
541.235609	2709.201777
541.595496	2708.881663
541.955328	2708.120449
542.315102	2705.826724
542.674821	2700.319263
543.034483	2699.860518
543.394090	2697.748275
543.753640	2696.777853
544.113134	2697.856660
544.472571	2691.078828
544.831953	2694.660568
545.191278	2686.740916
545.550548	2682.957530
545.909761	2682.571881
546.268918	2678.528876
546.628019	2679.532066
546.987064	2673.281035
547.346053	2667.448420
547.704986	2668.459171
548.063863	2661.787204
548.422684	2659.465753
548.781449	2656.493992
549.140158	2652.443425
549.498811	2651.853610
549.857408	2644.685090
550.215949	2640.836169
550.574434	2636.697381
550.932864	2636.798204
551.291237	2632.266207
551.649555	2631.610857
552.007817	2631.641104
552.366022	2625.195989
552.724173	2626.007615
553.082267	2620.558127
553.440305	2621.132819
553.798288	2615.522015
554.156215	2611.544544
554.514086	2611.410954
554.871902	2604.789398
555.229661	2601.280755
555.587365	2596.337904
555.945014	2599.723038
556.302606	2591.916812
556.660143	2591.931935
557.017625	2588.725761
557.375050	2587.034454
557.732421	2585.922880
558.089735	2582.978846
558.446994	2580.614545
558.804197	2580.105388
559.161345	2576.790830
559.518437	2570.534758
559.875474	2568.009140
560.232455	2570.461661
560.589381	2567.270611
560.946251	2566.862277
561.303065	2566.955538
561.659825	2563.013356
562.016528	2560.820454
562.373177	2561.982440
562.729770	2557.644527
563.086307	2553.591440
563.442789	2555.749053
563.799216	2552.704197
564.155587	2550.155893
564.511904	2547.899977
564.868164	2551.264947
565.224370	2548.744370
565.580520	2544.421581
565.936615	2548.394010
566.292654	2546.591798
566.648638	2543.816642
567.004567	2542.291693
567.360441	2541.515356
567.716260	2540.023174
568.072023	2540.996117
568.427732	2536.005374
568.783385	2536.978317
569.138982	2534.039324
569.494525	2533.968748
569.850013	2532.572349
570.205445	2535.707946
570.560823	2533.996475
570.916145	2532.312729
571.271412	2531.881711
571.626625	2533.058820
571.981782	2531.070085
572.336884	2533.381454
572.691931	2534.014119
573.046923	2530.361803
573.401860	2526.974147
573.756743	2527.127903
574.111570	2525.698735
574.466342	2525.169414
574.821059	2526.996832
575.175722	2524.231760
575.530330	2524.612367
575.884882	2522.008611
576.239380	2522.573220
576.593823	2522.618590
576.948211	2520.758405
577.302544	2519.140194
577.656823	2519.518281
578.011047	2521.791841
578.365216	2519.540966
578.719330	2519.183044
579.073389	2518.797396
579.427394	2519.392252
579.781344	2518.154649
580.135239	2518.094155
580.489080	2515.417302
580.842866	2517.912673
581.196597	2515.782786
581.550273	2515.495440
581.903895	2515.898732
582.257463	2515.046777
582.610975	2513.080727
582.964434	2512.127949
583.317837	2514.338495
583.671186	2515.724813
584.024481	2513.993176
584.377721	2511.948988
584.730906	2512.243896
585.084037	2514.794720
585.437113	2511.472599
585.790135	2512.420336
586.143103	2510.915552
586.496016	2512.327075
586.848874	2506.265087
587.201679	2508.828514
587.554428	2507.076713
587.907124	2508.455469
588.259765	2504.972031
588.612352	2509.153668
588.964884	2505.874398
589.317362	2508.657115
589.669786	2506.136538
590.022155	2509.410767
590.374470	2507.444717
590.726731	2506.935561
591.078937	2510.355984
591.431090	2505.274501
591.783188	2502.973214
592.135232	2503.457165
592.487222	2503.852895
592.839157	2504.838441
593.191038	2503.323574
593.542866	2505.135869
593.894639	2501.075219
594.246358	2502.133862
594.598022	2501.909530
594.949633	2501.193687
595.301190	2499.134375
595.652692	2500.833244
596.004141	2500.543378
596.355535	2499.262925
596.706876	2494.741010
597.058162	2495.683705
597.409395	2496.260918
597.760573	2499.658655
598.111698	2496.402070
598.462768	2498.005157
598.813785	2496.775115
599.164748	2497.405259
599.515657	2494.322594
599.866511	2496.896103
600.217312	2496.570948
600.568060	2492.946359
600.918753	2493.901658
601.269392	2495.252687
601.619978	2494.965341
601.970510	2495.134220
602.320988	2493.253869
602.671412	2493.362254
603.021783	2492.785042
603.372100	2492.797645
603.722363	2493.374857
604.072572	2496.306288
604.422728	2495.212357
604.772830	2488.268168
605.122878	2490.050216
605.472872	2487.590133
605.822813	2485.326655
606.172701	2491.544918
606.522534	2491.499548
606.872314	2490.546770
607.222041	2491.270175
607.571714	2489.599033
607.921333	2491.870072
608.270899	2492.875783
608.620411	2490.990391
608.969870	2491.325628
609.319276	2491.693632
609.668627	2490.871924
610.017926	2491.169352
610.367171	2492.774960
610.716362	2493.379898
611.065500	2490.014928
611.414585	2489.667088
611.763616	2490.216574
612.112594	2489.679691
612.461518	2488.661378
612.810389	2489.780514
613.159207	2490.753457
613.507971	2489.329331
613.856682	2488.487458
614.205340	2492.031389
614.553945	2494.294868
614.902496	2490.458549
615.250994	2492.144815
615.599439	2492.187665
615.947830	2491.834784
616.296169	2491.091214
616.644454	2489.115082
616.992686	2489.374701
617.340864	2493.125320
617.688990	2490.027531
618.037063	2488.825216
618.385082	2490.125833
618.733048	2493.319404
619.080961	2490.836636
619.428821	2492.742192
619.776628	2494.012563
620.124382	2489.420072
620.472083	2492.848056
620.819731	2489.593992
621.167326	2490.665237
621.514868	2490.166162
621.862357	2489.041985
622.209793	2488.333703
622.557176	2487.945534
622.904506	2486.017293
623.251783	2481.129894
623.599007	2483.539566
623.946179	2482.269195
624.293297	2484.842704
624.640363	2482.269195
624.987376	2484.555358
625.334336	2481.618886
625.681243	2482.092755
626.028097	2481.502940
626.374899	2480.903042
626.721647	2483.035450
627.068343	2479.269708
627.414987	2479.751139
627.761577	2481.951602
628.108115	2481.775162
628.454600	2478.289204
628.801032	2479.768783
629.147412	2479.229379
629.493739	2478.954636
629.840014	2477.951447
630.186236	2476.071096
630.532405	2476.043370
630.878521	2475.060345
631.224585	2477.621251
631.570597	2476.862558
631.916556	2477.442290
632.262462	2478.463124
632.608316	2476.877681
632.954117	2476.751652
633.299866	2475.821559
633.645562	2476.696199
633.991206	2474.576394
634.336797	2470.780405
634.682336	2472.948102
635.027823	2470.480457
635.373257	2474.047073
635.718639	2470.729994
636.063968	2474.077320
636.409245	2469.116825
636.754470	2470.377113
637.099642	2469.005919
637.444762	2466.865949
637.789829	2471.715539
638.134845	2467.985086
638.479808	2466.775209
638.824719	2467.430559
639.169577	2465.862760
639.514383	2464.728500
639.859137	2466.208079
640.203839	2466.132462
640.548489	2464.806638
640.893086	2464.615074
641.237632	2459.221040
641.582125	2459.178190
641.926566	2458.328755
642.270955	2462.616257
642.615292	2463.785804
642.959576	2463.198510
643.303809	2462.734724
