Dividing Wavelength (nm)	Counts (n)	Blue Motor Position (mm): 0.000000	Red Motor Position (mm): 44.000000	
326.493990	1994.799700
326.888308	1994.799700
327.282561	1994.799700
327.676750	1971.191977
328.070874	1975.179530
328.464933	1982.549697
328.858929	1989.866931
329.252859	2002.847902
329.646726	2015.917094
330.040528	2030.420493
330.434265	2052.856149
330.827938	2071.190825
331.221547	2091.063054
331.615091	2109.322113
332.008571	2130.583179
332.401986	2152.103865
332.795338	2171.527431
333.188625	2193.174145
333.581847	2212.065869
333.975006	2230.103118
334.368100	2247.167424
334.761129	2265.499580
335.154095	2279.052722
335.546996	2315.346509
335.939833	2382.366129
336.332606	2399.992523
336.725315	2411.877043
337.117960	2419.864752
337.510540	2426.511513
337.903056	2436.034252
338.295508	2441.894594
338.687896	2450.527570
339.080220	2456.765998
339.472480	2462.349076
339.864676	2467.561629
340.256807	2466.187914
340.648875	2472.068420
341.040879	2472.113791
341.432818	2471.927268
341.824694	2474.052114
342.216506	2474.256281
342.608253	2473.686631
342.999937	2471.110601
343.391557	2471.639922
343.783113	2471.632360
344.174605	2470.349387
344.566033	2467.985086
344.957397	2468.398460
345.348697	2467.420476
345.739934	2463.624488
346.131106	2463.402677
346.522215	2461.958386
346.913260	2457.975875
347.304241	2461.988633
347.695159	2455.795576
348.086012	2453.920266
348.476802	2453.453960
348.867528	2451.402210
349.258191	2453.287602
349.648789	2449.955399
350.039324	2448.112857
350.429796	2448.354832
350.820203	2448.034719
351.210548	2447.812908
351.600828	2447.079421
351.991045	2445.821653
352.381198	2444.271498
352.771288	2447.959102
353.161314	2445.720830
353.551276	2448.178392
353.941175	2448.674946
354.331010	2447.283587
354.720782	2446.965995
355.110490	2450.013372
355.500135	2448.601849
355.889717	2445.546910
356.279235	2449.368104
356.668689	2452.917077
357.058080	2450.893053
357.447408	2446.691252
357.836672	2447.054215
358.225873	2450.192333
358.615010	2449.917590
359.004084	2453.542180
359.393095	2454.210133
359.782043	2457.852366
360.170927	2456.846656
360.559748	2455.253652
360.948505	2457.590226
361.337199	2460.816565
361.725830	2459.417645
362.114398	2461.151802
362.502903	2461.837398
362.891344	2460.955197
363.279722	2462.984261
363.668037	2465.671196
364.056289	2463.206072
364.444478	2465.025928
364.832603	2468.219499
365.220665	2465.683799
365.608665	2468.932823
365.996601	2470.840899
366.384474	2471.133286
366.772284	2471.763430
367.160031	2472.428863
367.547715	2472.857361
367.935336	2470.961887
368.322893	2475.514049
368.710388	2475.430870
369.097820	2481.533187
369.485189	2476.118987
369.872495	2482.256592
370.259738	2482.657364
370.646918	2484.504947
371.034035	2486.465956
371.421090	2491.665906
371.808081	2495.318222
372.195010	2498.358038
372.581875	2504.740138
372.968678	2512.616941
373.355418	2518.144566
373.742096	2531.901875
374.128710	2542.405119
374.515262	2553.606563
374.901751	2570.832186
375.288177	2589.159301
375.674540	2607.804008
376.060841	2627.570372
376.447079	2654.419558
376.833254	2678.954853
377.219367	2705.403267
377.605417	2738.707650
377.991404	2767.119593
378.377329	2809.203145
378.763191	2842.726818
379.148991	2895.358985
379.534727	2949.085082
379.920402	2992.020590
380.306013	3044.690565
380.691563	3111.833693
381.077049	3170.943742
381.462474	3226.356106
381.847835	3305.630770
382.233134	3377.774723
382.618371	3441.232768
383.003545	3529.021941
383.388657	3614.343470
383.773706	3710.145558
384.158693	3785.533493
384.543618	3878.507493
384.928480	3961.018579
385.313280	4070.182245
385.698017	4176.290972
386.082692	4304.903409
386.467305	4367.413717
386.851856	4499.171834
387.236344	4658.893232
387.620770	4724.481164
388.005133	4845.819217
388.389435	4999.483668
388.773674	5088.633954
389.157851	5223.295776
389.541965	5357.513976
389.926018	5384.065734
390.310008	5566.381583
390.693936	5696.027457
391.077802	5817.055479
391.461606	5955.026818
391.845348	6068.477986
392.229027	6193.654877
392.612645	6424.655669
392.996200	6543.445419
393.379694	6727.550878
393.763125	6956.494880
394.146494	7052.924591
394.529801	7192.231836
394.913047	7443.999662
395.296230	7444.327337
395.679351	7498.928075
396.062410	7773.441587
396.445408	7665.197931
396.828343	7824.863877
397.211217	7965.451575
397.594028	7838.999272
397.976778	8050.957106
398.359466	8225.257521
398.742092	8196.311215
399.124656	8347.928958
399.507158	8536.382413
399.889598	8561.787308
400.271977	8779.234958
400.654294	8815.480854
401.036549	9018.286473
401.418742	9043.719095
401.800874	9357.357002
402.182944	9437.939846
402.564952	9815.509666
402.946898	9636.541143
403.328783	9695.212612
403.710606	9894.113857
404.092367	10157.075566
404.474067	10533.377536
404.855705	10314.455347
405.237282	10266.445919
405.618797	10706.823475
406.000250	10959.365118
406.381642	11339.694970
406.762972	11282.999633
407.144240	11086.848337
407.525447	11352.605365
407.906593	11276.259610
408.287677	11547.622401
408.668700	11705.685260
409.049661	11674.384735
409.430560	11837.176196
409.811399	11811.030252
410.192176	11979.296405
410.572891	12052.665358
410.953545	12559.818038
411.334138	12012.434430
411.714669	12648.953200
412.095139	11924.574680
412.475547	12451.544136
412.855894	12284.588682
413.236180	12627.223306
413.616405	12295.124694
413.996568	12584.635638
414.376670	12558.729149
414.756711	12432.037391
415.136691	12726.360117
415.516609	12915.479004
415.896466	12985.316628
416.276262	13272.576698
416.655997	13724.750554
417.035670	13757.064350
417.415283	14431.119552
417.794834	14525.661351
418.174324	14258.409621
418.553753	14154.070339
418.933121	14668.820038
419.312428	14470.551457
419.691674	14381.088620
420.070859	14846.843345
420.449983	14499.374254
420.829045	15060.704214
421.208047	14801.588907
421.586988	15264.167704
421.965867	15532.518406
422.344686	15525.455749
422.723444	16109.501148
423.102141	14760.195992
423.480777	15983.071531
423.859352	15473.496576
424.237866	16618.443438
424.616319	16317.224413
424.994712	16988.663256
425.373044	16773.685771
425.751314	17472.704766
426.129524	16564.941672
426.507673	17703.067853
426.885762	17379.047689
427.263789	17601.788551
427.641756	17760.862161
428.019662	17828.756421
428.397508	17869.040281
428.775292	18189.463581
429.153016	18136.486096
429.530679	18231.020333
429.908282	18253.181245
430.285824	17968.424109
430.663305	18697.420325
431.040726	18278.661758
431.418086	18096.282894
431.795385	18770.484288
432.172624	19181.411424
432.549802	18737.920955
432.926920	18921.950797
433.303977	18818.352565
433.680974	19070.639630
434.057910	19363.603765
434.434786	19391.370440
434.811601	19303.394744
435.188355	20362.720128
435.565050	20012.254071
435.941683	19952.274423
436.318257	20855.049295
436.694770	20656.783235
437.071222	21258.966706
437.447614	20324.452729
437.823946	20358.472956
438.200218	20505.576346
438.576429	20285.814805
438.952580	20558.468132
439.328670	20516.792913
439.704700	20938.099784
440.080670	20511.126656
440.456580	21106.761668
440.832429	21290.410903
441.208218	20249.090000
441.583947	20704.775019
441.959616	20813.333747
442.335224	21063.551418
442.710773	21199.917150
443.086261	21750.340574
443.461689	21098.322777
443.837057	21212.298224
444.212365	21884.800750
444.587612	21878.935367
444.962800	21435.361720
445.337927	21877.065099
445.712995	20581.796071
446.088002	22483.410043
446.462949	22674.661337
446.837837	22861.988094
447.212664	22825.202794
447.587431	25750.052529
447.962139	28734.939886
448.336786	31128.192387
448.711374	29544.203875
449.085901	25780.188547
449.460369	25739.529121
449.834776	25653.947972
450.209124	28216.530310
450.583412	27722.058653
450.957640	28255.349715
451.331808	26876.379889
451.705917	25466.984179
452.079965	25514.464287
452.453954	25888.848097
452.827883	25769.082885
453.201752	25559.005401
453.575562	25720.337448
453.949311	26898.825627
454.323001	26949.189274
454.696632	26696.932456
455.070202	28292.293811
455.443713	28417.581607
455.817164	29026.545430
456.190556	29571.753781
456.563888	28994.037550
456.937160	29449.404977
457.310373	27741.908196
457.683526	28220.492657
458.056619	28205.656541
458.429653	28130.553431
458.802628	28723.773730
459.175542	28834.361522
459.548398	30155.794139
459.921194	31757.882913
460.293930	32427.786725
460.666607	34499.821943
461.039224	36283.828316
461.411782	36675.399941
461.784280	35465.429757
462.156719	34994.742263
462.529099	34431.872230
462.901419	33136.882986
463.273680	32042.534186
463.645882	32136.397950
464.018024	32112.044136
464.390106	32968.284117
464.762130	35701.229728
465.134094	39825.057411
465.505999	45176.191807
465.877845	49789.903698
466.249631	50973.848926
466.621358	49290.227050
466.993026	47177.161880
467.364634	45100.634994
467.736184	43113.039102
468.107674	41828.797598
468.479105	41018.648887
468.850477	40326.765645
469.221790	38856.379535
469.593043	37083.602332
469.964238	36198.998300
470.335373	36121.735055
470.706449	37889.667709
471.077467	40502.790134
471.448425	45115.420698
471.819324	47930.141386
472.190164	46037.417489
472.560945	42457.149699
472.931667	39322.164507
473.302330	38207.951039
473.672934	37374.345839
474.043479	37895.452433
474.413965	37061.259939
474.784393	36690.278907
475.154761	37598.515869
475.525070	37631.167422
475.895321	37167.650970
476.265513	37772.228989
476.635645	38768.713870
477.005719	38576.313192
477.375734	39049.042353
477.745691	39739.241849
478.115588	41125.874229
478.485427	43124.686688
478.855207	46504.301432
479.224928	49121.015680
479.594591	50768.537853
479.964194	49773.421646
480.333739	49934.060534
480.703226	49976.386062
481.072653	50631.191617
481.442022	51082.621903
481.811333	51353.745239
482.180584	50065.090205
482.549777	49539.207118
482.918912	49023.232419
483.287988	48714.305470
483.657005	47884.327380
484.025964	47246.505472
484.394864	47266.423071
484.763706	46842.366250
485.132489	45960.706251
485.501213	45791.719213
485.869879	45940.534074
486.238487	45515.542120
486.607036	45715.116359
486.975527	45190.070104
487.343959	45376.577673
487.712333	45445.371779
488.080648	45386.029836
488.448905	45831.834194
488.817104	45646.281924
489.185244	46609.164994
489.553326	48305.309097
489.921350	51022.178468
490.289315	53855.977403
490.657222	54434.848058
491.025070	54704.965684
491.392861	53815.449047
491.760593	52610.298205
492.128267	50968.906075
492.495883	49465.528134
492.863440	48060.561077
493.230939	46701.292081
493.598380	45595.946003
493.965763	45257.170382
494.333088	44431.580617
494.700354	43932.105614
495.067563	43660.377340
495.434713	43522.156463
495.801805	43578.851800
496.168839	43201.372720
496.535815	42840.269829
496.902733	42883.971592
497.269593	42465.681852
497.636395	42406.849066
498.003139	42805.208604
498.369825	42241.474014
498.736453	42552.772825
499.103023	42098.950512
499.469535	41952.031124
499.835989	42062.253433
500.202385	41712.714948
500.568723	41728.443348
500.935003	41933.204935
501.301226	41724.319685
501.667390	42350.398225
502.033497	42633.204435
502.399546	42047.606360
502.765537	41342.747188
503.131470	41729.635581
503.497345	42108.001904
503.863163	40750.283062
504.228923	41361.873326
504.594625	41794.215283
504.960269	41059.212531
505.325856	41780.054682
505.691385	41130.741463
506.056856	41273.776642
506.422270	41716.957079
506.787625	41284.194186
507.152924	41473.736530
507.518164	41587.422111
507.883347	40775.957658
508.248472	41048.631149
508.613540	41530.822556
508.978550	41850.101514
509.343503	41585.904723
509.708398	41797.071096
510.073236	42318.777587
510.438016	42329.492560
510.802738	41770.587395
511.167403	42411.502051
511.532010	42640.057884
511.896561	42938.821866
512.261053	43811.170854
512.625488	43340.901777
512.989866	43221.675968
513.354186	43068.596290
513.718449	43052.635997
514.082655	43732.097836
514.446803	43413.501954
514.810894	43933.191983
515.174927	43857.042834
515.538904	43747.700207
515.902822	44451.188185
516.266684	43871.957087
516.630488	44304.238550
516.994235	44145.943799
517.357925	44751.943423
517.721558	44896.480866
518.085133	45219.356687
518.448651	45358.283326
518.812112	45127.635414
519.175516	45232.647689
519.538863	45571.551860
519.902152	45523.139139
520.265385	45998.746798
520.628560	46050.070786
520.991678	45813.844837
521.354739	46064.024699
521.717743	46385.761220
522.080690	46263.354443
522.443580	46817.336922
522.806413	46868.194602
523.169189	46814.448340
523.531908	46995.047677
523.894569	46857.905607
524.257174	47036.241466
524.619722	47321.336360
524.982213	47313.777149
525.344647	47223.560660
525.707025	47251.826410
526.069345	47668.308897
526.431608	47587.388295
526.793815	47909.747398
527.155964	47425.796629
527.518057	47599.529914
527.880093	47384.925474
528.242072	47906.241276
528.603995	47595.708719
528.965860	47598.592259
529.327669	47699.271663
529.689421	47598.594780
530.051117	47542.461532
530.412755	47681.115948
530.774337	47771.002242
531.135862	47543.600833
531.497331	47743.593488
531.858743	47638.218249
532.220098	48005.317593
532.581396	47702.795430
532.942638	47369.212198
533.303824	47666.201694
533.664953	47626.041342
534.026025	47343.535081
534.387040	47827.551385
534.747999	47762.200387
535.108902	47922.940098
535.469748	47430.207639
535.830537	47545.786173
536.191270	47727.963391
536.551947	47395.779078
536.912567	47711.574599
537.273131	47809.708221
537.633638	47296.344839
537.994089	47653.666865
538.354483	47225.607369
538.714821	47814.194848
539.075103	48161.500101
539.435328	47909.419723
539.795497	47781.749982
540.155609	47775.274619
540.515665	48238.291997
540.875665	47701.197384
541.235609	48022.144964
541.595496	47984.306064
541.955328	48677.852886
542.315102	48036.119043
542.674821	47805.082962
543.034483	47872.793220
543.394090	47824.816559
543.753640	47787.312895
544.113134	48796.937543
544.472571	47788.749624
544.831953	49050.346265
545.191278	48251.895551
545.550548	47979.234663
545.909761	48435.975804
546.268918	48649.229215
546.628019	48949.601326
546.987064	48494.128034
547.346053	47767.261705
547.704986	48655.250873
548.063863	48203.097182
548.422684	48395.916275
548.781449	48227.740862
549.140158	48651.313732
549.498811	48494.722891
549.857408	47918.816434
550.215949	48752.671171
550.574434	48694.355103
550.932864	48437.974622
551.291237	49164.556126
551.649555	48765.510990
552.007817	49005.727012
552.366022	48645.458432
552.724173	48826.894600
553.082267	49219.887830
553.440305	49546.083252
553.798288	48834.494139
554.156215	49145.104833
554.514086	49351.530001
554.871902	49117.300349
555.229661	49125.532554
555.587365	48950.922108
555.945014	49030.862205
556.302606	48965.233944
556.660143	49192.426145
557.017625	49292.062030
557.375050	49064.315302
557.732421	49416.124826
558.089735	49397.807793
558.446994	49311.430143
558.804197	49800.585903
559.161345	49747.016082
559.518437	48978.373711
559.875474	49278.748342
560.232455	49440.768507
560.589381	49615.073963
560.946251	49311.228497
561.303065	50012.528614
561.659825	49816.019396
562.016528	49484.926494
562.373177	49207.680676
562.729770	49680.916473
563.086307	49187.266524
563.442789	49646.606380
563.799216	49713.759590
564.155587	49500.743114
564.511904	49513.066214
564.868164	49621.491351
565.224370	49866.884638
565.580520	49598.604513
565.936615	49790.380088
566.292654	49530.977434
566.648638	49767.745307
567.004567	49722.848791
567.360441	49776.002717
567.716260	49623.346496
568.072023	49896.612322
568.427732	49896.773639
568.783385	49449.197316
569.138982	49839.551502
569.494525	49807.124280
569.850013	49570.109391
570.205445	49547.174661
570.560823	49503.803094
570.916145	49404.462117
571.271412	49418.121123
571.626625	49178.053815
571.981782	49238.681252
572.336884	48921.968241
572.691931	49237.625130
573.046923	48842.799440
573.401860	48694.052634
573.756743	48685.316315
574.111570	48798.298655
574.466342	48640.717227
574.821059	48752.177138
575.175722	48267.707130
575.530330	48301.689548
575.884882	48017.686064
576.239380	47984.832864
576.593823	47949.224674
576.948211	47884.397956
577.302544	47382.845998
577.656823	47412.465298
578.011047	47639.307138
578.365216	47355.137296
578.719330	47153.425607
579.073389	47006.465890
579.427394	47079.739062
579.781344	47057.384065
580.135239	46710.653503
580.489080	46788.748538
580.842866	46273.184693
581.196597	46722.411995
581.550273	46674.410128
581.903895	46529.948303
582.257463	46948.301057
582.610975	46326.746953
582.964434	46599.881709
583.317837	46234.211533
583.671186	46076.932574
584.024481	46309.511248
584.377721	45840.605802
584.730906	46120.956970
585.084037	46172.132244
585.437113	45872.037396
585.790135	45911.305464
586.143103	45498.457649
586.496016	45617.043232
586.848874	45648.610937
587.201679	45668.150450
587.554428	45143.399102
587.907124	45329.463049
588.259765	45073.894193
588.612352	45341.224061
588.964884	44715.833638
589.317362	45008.802815
589.669786	44939.050889
590.022155	44711.883894
590.374470	45148.488147
590.726731	44650.263350
591.078937	44149.205425
591.431090	44246.761835
591.783188	43927.480356
592.135232	43588.515692
592.487222	43846.766442
592.839157	43928.097897
593.191038	43591.305970
593.542866	43350.147253
593.894639	42708.176475
594.246358	42988.663754
594.598022	42976.925428
594.949633	42583.395314
595.301190	42527.554453
595.652692	42343.471679
596.004141	42671.708768
596.355535	41675.022241
596.706876	41633.120170
597.058162	41458.660959
597.409395	41940.822119
597.760573	42027.623226
598.111698	41567.590212
598.462768	41590.023346
598.813785	41635.459266
599.164748	41054.380585
599.515657	41451.852881
599.866511	40914.854050
600.217312	41528.007072
600.568060	40462.349998
600.918753	41224.028015
601.269392	41185.874042
601.619978	40801.034878
601.970510	41024.020236
602.320988	41203.003883
602.671412	41507.779442
603.021783	41258.244847
603.372100	40903.587071
603.722363	41002.126505
604.072572	41081.065933
604.422728	41083.233629
604.772830	40903.907184
605.122878	40979.136323
605.472872	40902.402400
605.822813	41183.771881
606.172701	41003.243121
606.522534	41224.506925
606.872314	41502.977743
607.222041	41228.131514
607.571714	41613.174845
607.921333	41033.525332
608.270899	41330.807215
608.620411	41688.648480
608.969870	41467.442649
609.319276	41461.191618
609.668627	41500.195026
610.017926	41980.032213
610.367171	42138.178251
610.716362	42205.782644
611.065500	42130.810604
611.414585	42302.625730
611.763616	42599.572377
612.112594	42503.072090
612.461518	42714.475397
612.810389	42990.050072
613.159207	42839.337216
613.507971	42914.223556
613.856682	43379.053229
614.205340	43243.395779
614.553945	43927.858442
614.902496	43365.540416
615.250994	43815.758304
615.599439	43869.668403
615.947830	44069.129217
616.296169	44102.118528
616.644454	44204.859764
616.992686	44357.697466
617.340864	44841.401219
617.688990	44535.851843
618.037063	45114.924144
618.385082	45060.789714
618.733048	45352.279311
619.080961	45343.974010
619.428821	45330.020097
619.776628	45433.739316
620.124382	45235.470736
620.472083	45362.792638
620.819731	45479.979300
621.167326	45151.399413
621.514868	45108.080778
621.862357	44668.091391
622.209793	44679.302917
622.557176	44344.098954
622.904506	44102.141213
623.251783	43755.440898
623.599007	43505.061910
623.946179	43261.243984
624.293297	43201.256774
624.640363	42592.323198
624.987376	42565.857140
625.334336	42295.784885
625.681243	41927.800818
626.028097	41858.900848
626.374899	41687.904910
626.721647	41640.258444
627.068343	41489.076761
627.414987	41239.945458
627.761577	40994.327840
628.108115	41289.389095
628.454600	40723.184339
628.801032	40867.444518
629.147412	40812.831178
629.493739	40778.079984
629.840014	40390.332074
630.186236	40701.963602
630.532405	40284.208224
630.878521	40454.321961
631.224585	40313.862812
631.570597	39995.977733
631.916556	40136.809927
632.262462	40035.722189
632.608316	40026.207012
632.954117	39896.009131
633.299866	39886.317513
633.645562	39783.404878
633.991206	39275.556519
634.336797	38841.616516
634.682336	38820.534411
635.027823	38556.128412
