Dividing Wavelength (nm)	Counts (n)	Blue Motor Position (mm): 0.000000	Red Motor Position (mm): 36.800000	
326.493990	1992.473208
326.888308	1992.473208
327.282561	1992.473208
327.676750	1968.885649
328.070874	1967.335494
328.464933	1973.372276
328.858929	1983.560448
329.252859	1998.212562
329.646726	2013.474655
330.040528	2025.528054
330.434265	2047.237783
330.827938	2062.928374
331.221547	2083.955027
331.615091	2106.967894
332.008571	2126.784670
332.401986	2147.042547
332.795338	2166.077943
333.188625	2187.313804
333.581847	2205.164530
333.975006	2223.589947
334.368100	2244.041908
334.761129	2256.448188
335.154095	2272.829417
335.546996	2299.048458
335.939833	2340.920282
336.332606	2353.351768
336.725315	2364.359127
337.117960	2372.067051
337.510540	2380.624410
337.903056	2389.537170
338.295508	2396.272152
338.687896	2403.460837
339.080220	2412.963412
339.472480	2414.420305
339.864676	2422.672674
340.256807	2423.622932
340.648875	2424.043868
341.040879	2427.529826
341.432818	2428.840526
341.824694	2428.535536
342.216506	2430.206679
342.608253	2428.654003
342.999937	2429.478232
343.391557	2426.090577
343.783113	2425.135278
344.174605	2425.654517
344.566033	2425.341965
344.957397	2423.065884
345.348697	2421.051943
345.739934	2418.370049
346.131106	2416.623290
346.522215	2414.175809
346.913260	2415.995666
347.304241	2413.422157
347.695159	2411.587177
348.086012	2407.942423
348.476802	2405.830179
348.867528	2407.758421
349.258191	2403.218862
349.648789	2406.780437
350.039324	2404.025446
350.429796	2403.707853
350.820203	2401.646022
351.210548	2402.800446
351.600828	2401.167112
351.991045	2400.413459
352.381198	2405.003430
352.771288	2402.530744
353.161314	2401.502349
353.551276	2403.055024
353.941175	2401.787174
354.331010	2403.969993
354.720782	2403.339849
355.110490	2401.237688
355.500135	2405.205076
355.889717	2403.002092
356.279235	2405.227761
356.668689	2404.159037
357.058080	2404.080899
357.447408	2402.631567
357.836672	2401.333470
358.225873	2406.644326
358.615010	2404.723646
359.004084	2407.312278
359.393095	2409.311096
359.782043	2410.226065
360.170927	2409.671538
360.559748	2413.429719
360.948505	2413.225552
361.337199	2415.405851
361.725830	2415.413413
362.114398	2415.925090
362.502903	2416.590522
362.891344	2418.415420
363.279722	2416.272929
363.668037	2414.848803
364.056289	2417.621438
364.444478	2421.301480
364.832603	2418.097827
365.220665	2423.814496
365.608665	2422.980185
365.996601	2424.366502
366.384474	2424.827768
366.772284	2427.529826
367.160031	2428.686771
367.547715	2427.975968
367.935336	2429.226174
368.322893	2430.438572
368.710388	2428.404466
369.097820	2435.688933
369.485189	2432.341607
369.872495	2434.032914
370.259738	2436.195569
370.646918	2440.465427
371.034035	2441.244285
371.421090	2443.172526
371.808081	2449.496654
372.195010	2451.414813
372.581875	2459.168108
372.968678	2464.899899
373.355418	2475.168730
373.742096	2483.169041
374.128710	2494.589775
374.515262	2505.667711
374.901751	2519.175482
375.288177	2536.620395
375.674540	2562.489076
376.060841	2580.165882
376.447079	2602.659511
376.833254	2631.731845
377.219367	2656.839312
377.605417	2692.772656
377.991404	2718.656461
378.377329	2762.842174
378.763191	2794.520785
379.148991	2842.956191
379.534727	2895.414438
379.920402	2945.379834
380.306013	2992.673419
380.691563	3058.047102
381.077049	3115.261678
381.462474	3174.896007
381.847835	3249.764703
382.233134	3323.602484
382.618371	3385.419633
383.003545	3472.356852
383.388657	3552.997669
383.773706	3647.962925
384.158693	3722.869430
384.543618	3819.997341
384.928480	3900.693612
385.313280	4007.820651
385.698017	4116.492805
386.082692	4237.062081
386.467305	4303.597750
386.851856	4435.607926
387.236344	4591.550979
387.620770	4652.773272
388.005133	4778.907982
388.389435	4928.436167
388.773674	5015.433879
389.157851	5155.593080
389.541965	5287.414212
389.926018	5310.109486
390.310008	5493.947764
390.693936	5619.212875
391.077802	5742.302729
391.461606	5877.511516
391.845348	5993.924361
392.229027	6121.367251
392.612645	6350.671696
392.996200	6466.761907
393.379694	6641.289174
393.763125	6874.631582
394.146494	6971.935934
394.529801	7105.992818
394.913047	7358.494131
395.296230	7351.600353
395.679351	7408.772079
396.062410	7689.110645
396.445408	7578.122081
396.828343	7736.018581
397.211217	7875.996300
397.594028	7755.936180
397.976778	7967.082388
398.359466	8132.102039
398.742092	8104.347966
399.124656	8262.667923
399.507158	8450.692880
399.889598	8468.551167
400.271977	8691.516361
400.654294	8714.360349
401.036549	8918.015403
401.418742	8952.880023
401.800874	9257.557279
402.182944	9340.701029
402.564952	9711.062000
402.946898	9527.458135
403.328783	9588.413247
403.710606	9787.979925
404.092367	10058.032016
404.474067	10426.147152
404.855705	10207.527433
405.237282	10156.195884
405.618797	10598.925138
406.000250	10850.738335
406.381642	11217.658717
406.762972	11174.277068
407.144240	10970.798455
407.525447	11225.633823
407.906593	11160.978504
408.287677	11425.054307
408.668700	11593.219638
409.049661	11555.715974
409.430560	11723.571273
409.811399	11690.546675
410.192176	11852.834020
410.572891	11932.537183
410.953545	12431.281218
411.334138	11901.713048
411.714669	12518.142819
412.095139	11808.055971
412.475547	12320.002788
412.855894	12163.144765
413.236180	12501.338133
413.616405	12173.002742
413.996568	12466.770941
414.376670	12432.423039
414.756711	12300.332206
415.136691	12593.568563
415.516609	12789.210703
415.896466	12850.143129
416.276262	13146.053819
416.655997	13588.165532
417.035670	13620.552425
417.415283	14285.243683
417.794834	14387.407707
418.174324	14117.824443
418.553753	14018.886757
418.933121	14523.286967
419.312428	14322.354137
419.691674	14242.146858
420.070859	14707.430235
420.449983	14346.667622
420.829045	14912.837090
421.208047	14652.148942
421.586988	15116.915600
421.965867	15384.280756
422.344686	15370.994795
422.723444	15953.086748
423.102141	14607.822076
423.480777	15821.240410
423.859352	15328.495348
424.237866	16458.633820
424.616319	16144.839637
424.994712	16830.413875
425.373044	16611.912623
425.751314	17294.928475
426.129524	16404.688432
426.507673	17532.323972
426.885762	17204.820371
427.263789	17417.433555
427.641756	17587.849761
428.019662	17657.369793
428.397508	17692.544444
428.775292	18008.634872
429.153016	17958.823231
429.530679	18041.483031
429.908282	18060.629333
430.285824	17776.756919
430.663305	18503.381273
431.040726	18099.899922
431.418086	17912.600892
431.795385	18576.354495
432.172624	18991.450664
432.549802	18557.170384
432.926920	18735.027333
433.303977	18618.667420
433.680974	18886.544253
434.057910	19174.784827
434.434786	19205.868582
434.811601	19104.044836
435.188355	20172.572846
435.565050	19807.724378
435.941683	19762.147306
436.318257	20656.137967
436.694770	20463.182762
437.071222	21068.317829
437.447614	20121.601739
437.823946	20163.183697
438.200218	20303.635284
438.576429	20081.058260
438.952580	20354.079590
439.328670	20331.875828
439.704700	20736.312478
440.080670	20306.843979
440.456580	20901.538816
440.832429	21088.958833
441.208218	20053.762932
441.583947	20505.155409
441.959616	20612.017788
442.335224	20855.291270
442.710773	20988.337403
443.086261	21538.042462
443.461689	20894.521529
443.837057	21011.783809
444.212365	21671.144047
444.587612	21665.354282
444.962800	21228.906305
445.337927	21659.325062
445.712995	20376.225379
446.088002	22268.026745
446.462949	22459.782155
446.837837	22631.204071
447.212664	22591.625972
447.587431	25461.103673
447.962139	28435.384442
448.336786	30864.197242
448.711374	29298.276226
449.085901	25551.131119
449.460369	25494.455947
449.834776	25407.196094
450.209124	27922.464683
450.583412	27450.791643
450.957640	27994.724582
451.331808	26626.285726
451.705917	25238.687965
452.079965	25267.755258
452.453954	25627.562573
452.827883	25519.066860
453.201752	25306.688090
453.575562	25480.373484
453.949311	26628.932332
454.323001	26674.789188
454.696632	26448.088499
455.070202	28012.103960
455.443713	28144.078847
455.817164	28741.115300
456.190556	29291.939495
456.563888	28718.215858
456.937160	29183.398412
457.310373	27481.484709
457.683526	27939.213916
458.056619	27929.166897
458.429653	27855.394651
458.802628	28447.039590
459.175542	28555.686538
459.548398	29863.162720
459.921194	31450.806068
460.293930	32129.352938
460.666607	34165.956406
461.039224	35944.591430
461.411782	36361.177260
461.784280	35156.268394
462.156719	34694.995255
462.529099	34126.148935
462.901419	32825.160718
463.273680	31749.922932
463.645882	31834.856292
464.018024	31812.168579
464.390106	32655.523370
464.762130	35362.912852
465.134094	39429.246176
465.505999	44764.931956
465.877845	49389.411752
466.249631	50577.722619
466.621358	48900.117359
466.993026	46793.204918
467.364634	44721.028547
467.736184	42727.935278
468.107674	41468.319810
468.479105	40664.802737
468.850477	39972.037293
469.221790	38514.067545
469.593043	36749.877948
469.964238	35855.415939
470.335373	35789.308768
470.706449	37515.951851
471.077467	40106.419331
471.448425	44695.449733
471.819324	47528.651291
472.190164	45696.660695
472.560945	42103.462345
472.931667	38990.028085
473.302330	37848.821760
473.672934	37026.541512
474.043479	37543.395893
474.413965	36717.480973
474.784393	36344.231421
475.154761	37255.243539
475.525070	37281.573485
475.895321	36812.698287
476.265513	37406.158041
476.635645	38411.049046
477.005719	38220.233811
477.375734	38676.589304
477.745691	39381.579546
478.115588	40737.463408
478.485427	42716.292733
478.855207	46086.213338
479.224928	48712.024348
479.594591	50370.140506
479.964194	49367.102125
480.333739	49524.930570
480.703226	49560.574048
481.072653	50199.550381
481.442022	50670.091681
481.811333	50935.722680
482.180584	49649.928500
482.549777	49133.363986
482.918912	48589.942725
483.287988	48292.988517
483.657005	47457.581104
484.025964	46824.644074
484.394864	46841.184100
484.763706	46406.422389
485.132489	45530.869748
485.501213	45374.165481
485.869879	45507.193969
486.238487	45090.560248
486.607036	45272.682013
486.975527	44743.290283
487.343959	44938.771105
487.712333	45015.079051
488.080648	44927.584785
488.448905	45389.929169
488.817104	45186.208580
489.185244	46151.352607
489.553326	47837.734516
489.921350	50553.474669
490.289315	53389.448862
490.657222	53987.065047
491.025070	54264.603252
491.392861	53390.842741
491.760593	52165.807068
492.128267	50509.581342
492.495883	48977.559565
492.863440	47575.176100
493.230939	46216.393574
493.598380	45113.469771
493.965763	44780.859482
494.333088	43946.304024
494.700354	43455.320845
495.067563	43149.103517
495.434713	43030.961556
495.801805	43089.207047
496.168839	42700.241699
496.535815	42365.967828
496.902733	42381.623132
497.269593	41979.550783
497.636395	41905.798702
498.003139	42299.898466
498.369825	41753.898655
498.736453	42066.649319
499.103023	41598.192536
499.469535	41437.092383
499.835989	41539.868907
500.202385	41200.591691
500.568723	41227.085475
500.935003	41399.104768
501.301226	41199.318800
501.667390	41823.005312
502.033497	42082.443254
502.399546	41485.603406
502.765537	40808.818420
503.131470	41201.844418
503.497345	41555.007492
503.863163	40205.480525
504.228923	40818.835192
504.594625	41240.610891
504.960269	40508.723572
505.325856	41192.288911
505.691385	40547.611033
506.056856	40692.297190
506.422270	41139.021558
506.787625	40717.084543
507.152924	40888.423280
507.518164	41005.804027
507.883347	40185.336074
508.248472	40467.010545
508.613540	40928.071955
508.978550	41245.873855
509.343503	40969.968985
509.708398	41167.988028
510.073236	41697.611652
510.438016	41701.279091
510.802738	41129.546710
511.167403	41771.928342
511.532010	41997.033505
511.896561	42292.374544
512.261053	43149.627797
512.625488	42684.306612
512.989866	42556.616705
513.354186	42401.553333
513.718449	42379.541135
514.082655	43060.643870
514.446803	42729.921492
514.810894	43265.682720
515.174927	43171.665201
515.538904	43079.674225
515.902822	43762.203606
516.266684	43170.009182
516.630488	43612.536790
516.994235	43449.296667
517.357925	44027.272517
517.721558	44218.755704
518.085133	44505.120969
518.448651	44624.944155
518.812112	44386.046395
519.175516	44480.353780
519.538863	44828.057285
519.902152	44769.010250
520.265385	45253.755001
520.628560	45282.842458
520.991678	45056.174537
521.354739	45287.560978
521.717743	45599.860459
522.080690	45493.557648
522.443580	46025.187650
522.806413	46066.182313
523.169189	46009.663417
523.531908	46178.544591
523.894569	46029.210491
524.257174	46184.689758
524.619722	46481.039028
524.982213	46456.619679
525.344647	46354.881632
525.707025	46390.426808
526.069345	46770.595343
526.431608	46670.530960
526.793815	46992.980804
527.155964	46507.134561
527.518057	46655.404978
527.880093	46412.111331
528.242072	46924.186698
528.603995	46615.496683
528.965860	46609.742206
529.327669	46671.037596
529.689421	46556.442087
530.051117	46502.937800
530.412755	46613.805376
530.774337	46666.545928
531.135862	46454.401571
531.497331	46633.158366
531.858743	46521.678290
532.220098	46829.211359
532.581396	46518.819955
532.942638	46160.761921
533.303824	46409.515137
533.664953	46350.190839
534.026025	46033.293826
534.387040	46494.080493
534.747999	46392.972591
535.108902	46531.024589
535.469748	46034.140739
535.830537	46110.851978
536.191270	46251.474964
536.551947	45884.816721
536.912567	46166.894485
537.273131	46242.063130
537.633638	45685.328181
537.994089	46001.579927
538.354483	45564.680767
538.714821	46077.940805
539.075103	46373.664972
539.435328	46099.733713
539.795497	45942.343848
540.155609	45885.071300
540.515665	46287.012578
540.875665	45719.509725
541.235609	45966.279247
541.595496	45907.093580
541.955328	46511.220416
542.315102	45852.157606
542.674821	45567.460963
543.034483	45571.927426
543.394090	45482.429301
543.753640	45376.829731
544.113134	46298.801316
544.472571	45255.300114
544.831953	46441.559232
545.191278	45593.269150
545.550548	45265.689932
545.909761	45641.129865
546.268918	45759.241579
546.628019	45997.879720
546.987064	45507.244381
547.346053	44731.125978
547.704986	45508.688671
548.063863	45003.166805
548.422684	45127.370753
548.781449	44900.942287
549.140158	45224.392800
549.498811	44983.932282
549.857408	44367.747006
550.215949	45076.041725
550.574434	44918.873671
550.932864	44614.907218
551.291237	45214.265122
551.649555	44743.547382
552.007817	44884.543413
552.366022	44446.073934
552.724173	44540.371237
553.082267	44805.919057
553.440305	45010.562177
553.798288	44254.036220
554.156215	44431.815031
554.514086	44537.321339
554.871902	44199.891707
555.229661	44097.359679
555.587365	43821.754757
555.945014	43812.186647
556.302606	43614.938900
556.660143	43750.818160
557.017625	43704.943660
557.375050	43393.977565
557.732421	43596.127834
558.089735	43444.406747
558.446994	43274.976087
558.804197	43581.412706
559.161345	43408.881736
559.518437	42584.068308
559.875474	42723.819175
560.232455	42751.288423
560.589381	42790.450626
560.946251	42378.124571
561.303065	42866.085578
561.659825	42553.546642
562.016528	42132.683393
562.373177	41729.786816
562.729770	42013.316432
563.086307	41444.631428
563.442789	41714.292830
563.799216	41621.591052
564.155587	41270.583071
564.511904	41145.209575
564.868164	41072.929511
565.224370	41142.149594
565.580520	40741.347617
565.936615	40751.442527
566.292654	40366.615966
566.648638	40417.007340
567.004567	40211.907996
567.360441	40078.844219
567.716260	39778.693919
568.072023	39842.451913
568.427732	39650.325978
568.783385	39104.394222
569.138982	39260.344837
569.494525	39057.816481
569.850013	38676.158285
570.205445	38454.534039
570.560823	38260.482383
570.916145	37962.696384
571.271412	37801.765109
571.626625	37416.273116
571.981782	37264.811649
572.336884	36844.838163
572.691931	36917.521519
573.046923	36395.925933
573.401860	36089.191887
573.756743	35893.239716
574.111570	35791.352956
574.466342	35476.356457
574.821059	35383.047220
575.175722	34812.623019
575.530330	34633.203312
575.884882	34215.097574
576.239380	33994.088348
576.593823	33772.685912
576.948211	33519.010010
577.302544	32953.949596
577.656823	32766.935391
578.011047	32739.730804
578.365216	32326.882989
578.719330	31981.616883
579.073389	31669.062824
579.427394	31537.677752
579.781344	31303.385086
580.135239	30859.176253
580.489080	30712.266947
580.842866	30153.886062
581.196597	30253.922719
581.550273	29999.291518
581.903895	29696.502174
582.257463	29769.084707
582.610975	29143.719490
582.964434	29104.521998
583.317837	28668.648713
583.671186	28342.712911
584.024481	28291.346074
584.377721	27790.739332
584.730906	27753.618796
585.084037	27566.004694
585.437113	27177.994644
585.790135	26987.174368
586.143103	26547.374024
586.496016	26415.845279
586.848874	26230.184624
587.201679	26032.031990
587.554428	25527.389805
587.907124	25418.137919
588.259765	25070.033643
588.612352	25021.494893
588.964884	24467.192301
589.317362	24421.169087
589.669786	24192.809859
590.022155	23855.733107
590.374470	23887.625967
590.726731	23444.110293
591.078937	22977.864056
591.431090	22828.696314
591.783188	22469.025110
592.135232	22096.887133
592.487222	22033.038399
592.839157	21875.910675
593.191038	21535.141278
593.542866	21218.939944
593.894639	20739.488405
594.246358	20677.671256
594.598022	20482.112295
594.949633	20118.876996
595.301190	19905.225334
595.652692	19653.848198
596.004141	19613.909656
596.355535	19002.135390
596.706876	18782.338562
597.058162	18543.438281
597.409395	18566.080623
597.760573	18416.683509
598.111698	18054.133806
598.462768	17879.266262
598.813785	17712.298205
599.164748	17307.123027
599.515657	17288.213658
599.866511	16920.411074
600.217312	16986.498080
600.568060	16424.732060
600.918753	16541.477622
601.269392	16354.503746
601.619978	16066.500106
601.970510	15973.909233
602.320988	15873.491969
602.671412	15819.297045
603.021783	15567.521657
603.372100	15300.257324
603.722363	15175.299723
604.072572	15046.289035
604.422728	14900.067847
604.772830	14677.942006
605.122878	14556.412389
605.472872	14382.472417
605.822813	14312.491119
606.172701	14109.234317
606.522534	14045.814081
606.872314	13979.066683
607.222041	13752.854987
607.571714	13721.927508
607.921333	13422.316611
608.270899	13356.907640
608.620411	13312.396772
608.969870	13114.551648
609.319276	12967.947333
609.668627	12842.898991
610.017926	12839.400430
610.367171	12746.179413
610.716362	12615.512706
611.065500	12466.007206
611.414585	12382.445040
611.763616	12324.116369
612.112594	12172.024758
612.461518	12098.428953
612.810389	12042.290664
613.159207	11885.740152
613.507971	11778.935746
613.856682	11759.663414
614.205340	11610.896444
614.553945	11650.179635
614.902496	11407.768191
615.250994	11390.434183
615.599439	11290.268977
615.947830	11211.551360
616.296169	11103.007756
616.644454	11023.619665
616.992686	10942.353744
617.340864	10938.189751
617.688990	10774.306881
618.037063	10787.124014
618.385082	10677.945225
618.733048	10621.998500
619.080961	10527.794458
619.428821	10419.689434
619.776628	10337.115334
620.124382	10196.245331
620.472083	10120.892684
620.819731	10032.155773
621.167326	9876.558039
621.514868	9765.264486
621.862357	9580.556609
622.209793	9479.778902
622.557176	9330.134771
622.904506	9184.490795
623.251783	9027.025314
623.599007	8896.547649
623.946179	8764.711394
624.293297	8666.663472
624.640363	8493.184765
624.987376	8402.895179
625.334336	8281.927652
625.681243	8147.349009
626.028097	8060.522695
626.374899	7965.587686
626.721647	7883.646251
627.068343	7788.857435
627.414987	7680.870879
627.761577	7580.551917
628.108115	7556.782877
628.454600	7415.370950
628.801032	7363.131993
629.147412	7294.408463
629.493739	7226.567135
629.840014	7126.936291
630.186236	7096.142403
630.532405	6994.401836
630.878521	6960.782381
631.224585	6895.554891
631.570597	6804.461241
631.916556	6771.645850
632.262462	6705.490788
632.608316	6653.695453
632.954117	6589.403098
633.299866	6529.471340
633.645562	6465.761238
633.991206	6357.976327
634.336797	6254.781388
634.682336	6195.353746
635.027823	6117.185614
635.373257	6046.959820
635.718639	5967.470907
