Dividing Wavelength (nm)	Counts (n)	Blue Motor Position (mm): 0.000000	Red Motor Position (mm): 35.200000	
326.493990	1991.472539
326.888308	1991.472539
327.282561	1991.472539
327.676750	1967.232151
328.070874	1969.125104
328.464933	1973.074848
328.858929	1984.435088
329.252859	1995.064361
329.646726	2008.448624
330.040528	2024.688702
330.434265	2044.807947
330.827938	2064.055072
331.221547	2082.997208
331.615091	2102.695516
332.008571	2122.955913
332.401986	2146.840900
332.795338	2166.632470
333.188625	2186.287929
333.581847	2205.968594
333.975006	2222.589278
334.368100	2240.124932
334.761129	2256.934659
335.154095	2275.413009
335.546996	2297.647018
335.939833	2334.689416
336.332606	2350.662312
336.725315	2361.195803
337.117960	2370.567308
337.510540	2376.639378
337.903056	2388.707900
338.295508	2392.430792
338.687896	2401.751886
339.080220	2407.334964
339.472480	2412.229924
339.864676	2415.627662
340.256807	2423.161666
340.648875	2420.837694
341.040879	2422.826429
341.432818	2422.939855
341.824694	2427.456729
342.216506	2423.721234
342.608253	2425.536050
342.999937	2425.200813
343.391557	2424.547983
343.783113	2423.149063
344.174605	2421.394742
344.566033	2419.763928
344.957397	2421.472880
345.348697	2416.870306
345.739934	2414.662281
346.131106	2412.524832
346.522215	2413.102044
346.913260	2408.728843
347.304241	2407.960067
347.695159	2407.221538
348.086012	2407.279511
348.476802	2404.814387
348.867528	2402.722308
349.258191	2402.082081
349.648789	2404.337998
350.039324	2399.443037
350.429796	2402.876063
350.820203	2399.642163
351.210548	2400.884807
351.600828	2397.943294
351.991045	2398.127296
352.381198	2399.163253
352.771288	2398.974210
353.161314	2398.989333
353.551276	2398.059241
353.941175	2397.378685
354.331010	2397.986144
354.720782	2397.754251
355.110490	2400.524365
355.500135	2397.562687
355.889717	2401.366237
356.279235	2398.548233
356.668689	2400.766340
357.058080	2399.735424
357.447408	2398.825496
357.836672	2398.666700
358.225873	2400.156361
358.615010	2398.911196
359.004084	2403.402864
359.393095	2404.758934
359.782043	2406.394788
360.170927	2405.389078
360.559748	2406.175498
360.948505	2411.554409
361.337199	2409.694224
361.725830	2411.309913
362.114398	2413.507857
362.502903	2411.609862
362.891344	2415.080697
363.279722	2411.025088
363.668037	2417.686973
364.056289	2413.699420
364.444478	2414.674884
364.832603	2416.240162
365.220665	2420.663774
365.608665	2417.654206
365.996601	2417.702097
366.384474	2419.695873
366.772284	2421.893816
367.160031	2422.995308
367.547715	2421.082190
367.935336	2422.980185
368.322893	2424.646286
368.710388	2425.369692
369.097820	2426.589651
369.485189	2429.873963
369.872495	2430.441092
370.259738	2431.895465
370.646918	2436.513162
371.034035	2437.392843
371.421090	2441.824018
371.808081	2442.456682
372.195010	2450.275512
372.581875	2452.985132
372.968678	2460.466205
373.355418	2466.510548
373.742096	2478.954636
374.128710	2487.002838
374.515262	2502.141423
374.901751	2518.752025
375.288177	2534.843388
375.674540	2553.263765
376.060841	2575.137331
376.447079	2603.027515
376.833254	2627.522481
377.219367	2652.430822
377.605417	2688.775021
377.991404	2715.886347
378.377329	2754.551997
378.763191	2788.899898
379.148991	2840.377641
379.534727	2890.063253
379.920402	2937.825665
380.306013	2988.048160
380.691563	3052.592574
381.077049	3110.386882
381.462474	3167.934174
381.847835	3241.373703
382.233134	3315.907163
382.618371	3377.245402
383.003545	3463.751602
383.388657	3549.978018
383.773706	3641.507728
384.158693	3716.988924
384.543618	3812.644818
384.928480	3892.721027
385.313280	3999.124661
385.698017	4106.692802
386.082692	4233.402204
386.467305	4293.548210
386.851856	4423.907407
387.236344	4581.403136
387.620770	4641.617198
388.005133	4772.359523
388.389435	4920.458541
388.773674	5002.946941
389.157851	5145.170494
389.541965	5275.963231
389.926018	5299.969205
390.310008	5484.291434
390.693936	5608.810454
391.077802	5730.186316
391.461606	5864.346543
391.845348	5981.565973
392.229027	6103.244303
392.612645	6331.361556
392.996200	6449.503517
393.379694	6630.007071
393.763125	6848.919177
394.146494	6956.225178
394.529801	7091.607885
394.913047	7341.770103
395.296230	7337.555699
395.679351	7395.024853
396.062410	7668.404105
396.445408	7557.463433
396.828343	7714.898667
397.211217	7852.912857
397.594028	7737.326761
397.976778	7945.652443
398.359466	8113.175027
398.742092	8083.039009
399.124656	8238.490550
399.507158	8426.712111
399.889598	8448.840256
400.271977	8660.926639
400.654294	8696.038276
401.036549	8890.294098
401.418742	8922.048326
401.800874	9228.757167
402.182944	9312.057193
402.564952	9684.323720
402.946898	9508.268983
403.328783	9557.329492
403.710606	9767.530484
404.092367	10030.640907
404.474067	10392.754549
404.855705	10178.404688
405.237282	10126.929466
405.618797	10567.395242
406.000250	10816.168622
406.381642	11196.569050
406.762972	11139.339351
407.144240	10932.261354
407.525447	11196.107785
407.906593	11130.119081
408.287677	11398.885678
408.668700	11553.807897
409.049661	11525.027950
409.430560	11691.691017
409.811399	11658.747076
410.192176	11827.978611
410.572891	11898.065773
410.953545	12398.498594
411.334138	11869.608459
411.714669	12475.933238
412.095139	11768.808068
412.475547	12283.207406
412.855894	12129.943726
413.236180	12464.767082
413.616405	12142.085345
413.996568	12419.104311
414.376670	12396.159499
414.756711	12272.303390
415.136691	12555.361658
415.516609	12742.116243
415.896466	12809.579485
416.276262	13110.483437
416.655997	13553.671437
417.035670	13585.869286
417.415283	14243.896139
417.794834	14337.515407
418.174324	14080.822374
418.553753	13981.219256
418.933121	14476.343743
419.312428	14284.747129
419.691674	14201.726887
420.070859	14656.872503
420.449983	14316.554289
420.829045	14870.231778
421.208047	14607.902735
421.586988	15074.464044
421.965867	15339.550598
422.344686	15330.148846
422.723444	15903.461629
423.102141	14566.282968
423.480777	15769.661844
423.859352	15280.727894
424.237866	16405.109369
424.616319	16102.872031
424.994712	16775.694670
425.373044	16564.795479
425.751314	17246.513234
426.129524	16351.925196
426.507673	17478.464284
426.885762	17161.975604
427.263789	17357.932816
427.641756	17529.473199
428.019662	17592.742201
428.397508	17645.228174
428.775292	17948.042724
429.153016	17908.641065
429.530679	17993.269435
429.908282	18016.703239
430.285824	17723.741624
430.663305	18448.243652
431.040726	18031.723357
431.418086	17860.883694
431.795385	18525.811887
432.172624	18934.599052
432.549802	18492.973810
432.926920	18675.806378
433.303977	18565.926868
433.680974	18823.872628
434.057910	19112.692935
434.434786	19137.853334
434.811601	19052.163801
435.188355	20108.913155
435.565050	19755.581203
435.941683	19698.583397
436.318257	20590.728996
436.694770	20380.835514
437.071222	20999.972386
437.447614	20057.324507
437.823946	20095.803635
438.200218	20236.834955
438.576429	20020.307315
438.952580	20289.520053
439.328670	20257.481000
439.704700	20678.261071
440.080670	20237.525593
440.456580	20845.186277
440.832429	21018.193636
441.208218	19986.985288
441.583947	20436.779719
441.959616	20549.131915
442.335224	20785.216711
442.710773	20914.555075
443.086261	21476.013584
443.461689	20825.982002
443.837057	20947.088161
444.212365	21604.275662
444.587612	21600.232656
444.962800	21162.935245
445.337927	21599.216864
445.712995	20311.141562
446.088002	22193.946989
446.462949	22386.168706
446.837837	22566.836098
447.212664	22524.505529
447.587431	25396.161009
447.962139	28369.529329
448.336786	30769.786513
448.711374	29187.108701
449.085901	25470.306299
449.460369	25410.248513
449.834776	25332.561812
450.209124	27837.828751
450.583412	27365.061781
450.957640	27886.307007
451.331808	26534.672837
451.705917	25153.031200
452.079965	25188.379771
452.453954	25550.216150
452.827883	25440.591218
453.201752	25231.837037
453.575562	25402.895990
453.949311	26539.565277
454.323001	26598.156088
454.696632	26353.869334
455.070202	27922.220187
455.443713	28056.743377
455.817164	28666.274330
456.190556	29184.699029
456.563888	28635.503127
456.937160	29067.938345
457.310373	27382.312610
457.683526	27845.634977
458.056619	27839.348658
458.429653	27756.421678
458.802628	28344.583179
459.175542	28465.311252
459.548398	29763.544479
459.921194	31348.125326
460.293930	32033.263504
460.666607	34078.406687
461.039224	35847.123241
461.411782	36232.776551
461.784280	35032.997059
462.156719	34562.959874
462.529099	34008.264073
462.901419	32710.615620
463.273680	31636.444038
463.645882	31724.570969
464.018024	31690.374302
464.390106	32537.015926
464.762130	35259.549033
465.134094	39326.373870
465.505999	44638.875384
465.877845	49260.249828
466.249631	50427.211409
466.621358	48732.299868
466.993026	46641.819068
467.364634	44576.475981
467.736184	42580.693256
468.107674	41334.535149
468.479105	40538.605012
468.850477	39823.106485
469.221790	38376.691062
469.593043	36624.083515
469.964238	35730.556640
470.335373	35657.114590
470.706449	37395.029694
471.077467	39996.789358
471.448425	44565.357717
471.819324	47376.118578
472.190164	45527.005704
472.560945	41962.211735
472.931667	38835.894807
473.302330	37726.934222
473.672934	36896.290700
474.043479	37400.622854
474.413965	36585.972392
474.784393	36221.257514
475.154761	37123.878631
475.525070	37155.862232
475.895321	36670.535227
476.265513	37278.967209
476.635645	38264.825337
477.005719	38087.273378
477.375734	38563.387674
477.745691	39262.159652
478.115588	40598.992994
478.485427	42571.863675
478.855207	45927.742146
479.224928	48552.068536
479.594591	50191.713907
479.964194	49195.276917
480.333739	49360.236074
480.703226	49390.674561
481.072653	50032.877232
481.442022	50495.634990
481.811333	50772.621188
482.180584	49462.606785
482.549777	48946.223753
482.918912	48408.010003
483.287988	48125.299575
483.657005	47278.473949
484.025964	46644.127917
484.394864	46657.146696
484.763706	46233.646923
485.132489	45362.810282
485.501213	45189.477768
485.869879	45340.745151
486.238487	44916.685810
486.607036	45105.635818
486.975527	44569.050362
487.343959	44760.611687
487.712333	44831.918808
488.080648	44761.312408
488.448905	45208.351848
488.817104	45004.532957
489.185244	45977.810886
489.553326	47651.617636
489.921350	50354.795234
490.289315	53214.374630
490.657222	53809.152646
491.025070	54084.288740
491.392861	53194.830076
491.760593	51954.126497
492.128267	50289.953393
492.495883	48778.076066
492.863440	47366.154738
493.230939	46014.853285
493.598380	44907.916723
493.965763	44583.382362
494.333088	43770.188794
494.700354	43266.380920
495.067563	42973.321003
495.434713	42841.852752
495.801805	42897.852409
496.168839	42508.549303
496.535815	42187.021990
496.902733	42217.450395
497.269593	41784.639611
497.636395	41719.374313
498.003139	42118.053965
498.369825	41555.740979
498.736453	41875.340051
499.103023	41395.296176
499.469535	41275.258741
499.835989	41352.582479
500.202385	41012.614626
500.568723	41040.640921
500.935003	41223.770916
501.301226	41002.149190
501.667390	41636.790130
502.033497	41891.025601
502.399546	41286.611420
502.765537	40617.458740
503.131470	41009.945335
503.497345	41353.908303
503.863163	40015.015650
504.228923	40623.112394
504.594625	41025.474609
504.960269	40314.014046
505.325856	40989.032108
505.691385	40362.653619
506.056856	40477.939767
506.422270	40907.713255
506.787625	40492.238999
507.152924	40675.837822
507.518164	40772.723758
507.883347	39962.219646
508.248472	40213.861443
508.613540	40688.990193
508.978550	40989.364824
509.343503	40732.951575
509.708398	40908.960941
510.073236	41432.973760
510.438016	41411.616912
510.802738	40863.023427
511.167403	41484.958138
511.532010	41702.307486
511.896561	41994.404543
512.261053	42817.282168
512.625488	42359.799977
512.989866	42216.172462
513.354186	42033.627241
513.718449	42006.447860
514.082655	42672.558202
514.446803	42333.991790
514.810894	42843.352495
515.174927	42744.994542
515.538904	42615.920839
515.902822	43264.808080
516.266684	42691.197869
516.630488	43096.783902
516.994235	42928.116976
517.357925	43496.580169
517.721558	43630.248884
518.085133	43903.824741
518.448651	44007.412891
518.812112	43766.352476
519.175516	43834.143392
519.538863	44115.235610
519.902152	44044.268767
520.265385	44479.211959
520.628560	44494.368188
520.991678	44239.863016
521.354739	44449.050736
521.717743	44727.871914
522.080690	44583.672228
522.443580	45072.404532
522.806413	45082.542292
523.169189	44984.806922
523.531908	45127.867307
523.894569	44939.179439
524.257174	45057.734774
524.619722	45303.133102
524.982213	45240.068268
525.344647	45101.865035
525.707025	45094.179796
526.069345	45409.108239
526.431608	45282.106450
526.793815	45519.045722
527.155964	45024.387542
527.518057	45124.000742
527.880093	44838.605899
528.242072	45288.296987
528.603995	44940.613647
528.965860	44871.771650
529.327669	44896.823664
529.689421	44741.442700
530.051117	44612.600890
530.412755	44694.209609
530.774337	44674.140775
531.135862	44410.261577
531.497331	44525.648548
531.858743	44349.941651
532.220098	44610.297082
532.581396	44245.204118
532.942638	43820.030682
533.303824	44038.410946
533.664953	43903.678548
534.026025	43549.292994
534.387040	43929.320377
534.747999	43788.720076
535.108902	43841.669835
535.469748	43302.679748
535.830537	43329.735621
536.191270	43412.062704
536.551947	42975.443328
536.912567	43183.113661
537.273131	43189.321842
537.633638	42607.297945
537.994089	42830.787419
538.354483	42358.885007
538.714821	42791.438693
539.075103	43006.010365
539.435328	42657.694360
539.795497	42456.317908
540.155609	42340.169724
540.515665	42657.245698
540.875665	42046.842625
541.235609	42239.986873
541.595496	42104.228600
541.955328	42624.268990
542.315102	41927.009357
542.674821	41599.909049
543.034483	41527.956660
543.394090	41373.082332
543.753640	41210.900851
544.113134	41995.972342
544.472571	40987.943219
544.831953	41987.654438
545.191278	41151.647128
545.550548	40771.450867
545.909761	41056.255895
546.268918	41107.148863
546.628019	41240.815057
546.987064	40722.493701
547.346053	39925.731774
547.704986	40577.608419
548.063863	40058.067104
548.422684	40092.614131
548.781449	39810.775823
549.140158	40021.009582
549.498811	39743.622612
549.857408	39104.626115
550.215949	39675.909834
550.574434	39463.334458
550.932864	39121.962643
551.291237	39604.338052
551.649555	39070.316022
552.007817	39131.029158
552.366022	38663.507510
552.724173	38671.676699
553.082267	38850.229327
553.440305	38930.139178
553.798288	38184.366001
554.156215	38271.698950
554.514086	38284.707648
554.871902	37919.077801
555.229661	37749.085052
555.587365	37425.921884
555.945014	37336.043152
556.302606	37087.794052
556.660143	37098.871988
557.017625	37008.486620
557.375050	36651.837588
557.732421	36749.396518
558.089735	36543.256175
558.446994	36298.712323
558.804197	36490.598803
559.161345	36257.100118
559.518437	35498.030898
559.875474	35537.041868
560.232455	35469.810519
560.589381	35426.648160
560.946251	34988.765975
561.303065	35318.989278
561.659825	34970.769056
562.016528	34530.298239
562.373177	34123.895539
562.729770	34292.144049
563.086307	33744.810852
563.442789	33879.427304
563.799216	33715.786409
564.155587	33352.054556
564.511904	33166.235105
564.868164	33018.572147
565.224370	32991.894361
565.580520	32585.219439
565.936615	32534.828065
566.292654	32133.370737
566.648638	32076.796388
567.004567	31843.643023
567.360441	31672.994924
567.716260	31343.285818
568.072023	31329.311740
568.427732	31099.362028
568.783385	30589.625757
569.138982	30627.913320
569.494525	30390.507741
569.850013	30033.682269
570.205445	29790.418870
570.560823	29547.604133
570.916145	29257.193342
571.271412	29051.915037
571.626625	28687.001034
571.981782	28504.775925
572.336884	28092.545652
572.691931	28076.129134
573.046923	27616.403630
573.401860	27312.101939
573.756743	27082.137104
574.111570	26941.594776
574.466342	26649.396896
574.821059	26479.782234
575.175722	26000.060993
575.530330	25789.779342
575.884882	25435.134169
576.239380	25202.810073
576.593823	24974.483613
576.948211	24706.667274
577.302544	24244.131326
577.656823	24047.115472
578.011047	23951.537716
578.365216	23590.974228
578.719330	23282.069964
579.073389	22990.025840
579.427394	22822.440242
579.781344	22604.901850
580.135239	22227.689952
580.489080	22068.487793
580.842866	21626.247531
581.196597	21613.006940
581.550273	21395.345041
581.903895	21115.366918
582.257463	21104.649425
582.610975	20627.214347
582.964434	20548.219466
583.317837	20187.829898
583.671186	19907.203987
584.024481	19818.139401
584.377721	19431.344270
584.730906	19349.601960
585.084037	19153.211209
585.437113	18845.680660
585.790135	18666.858330
586.143103	18318.504517
586.496016	18175.602929
586.848874	17987.419176
587.201679	17797.526473
587.554428	17393.145276
587.907124	17280.180580
588.259765	17002.786048
588.612352	16913.983603
588.964884	16528.935231
589.317362	16446.953466
589.669786	16244.462919
590.022155	15996.697769
590.374470	15963.111082
590.726731	15622.462673
591.078937	15289.038237
591.431090	15156.014789
591.783188	14889.340272
592.135232	14621.992760
592.487222	14529.049006
592.839157	14399.249377
593.191038	14131.198624
593.542866	13907.469696
593.894639	13584.737547
594.246358	13498.518693
594.598022	13341.199405
594.949633	13081.073346
595.301190	12912.905495
595.652692	12703.294318
596.004141	12641.799803
596.355535	12233.741084
596.706876	12073.616394
597.058162	11893.730380
597.409395	11870.687266
597.760573	11758.347673
598.111698	11514.819613
598.462768	11383.033769
598.813785	11262.091447
599.164748	11002.381284
599.515657	10956.138779
599.866511	10716.726822
600.217312	10720.600948
600.568060	10378.964473
600.918753	10402.962886
601.269392	10280.127610
601.619978	10085.128218
601.970510	10004.724335
602.320988	9920.383310
602.671412	9865.238128
603.021783	9699.081697
603.372100	9527.536273
603.722363	9435.399104
604.072572	9328.166200
604.422728	9223.206857
604.772830	9079.765865
605.122878	8987.429571
605.472872	8870.056386
605.822813	8807.810739
606.172701	8692.544756
606.522534	8618.538097
606.872314	8562.435096
607.222041	8421.005525
607.571714	8381.268629
607.921333	8206.464099
608.270899	8151.946541
608.620411	8107.382741
608.969870	7983.289698
609.319276	7891.878455
609.668627	7813.175961
610.017926	7789.981612
610.367171	7721.958803
610.716362	7645.083728
611.065500	7546.813995
611.414585	7484.379305
611.763616	7438.663601
612.112594	7350.002308
612.461518	7297.448279
612.810389	7247.112358
613.159207	7153.485528
613.507971	7090.035045
613.856682	7064.700726
614.205340	6977.541697
614.553945	6982.711400
614.902496	6847.361461
615.250994	6824.928326
615.599439	6761.150168
615.947830	6716.140226
616.296169	6651.111862
616.644454	6604.453463
616.992686	6555.995371
617.340864	6537.393513
617.688990	6452.082067
618.037063	6443.786848
618.385082	6381.818465
618.733048	6351.175811
619.080961	6292.610206
619.428821	6233.921093
619.776628	6183.297826
620.124382	6106.808399
620.472083	6052.502569
620.819731	6004.435167
621.167326	5915.370582
621.514868	5846.894068
621.862357	5757.136324
622.209793	5693.184246
622.557176	5615.890755
622.904506	5534.695411
623.251783	5445.890444
623.599007	5382.979365
623.946179	5311.029497
624.293297	5260.078555
624.640363	5167.976674
624.987376	5119.619406
625.334336	5055.599273
625.681243	4991.652236
626.028097	4943.113486
626.374899	4889.604159
626.721647	4847.964228
627.068343	4803.060150
627.414987	4751.849589
627.761577	4699.862690
628.108115	4679.372920
628.454600	4617.175164
628.801032	4592.884364
629.147412	4552.545051
629.493739	4516.894011
629.840014	4471.808451
630.186236	4456.649702
630.532405	4404.995519
630.878521	4387.154875
631.224585	4354.145400
631.570597	4308.008760
631.916556	4288.660812
632.262462	4261.108385
632.608316	4235.040579
632.954117	4199.568500
633.299866	4169.896268
633.645562	4137.360661
633.991206	4089.419288
634.336797	4035.327707
634.682336	4009.164119
635.027823	3967.670382
635.373257	3933.937501
635.718639	3897.711769
636.063968	3864.447715
636.409245	3815.125066
