Dividing Wavelength (nm)	Counts (n)	Blue Motor Position (mm): 0.000000	Red Motor Position (mm): 1.600000	
326.493990	1971.698613
326.888308	1971.698613
327.282561	1971.698613
327.676750	1950.712289
328.070874	1953.273196
328.464933	1958.205965
328.858929	1966.801132
329.252859	1978.113481
329.646726	1994.371202
330.040528	2008.620024
330.434265	2026.503517
330.827938	2046.428678
331.221547	2069.083623
331.615091	2084.466704
332.008571	2109.871599
332.401986	2127.800462
332.795338	2148.557413
333.188625	2168.472492
333.581847	2187.396983
333.975006	2206.301310
334.368100	2221.081973
334.761129	2239.837586
335.154095	2254.865266
335.546996	2269.892945
335.939833	2281.845521
336.332606	2295.519651
336.725315	2306.723615
337.117960	2313.950109
337.510540	2322.275575
337.903056	2333.300578
338.295508	2335.496001
338.687896	2345.399348
339.080220	2352.262878
339.472480	2355.552231
339.864676	2360.227902
340.256807	2362.062882
340.648875	2365.067409
341.040879	2366.042873
341.432818	2370.776516
341.824694	2365.569004
342.216506	2367.325846
342.608253	2367.797194
342.999937	2366.126052
343.391557	2364.671679
343.783113	2362.725793
344.174605	2363.098839
344.566033	2360.853005
344.957397	2362.141019
345.348697	2359.305370
345.739934	2357.215812
346.131106	2353.732375
346.522215	2352.232632
346.913260	2349.535614
347.304241	2350.896726
347.695159	2349.281036
348.086012	2348.887826
348.476802	2346.039574
348.867528	2342.064624
349.258191	2341.104284
349.648789	2339.612103
350.039324	2339.788543
350.429796	2338.271156
350.820203	2339.077741
351.210548	2338.218224
351.600828	2338.079592
351.991045	2340.645539
352.381198	2337.094047
352.771288	2336.542040
353.161314	2337.646053
353.551276	2337.487257
353.941175	2335.518686
354.331010	2337.555312
354.720782	2333.650938
355.110490	2336.196721
355.500135	2337.232678
355.889717	2340.267453
356.279235	2336.708398
356.668689	2338.634119
357.058080	2340.948009
357.447408	2336.673110
357.836672	2333.040959
358.225873	2338.450117
358.615010	2335.790908
359.004084	2338.434993
359.393095	2339.639829
359.782043	2343.125787
360.170927	2339.700323
360.559748	2341.237875
360.948505	2341.671414
361.337199	2344.943123
361.725830	2346.183247
362.114398	2343.859275
362.502903	2343.829028
362.891344	2341.893225
363.279722	2346.687362
363.668037	2346.331961
364.056289	2343.632423
364.444478	2349.578464
364.832603	2345.661488
365.220665	2346.616786
365.608665	2345.880778
365.996601	2346.944461
366.384474	2348.711386
366.772284	2348.953361
367.160031	2346.521004
367.547715	2346.006807
367.935336	2348.855058
368.322893	2349.701972
368.710388	2348.603001
369.097820	2349.843125
369.485189	2348.308093
369.872495	2351.758763
370.259738	2351.315142
370.646918	2350.720285
371.034035	2349.918742
371.421090	2351.773887
371.808081	2351.950327
372.195010	2351.090810
372.581875	2349.676767
372.968678	2353.515605
373.355418	2354.980060
373.742096	2354.667509
374.128710	2351.625173
374.515262	2351.841942
374.901751	2353.495441
375.288177	2352.774556
375.674540	2352.656088
376.060841	2353.505523
376.447079	2350.450584
376.833254	2356.477283
377.219367	2350.039730
377.605417	2353.382015
377.991404	2349.467559
378.377329	2353.008969
378.763191	2355.675740
379.148991	2357.069619
379.534727	2357.349403
379.920402	2355.917715
380.306013	2356.426872
380.691563	2360.472398
381.077049	2357.914012
381.462474	2359.771677
381.847835	2358.662623
382.233134	2359.330576
382.618371	2360.258148
383.003545	2361.188241
383.388657	2360.694208
383.773706	2360.333766
384.158693	2361.873838
384.543618	2360.737058
384.928480	2359.194465
385.313280	2358.574403
385.698017	2361.203365
386.082692	2361.485669
386.467305	2358.909640
386.851856	2362.985413
387.236344	2360.792511
387.620770	2362.783767
388.005133	2363.232429
388.389435	2362.526668
388.773674	2363.350896
389.157851	2366.113449
389.541965	2361.725124
389.926018	2362.700588
390.310008	2365.662265
390.693936	2364.623788
391.077802	2365.100177
391.461606	2364.880887
391.845348	2367.288038
392.229027	2363.071112
392.612645	2361.175638
392.996200	2363.754189
393.379694	2364.331401
393.763125	2366.410877
394.146494	2364.197810
394.529801	2365.468181
394.913047	2367.434231
395.296230	2364.137316
395.679351	2364.737214
396.062410	2367.136803
396.445408	2364.139837
396.828343	2363.897862
397.211217	2360.487521
397.594028	2364.943901
397.976778	2362.874507
398.359466	2364.890969
398.742092	2362.544312
399.124656	2364.391895
399.507158	2366.418438
399.889598	2366.660414
400.271977	2367.252749
400.654294	2368.054293
401.036549	2365.218644
401.418742	2365.334590
401.800874	2367.482122
402.182944	2368.921371
402.564952	2367.356093
402.946898	2364.938860
403.328783	2365.279138
403.710606	2365.697553
404.092367	2366.831813
404.474067	2368.646628
404.855705	2369.092771
405.237282	2367.807276
405.618797	2368.898686
406.000250	2369.344828
406.381642	2368.419777
406.762972	2369.596886
407.144240	2369.065044
407.525447	2370.990765
407.906593	2366.131093
408.287677	2369.450692
408.668700	2369.037318
409.049661	2369.269211
409.430560	2370.567308
409.811399	2370.227030
410.192176	2368.628984
410.572891	2369.067565
410.953545	2368.928933
411.334138	2369.697709
411.714669	2370.872298
412.095139	2369.770806
412.475547	2370.025384
412.855894	2369.594365
413.236180	2371.930940
413.616405	2372.601414
413.996568	2372.634181
414.376670	2370.395909
414.756711	2373.266846
415.136691	2371.809953
415.516609	2369.803573
415.896466	2371.520086
416.276262	2375.232896
416.655997	2370.050590
417.035670	2368.850795
417.415283	2371.356249
417.794834	2367.711494
418.174324	2373.264325
418.553753	2372.558564
418.933121	2371.053779
419.312428	2374.738863
419.691674	2373.476054
420.070859	2373.108050
420.449983	2377.312372
420.829045	2376.253730
421.208047	2373.730632
421.586988	2377.738349
421.965867	2377.781199
422.344686	2375.497557
422.723444	2374.965715
423.102141	2376.682228
423.480777	2376.795654
423.859352	2372.661908
424.237866	2376.266333
424.616319	2374.600231
424.994712	2376.057125
425.373044	2374.698534
425.751314	2375.895808
426.129524	2376.954450
426.507673	2376.205839
426.885762	2376.669625
427.263789	2375.961343
427.641756	2374.632999
428.019662	2375.996631
428.397508	2374.118801
428.775292	2376.362114
429.153016	2376.031919
429.530679	2379.099461
429.908282	2376.498226
430.285824	2378.023175
430.663305	2377.824049
431.040726	2376.415047
431.418086	2376.793133
431.795385	2378.635675
432.172624	2379.868237
432.549802	2377.677856
432.926920	2379.926210
433.303977	2377.430839
433.680974	2377.655170
434.057910	2377.619882
434.434786	2379.964019
434.811601	2378.557537
435.188355	2379.099461
435.565050	2379.222969
435.941683	2379.676673
436.318257	2375.737011
436.694770	2374.698534
437.071222	2377.519059
437.447614	2376.021837
437.823946	2375.583256
438.200218	2378.406302
438.576429	2379.863196
438.952580	2376.057125
439.328670	2380.445449
439.704700	2378.572660
440.080670	2380.906715
440.456580	2381.884698
440.832429	2379.911087
441.208218	2380.185830
441.583947	2380.354708
441.959616	2381.282281
442.335224	2382.320758
442.710773	2380.344626
443.086261	2379.333875
443.461689	2379.548124
443.837057	2384.501057
444.212365	2382.882847
444.587612	2382.106509
444.962800	2378.010572
445.337927	2382.010727
445.712995	2378.388658
446.088002	2381.327651
446.462949	2380.745398
446.837837	2378.224821
447.212664	2379.394368
447.587431	2382.885368
447.962139	2379.293545
448.336786	2383.301263
448.711374	2383.323948
449.085901	2384.014586
449.460369	2383.744884
449.834776	2381.534338
450.209124	2383.936448
450.583412	2384.508619
450.957640	2380.972250
451.331808	2384.312014
451.705917	2383.749925
452.079965	2386.283105
452.453954	2378.970912
452.827883	2385.133722
453.201752	2384.740512
453.575562	2381.698176
453.949311	2382.416540
454.323001	2383.210522
454.696632	2382.035933
455.070202	2382.623228
455.443713	2384.155738
455.817164	2381.277239
456.190556	2376.077289
456.563888	2382.419061
456.937160	2380.553834
457.310373	2384.180944
457.683526	2384.788403
458.056619	2387.308980
458.429653	2385.158928
458.802628	2385.829401
459.175542	2384.271685
459.548398	2385.874772
459.921194	2383.989380
460.293930	2383.959133
460.666607	2385.053064
461.039224	2382.729092
461.411782	2386.310832
461.784280	2383.190357
462.156719	2384.808568
462.529099	2383.530635
462.901419	2383.447456
463.273680	2388.034906
463.645882	2385.698331
464.018024	2384.417878
464.390106	2385.612632
464.762130	2386.792262
465.134094	2384.806047
465.505999	2386.731768
465.877845	2386.280585
466.249631	2384.254041
466.621358	2386.048692
466.993026	2386.701521
467.364634	2390.583209
467.736184	2387.359392
468.107674	2386.280585
468.479105	2387.389638
468.850477	2386.094062
469.221790	2386.401572
469.593043	2382.920656
469.964238	2385.224463
470.335373	2385.884854
470.706449	2387.109854
471.077467	2384.354864
471.448425	2387.092210
471.819324	2387.989536
472.190164	2388.037427
472.560945	2390.099259
472.931667	2385.978115
473.302330	2385.045502
473.672934	2385.494165
474.043479	2385.678167
474.413965	2386.646068
474.784393	2381.988042
475.154761	2385.053064
475.525070	2382.426623
475.895321	2385.176572
476.265513	2381.408309
476.635645	2385.325286
477.005719	2386.371325
477.375734	2387.465256
477.745691	2385.315204
478.115588	2385.703372
478.485427	2386.681356
478.855207	2387.828219
479.224928	2388.465925
479.594591	2387.472818
479.964194	2387.976933
480.333739	2387.059443
480.703226	2385.542056
481.072653	2389.224618
481.442022	2389.222098
481.811333	2387.543394
482.180584	2387.104813
482.549777	2384.367467
482.918912	2388.314690
483.287988	2389.436347
483.657005	2387.067005
484.025964	2389.554814
484.394864	2384.929555
484.763706	2389.748898
485.132489	2386.860317
485.501213	2390.220246
485.869879	2388.029865
486.238487	2390.936090
486.607036	2390.023641
486.975527	2388.349978
487.343959	2387.112375
487.712333	2387.077087
488.080648	2390.709238
488.448905	2391.528426
488.817104	2389.355688
489.185244	2391.530946
489.553326	2388.629762
489.921350	2388.700338
490.289315	2389.721172
490.657222	2391.104969
491.025070	2390.948693
491.392861	2390.048847
491.760593	2388.823847
492.128267	2389.970709
492.495883	2388.176058
492.863440	2388.357540
493.230939	2391.783004
493.598380	2389.766543
493.965763	2386.547766
494.333088	2388.123126
494.700354	2385.660523
495.067563	2390.053888
495.434713	2385.647920
495.801805	2389.126316
496.168839	2389.864845
496.535815	2392.098076
496.902733	2390.253014
497.269593	2390.227808
497.636395	2388.927190
498.003139	2390.227808
498.369825	2388.024824
498.736453	2388.362581
499.103023	2391.246121
499.469535	2389.300236
499.835989	2388.264279
500.202385	2391.513302
500.568723	2386.721686
500.935003	2388.516336
501.301226	2387.941645
501.667390	2391.137736
502.033497	2391.478014
502.399546	2389.224618
502.765537	2390.104300
503.131470	2390.275699
503.497345	2390.580689
503.863163	2390.371481
504.228923	2390.719321
504.594625	2390.719321
504.960269	2393.184445
505.325856	2389.653117
505.691385	2390.263096
506.056856	2391.130175
506.422270	2388.770915
506.787625	2388.503733
507.152924	2390.263096
507.518164	2392.254352
507.883347	2391.268806
508.248472	2392.607233
508.613540	2392.392984
508.978550	2391.851060
509.343503	2390.673950
509.708398	2392.723179
510.073236	2389.080946
510.438016	2390.159753
510.802738	2391.780483
511.167403	2390.689074
511.532010	2390.333672
511.896561	2391.442726
512.261053	2391.951883
512.625488	2387.956768
512.989866	2387.651778
513.354186	2388.894423
513.718449	2388.491131
514.082655	2392.513971
514.446803	2389.955586
514.810894	2393.045813
515.174927	2390.142108
515.538904	2390.681512
515.902822	2391.490617
516.266684	2393.151677
516.630488	2391.969527
516.994235	2390.275699
517.357925	2390.270658
517.721558	2391.868704
518.085133	2392.544218
518.448651	2391.654455
518.812112	2389.290153
519.175516	2391.412479
519.538863	2393.713766
519.902152	2392.350134
520.265385	2392.070350
520.628560	2393.204609
520.991678	2390.580689
521.354739	2391.092366
521.717743	2390.217726
522.080690	2391.858621
522.443580	2392.887017
522.806413	2394.227964
523.169189	2390.129506
523.531908	2390.454660
523.894569	2389.978271
524.257174	2391.553632
524.619722	2391.500699
524.982213	2391.548590
525.344647	2391.546070
525.707025	2390.500030
526.069345	2391.639331
526.431608	2388.289484
526.793815	2391.969527
527.155964	2392.665206
527.518057	2392.443395
527.880093	2393.539846
528.242072	2392.110679
528.603995	2394.003632
528.965860	2391.740154
529.327669	2390.147150
529.689421	2388.803682
530.051117	2394.238046
530.412755	2392.007335
530.774337	2393.769219
531.135862	2394.059085
531.497331	2391.984650
531.858743	2388.589433
532.220098	2388.975081
532.581396	2388.521378
532.942638	2389.590102
533.303824	2389.953065
533.664953	2391.863663
534.026025	2391.210833
534.387040	2393.071019
534.747999	2392.493807
535.108902	2391.914074
535.469748	2392.929867
535.830537	2391.435164
536.191270	2388.786038
536.551947	2393.567573
536.912567	2392.017418
537.273131	2393.265103
537.633638	2390.003477
537.994089	2394.096894
538.354483	2395.127810
538.714821	2391.488097
539.075103	2391.324259
539.435328	2393.098745
539.795497	2392.584548
540.155609	2393.431461
540.515665	2392.607233
540.875665	2392.629918
541.235609	2392.002294
541.595496	2390.893240
541.955328	2393.996071
542.315102	2394.958931
542.674821	2391.523385
543.034483	2390.431975
543.394090	2392.703015
543.753640	2395.147974
544.113134	2392.887017
544.472571	2392.413148
544.831953	2395.946997
545.191278	2393.512120
545.550548	2391.558673
545.909761	2394.777449
546.268918	2392.559342
546.628019	2392.171173
546.987064	2393.418858
547.346053	2393.476832
547.704986	2394.298540
548.063863	2391.170504
548.422684	2390.462222
548.781449	2392.516492
549.140158	2395.422717
549.498811	2394.391801
549.857408	2392.143447
550.215949	2391.309136
550.574434	2390.736965
550.932864	2390.474825
551.291237	2393.376009
551.649555	2392.496327
552.007817	2393.650752
552.366022	2393.139074
552.724173	2395.831051
553.082267	2393.076060
553.440305	2391.843498
553.798288	2393.862480
554.156215	2393.086142
554.514086	2393.673437
554.871902	2391.929197
555.229661	2394.411966
555.587365	2392.375340
555.945014	2393.464229
556.302606	2393.433982
556.660143	2391.561193
557.017625	2393.381050
557.375050	2393.834754
557.732421	2393.726369
558.089735	2394.346431
558.446994	2395.455485
558.804197	2393.121430
559.161345	2389.975750
559.518437	2390.716800
559.875474	2396.650238
560.232455	2393.786863
560.589381	2391.364588
560.946251	2395.188303
561.303065	2393.998591
561.659825	2392.997922
562.016528	2392.380381
562.373177	2393.071019
562.729770	2391.309136
563.086307	2393.363406
563.442789	2391.455329
563.799216	2393.602861
564.155587	2392.289640
564.511904	2394.485063
564.868164	2395.362223
565.224370	2394.540515
565.580520	2395.740310
565.936615	2394.626215
566.292654	2393.249980
566.648638	2391.719990
567.004567	2394.830382
567.360441	2393.675957
567.716260	2393.716287
568.072023	2393.015566
568.427732	2390.885679
568.783385	2392.496327
569.138982	2390.615977
569.494525	2390.368960
569.850013	2389.748898
570.205445	2391.306615
570.560823	2390.787376
570.916145	2393.237377
571.271412	2393.471791
571.626625	2394.603530
571.981782	2392.561862
572.336884	2394.215361
572.691931	2391.654455
573.046923	2393.905330
573.401860	2393.121430
573.756743	2396.292316
574.111570	2394.064126
574.466342	2394.868190
574.821059	2392.629918
575.175722	2393.859959
575.530330	2394.487583
575.884882	2391.402397
576.239380	2394.464898
576.593823	2394.951369
576.948211	2395.924312
577.302544	2393.754095
577.656823	2394.054044
578.011047	2395.833571
578.365216	2393.847357
578.719330	2394.815258
579.073389	2390.991543
579.427394	2396.458674
579.781344	2392.340052
580.135239	2393.744013
580.489080	2394.623694
580.842866	2394.580844
581.196597	2393.433982
581.550273	2394.306102
581.903895	2392.231667
582.257463	2392.362737
582.610975	2393.370968
582.964434	2392.801317
583.317837	2392.498848
583.671186	2396.546894
584.024481	2393.615463
584.377721	2394.437172
584.730906	2395.037069
585.084037	2394.235525
585.437113	2394.265772
585.790135	2392.486245
586.143103	2395.226112
586.496016	2393.847357
586.848874	2387.452653
587.201679	2393.776780
587.554428	2391.256203
587.907124	2393.403735
588.259765	2390.167314
588.612352	2395.150495
588.964884	2393.648231
589.317362	2393.771739
589.669786	2394.180073
590.022155	2395.644528
590.374470	2392.645041
590.726731	2393.943138
591.078937	2392.864332
591.431090	2393.358365
591.783188	2393.381050
592.135232	2394.273334
592.487222	2392.836605
592.839157	2391.326780
593.191038	2393.141595
593.542866	2393.766698
593.894639	2391.425082
594.246358	2392.395504
594.598022	2391.525905
594.949633	2395.553787
595.301190	2391.341903
595.652692	2394.197717
596.004141	2393.680998
596.355535	2396.002450
596.706876	2392.740823
597.058162	2392.592109
597.409395	2393.018087
597.760573	2393.560011
598.111698	2394.238046
598.462768	2392.723179
598.813785	2394.409445
599.164748	2396.597306
599.515657	2395.150495
599.866511	2393.411297
600.217312	2390.643703
600.568060	2394.595968
600.918753	2393.441544
601.269392	2392.231667
601.619978	2394.580844
601.970510	2395.102604
602.320988	2392.251831
602.671412	2394.462377
603.021783	2391.987171
603.372100	2393.247459
603.722363	2393.134033
604.072572	2394.353992
604.422728	2396.236863
604.772830	2391.614125
605.122878	2390.091697
605.472872	2393.965824
605.822813	2386.792262
606.172701	2394.278375
606.522534	2394.454816
606.872314	2391.316697
607.222041	2393.517161
607.571714	2395.364744
607.921333	2394.961452
608.270899	2392.264434
608.620411	2394.346431
608.969870	2394.704353
609.319276	2393.807027
609.668627	2393.002963
610.017926	2393.620505
610.367171	2395.563869
610.716362	2391.987171
611.065500	2392.690412
611.414585	2393.073539
611.763616	2392.236708
612.112594	2394.502707
612.461518	2394.464898
612.810389	2391.097407
613.159207	2393.043293
613.507971	2393.123951
613.856682	2394.071688
614.205340	2394.764847
614.553945	2394.172511
614.902496	2393.887686
615.250994	2393.118910
615.599439	2391.775442
615.947830	2393.985988
616.296169	2393.615463
616.644454	2394.003632
616.992686	2394.517830
617.340864	2391.742675
617.688990	2394.038920
618.037063	2391.072201
618.385082	2395.468088
618.733048	2394.011194
619.080961	2393.081101
619.428821	2393.698642
619.776628	2390.018600
620.124382	2393.827192
620.472083	2394.835423
620.819731	2394.787532
621.167326	2391.644372
621.514868	2395.415155
621.862357	2393.476832
622.209793	2393.655793
622.557176	2390.628580
622.904506	2389.877448
623.251783	2389.479197
623.599007	2390.668909
623.946179	2388.022303
624.293297	2392.289640
624.640363	2393.335679
624.987376	2394.812738
625.334336	2395.999929
625.681243	2395.256359
626.028097	2393.373488
626.374899	2393.113869
626.721647	2395.407594
627.068343	2393.645710
627.414987	2395.379867
627.761577	2394.598488
628.108115	2392.549259
628.454600	2391.493138
628.801032	2394.487583
629.147412	2390.973899
629.493739	2395.531102
629.840014	2395.228633
630.186236	2390.996584
630.532405	2391.835936
630.878521	2393.234856
631.224585	2392.844167
631.570597	2391.815772
631.916556	2395.967162
632.262462	2393.892727
632.608316	2394.134702
632.954117	2394.694270
633.299866	2395.737789
633.645562	2393.950700
633.991206	2392.085473
634.336797	2393.716287
634.682336	2395.793242
635.027823	2391.596481
635.373257	2392.826523
635.718639	2393.557490
636.063968	2394.492624
636.409245	2393.413817
636.754470	2396.012532
637.099642	2392.960113
637.444762	2394.079250
637.789829	2395.004301
638.134845	2393.741492
638.479808	2394.142264
638.824719	2389.257386
639.169577	2394.865670
639.514383	2392.546739
639.859137	2395.994888
640.203839	2393.373488
640.548489	2392.640000
640.893086	2392.521533
641.237632	2389.186810
641.582125	2392.776111
641.926566	2390.298384
642.270955	2390.517674
642.615292	2393.323077
642.959576	2394.308622
643.303809	2391.248642
643.647990	2394.449774
643.992118	2393.189486
644.336195	2395.279044
