Dividing Wavelength (nm)	Counts (n)	Blue Motor Position (mm): 0.000000	Red Motor Position (mm): 26.000000	
326.493990	1984.699749
326.888308	1984.699749
327.282561	1984.699749
327.676750	1960.855091
328.070874	1962.208641
328.464933	1969.430094
328.858929	1978.010137
329.252859	1989.566983
329.646726	2005.711278
330.040528	2020.572599
330.434265	2041.213604
330.827938	2058.426624
331.221547	2080.703483
331.615091	2102.304827
332.008571	2122.101438
332.401986	2143.770838
332.795338	2160.867911
333.188625	2181.889523
333.581847	2202.041535
333.975006	2218.730275
334.368100	2237.430435
334.761129	2254.041037
335.154095	2267.505959
335.546996	2288.630914
335.939833	2311.477423
336.332606	2322.913281
336.725315	2336.232009
337.117960	2346.190809
337.510540	2350.926973
337.903056	2364.749817
338.295508	2366.413397
338.687896	2372.876157
339.080220	2383.497868
339.472480	2387.908877
339.864676	2391.442726
340.256807	2393.401214
340.648875	2398.177708
341.040879	2398.376833
341.432818	2397.482028
341.824694	2398.525547
342.216506	2397.260218
342.608253	2398.984292
342.999937	2397.766854
343.391557	2399.755589
343.783113	2393.728889
344.174605	2393.759136
344.566033	2393.582696
344.957397	2393.197048
345.348697	2388.924670
345.739934	2388.271840
346.131106	2385.353012
346.522215	2383.558362
346.913260	2382.880326
347.304241	2382.635830
347.695159	2381.234390
348.086012	2377.246837
348.476802	2377.297248
348.867528	2379.593494
349.258191	2372.402288
349.648789	2372.687113
350.039324	2374.527134
350.429796	2371.923378
350.820203	2371.996475
351.210548	2373.823893
351.600828	2370.947915
351.991045	2370.002699
352.381198	2371.694006
352.771288	2371.207535
353.161314	2369.889273
353.551276	2368.598738
353.941175	2371.721732
354.331010	2372.596373
354.720782	2370.768954
355.110490	2373.675179
355.500135	2370.791639
355.889717	2372.437576
356.279235	2374.817001
356.668689	2373.413039
357.058080	2371.938502
357.447408	2372.994624
357.836672	2372.760210
358.225873	2374.275077
358.615010	2374.943030
359.004084	2378.618031
359.393095	2376.757845
359.782043	2378.560058
360.170927	2379.825387
360.559748	2379.401930
360.948505	2380.752959
361.337199	2383.954092
361.725830	2383.374359
362.114398	2386.119268
362.502903	2381.824205
362.891344	2384.440563
363.279722	2388.672612
363.668037	2386.399052
364.056289	2388.171017
364.444478	2386.719165
364.832603	2389.872407
365.220665	2390.298384
365.608665	2389.159083
365.996601	2387.694628
366.384474	2392.574465
366.772284	2390.709238
367.160031	2394.812738
367.547715	2394.336348
367.935336	2394.137223
368.322893	2395.422717
368.710388	2397.968500
369.097820	2403.130641
369.485189	2399.800959
369.872495	2401.439334
370.259738	2402.739952
370.646918	2405.953688
371.034035	2408.479306
371.421090	2411.075500
371.808081	2411.534245
372.195010	2418.687642
372.581875	2423.373395
372.968678	2430.599889
373.355418	2436.863522
373.742096	2446.829883
374.128710	2457.683488
374.515262	2469.494911
374.901751	2485.210708
375.288177	2502.617812
375.674540	2518.121881
376.060841	2540.905376
376.447079	2566.063254
376.833254	2591.742892
377.219367	2616.638630
377.605417	2653.123981
377.991404	2676.618279
378.377329	2718.192674
378.763191	2752.628796
379.148991	2799.662762
379.534727	2848.430884
379.920402	2898.010632
380.306013	2945.919238
380.691563	3008.585821
381.077049	3065.356775
381.462474	3118.997173
381.847835	3192.978626
382.233134	3266.914709
382.618371	3327.884944
383.003545	3410.753952
383.388657	3495.785614
383.773706	3586.712906
384.158693	3657.079852
384.543618	3750.568050
384.928480	3832.287674
385.313280	3936.551339
385.698017	4040.106721
386.082692	4162.369825
386.467305	4226.495823
386.851856	4351.811346
387.236344	4507.651055
387.620770	4571.217485
388.005133	4691.635527
388.389435	4842.199668
388.773674	4923.460548
389.157851	5057.777051
389.541965	5191.445766
389.926018	5217.246391
390.310008	5391.173761
390.693936	5522.586559
391.077802	5636.753570
391.461606	5768.609990
391.845348	5888.624740
392.229027	6007.991701
392.612645	6228.748869
392.996200	6346.502661
393.379694	6520.404825
393.763125	6742.926397
394.146494	6844.102355
394.529801	6978.885164
394.913047	7221.082360
395.296230	7221.987247
395.679351	7280.865403
396.062410	7541.467851
396.445408	7431.784947
396.828343	7586.979388
397.211217	7724.421407
397.594028	7606.236596
397.976778	7810.229407
398.359466	7980.532187
398.742092	7952.218546
399.124656	8101.832431
399.507158	8290.699259
399.889598	8306.001682
400.271977	8516.026233
400.654294	8552.758601
401.036549	8748.244465
401.418742	8772.595758
401.800874	9075.332170
402.182944	9154.064911
402.564952	9521.698617
402.946898	9344.491977
403.328783	9406.346935
403.710606	9596.995812
404.092367	9857.048774
404.474067	10225.098375
404.855705	10007.123924
405.237282	9963.401997
405.618797	10392.515094
406.000250	10636.922836
406.381642	11001.000008
406.762972	10950.328850
407.144240	10754.860630
407.525447	11007.608960
407.906593	10943.679568
408.287677	11203.475431
408.668700	11357.046621
409.049661	11328.259112
409.430560	11496.358908
409.811399	11464.410595
410.192176	11631.497119
410.572891	11698.564630
410.953545	12183.700070
411.334138	11662.419557
411.714669	12262.957091
412.095139	11569.092676
412.475547	12071.277298
412.855894	11918.348855
413.236180	12235.818039
413.616405	11930.238417
413.996568	12197.132225
414.376670	12173.456446
414.756711	12054.828013
415.136691	12330.712719
415.516609	12517.568128
415.896466	12582.200761
416.276262	12872.888815
416.655997	13320.913802
417.035670	13352.000077
417.415283	14000.383202
417.794834	14093.899127
418.174324	13832.797604
418.553753	13734.369076
418.933121	14224.205392
419.312428	14027.638201
419.691674	13945.555613
420.070859	14397.293409
420.449983	14056.370257
420.829045	14603.330408
421.208047	14351.242469
421.586988	14805.316840
421.965867	15059.582558
422.344686	15057.001487
422.723444	15614.588390
423.102141	14309.282425
423.480777	15489.318238
423.859352	15008.001471
424.237866	16113.350069
424.616319	15804.118131
424.994712	16464.889892
425.373044	16257.559837
425.751314	16925.805108
426.129524	16056.952161
426.507673	17146.201834
426.885762	16843.369640
427.263789	17040.655196
427.641756	17206.804065
428.019662	17265.147859
428.397508	17303.160680
428.775292	17601.927183
429.153016	17565.149445
429.530679	17648.535171
429.908282	17664.346750
430.285824	17391.101088
430.663305	18091.977748
431.040726	17692.983024
431.418086	17516.552722
431.795385	18174.617383
432.172624	18582.005628
432.549802	18141.403741
432.926920	18327.785281
433.303977	18216.254793
433.680974	18472.292477
434.057910	18753.661958
434.434786	18776.148025
434.811601	18690.403039
435.188355	19722.362519
435.565050	19383.470952
435.941683	19335.791719
436.318257	20200.185766
436.694770	20005.362814
437.071222	20596.332238
437.447614	19669.879067
437.823946	19701.096412
438.200218	19836.506845
438.576429	19622.461974
438.952580	19898.656711
439.328670	19864.497852
439.704700	20268.334604
440.080670	19842.531024
440.456580	20427.002401
440.832429	20602.217785
441.208218	19610.085941
441.583947	20038.223575
441.959616	20141.499174
442.335224	20380.840555
442.710773	20502.647435
443.086261	21035.696522
443.461689	20404.385264
443.837057	20517.213849
444.212365	21150.160962
444.587612	21137.016153
444.962800	20716.606607
445.337927	21137.406842
445.712995	19872.911538
446.088002	21707.649562
446.462949	21890.900546
446.837837	22065.256413
447.212664	22008.364472
447.587431	24822.916281
447.962139	27718.819711
448.336786	30061.844675
448.711374	28478.660227
449.085901	24815.198275
449.460369	24749.133954
449.834776	24655.910416
450.209124	27082.865551
450.583412	26605.337211
450.957640	27088.551972
451.331808	25738.586425
451.705917	24358.252967
452.079965	24363.309244
452.453954	24679.704662
452.827883	24532.553382
453.201752	24308.348064
453.575562	24432.673000
453.949311	25488.104093
454.323001	25485.500337
454.696632	25210.913728
455.070202	26646.679714
455.443713	26727.895223
455.817164	27223.521305
456.190556	27660.922059
456.563888	27053.856231
456.937160	27392.989773
457.310373	25730.424797
457.683526	26079.673415
458.056619	25980.057694
458.429653	25831.956156
458.802628	26279.943333
459.175542	26295.139892
459.548398	27390.554896
459.921194	28737.551204
460.293930	29236.630476
460.666607	30961.146192
461.039224	32414.848603
461.411782	32629.712662
461.784280	31386.123023
462.156719	30794.145368
462.529099	30141.631017
462.901419	28828.506222
463.273680	27729.050733
463.645882	27652.107602
464.018024	27469.612791
464.390106	28055.898984
464.762130	30212.441585
465.134094	33519.070503
465.505999	37899.760099
465.877845	41707.396531
466.249631	42491.666479
466.621358	40707.380322
466.993026	38568.668282
467.364634	36528.593979
467.736184	34633.825895
468.107674	33326.442974
468.479105	32432.628753
468.850477	31618.825205
469.221790	30236.117364
469.593043	28611.479508
469.964238	27679.143310
470.335373	27384.387044
470.706449	28458.286404
471.077467	30164.860654
471.448425	33407.250149
471.819324	35365.811515
472.190164	33656.199970
472.560945	30678.576916
472.931667	28093.455580
473.302330	27004.415114
473.672934	26169.960480
474.043479	26259.118327
474.413965	25446.607835
474.784393	24940.115547
475.154761	25288.464318
475.525070	25049.884151
475.895321	24484.690146
476.265513	24611.008859
476.635645	24971.862213
477.005719	24606.509629
477.375734	24632.315296
477.745691	24778.738130
478.115588	25342.858368
478.485427	26273.863702
478.855207	28071.718124
479.224928	29409.678164
479.594591	30107.232704
479.964194	29092.957591
480.333739	28807.555187
480.703226	28437.554659
481.072653	28466.984915
481.442022	28395.576971
481.811333	28187.329426
482.180584	27035.191359
482.549777	26382.001493
482.918912	25725.643262
483.287988	25215.755757
483.657005	24413.708180
484.025964	23727.750814
484.394864	23401.278129
484.763706	22826.949554
485.132489	22061.803223
485.501213	21648.451293
485.869879	21399.357799
486.238487	20897.026983
486.607036	20663.132568
486.975527	20100.580128
487.343959	19888.783611
487.712333	19603.131669
488.080648	19270.286966
488.448905	19146.445981
488.817104	18761.987424
489.185244	18828.364296
489.553326	19196.960863
489.921350	19967.846547
490.289315	20881.769931
490.657222	20809.174795
491.025070	20586.333110
491.392861	19846.758032
491.760593	18972.367377
492.128267	17995.001072
492.495883	17111.148171
492.863440	16319.107284
493.230939	15588.691983
493.598380	14964.143433
493.965763	14590.755250
494.333088	14087.360750
494.700354	13693.175287
495.067563	13363.146068
495.434713	13080.102924
495.801805	12852.555321
496.168839	12497.464006
496.535815	12183.478259
496.902733	11956.661624
497.269593	11641.052626
497.636395	11396.412992
498.003139	11270.028744
498.369825	10939.709659
498.736453	10787.234920
499.103023	10477.365275
499.469535	10249.434545
499.835989	10056.847345
500.202385	9797.328745
500.568723	9602.024362
500.935003	9451.523235
501.301226	9229.636848
501.667390	9144.035536
502.033497	9009.340946
502.399546	8723.913336
502.765537	8439.130993
503.131470	8320.195051
503.497345	8200.646608
503.863163	7843.276691
504.228923	7758.305522
504.594625	7654.119996
504.960269	7398.372179
505.325856	7329.812487
505.691385	7098.978052
506.056856	6969.054914
506.422270	6876.574947
506.787625	6689.343973
507.152924	6569.699748
507.518164	6445.311797
507.883347	6232.091154
508.248472	6128.540813
508.613540	6043.728441
508.978550	5950.877949
509.343503	5808.298994
509.708398	5706.485331
510.073236	5633.728878
510.438016	5529.732395
510.802738	5378.341503
511.167403	5318.422349
511.532010	5234.623248
511.896561	5152.840610
512.261053	5115.553715
512.625488	4986.396833
512.989866	4885.233478
513.354186	4791.354591
513.718449	4702.327814
514.082655	4661.537317
514.446803	4567.595416
514.810894	4518.008106
515.174927	4441.720325
515.538904	4368.278275
515.902822	4333.088500
516.266684	4244.805294
516.630488	4195.263354
516.994235	4132.478304
517.357925	4096.529836
517.721558	4047.295407
518.085133	4002.988705
518.448651	3958.956747
518.812112	3900.431472
519.175516	3857.140563
519.538863	3828.383301
519.902152	3785.054583
520.265385	3753.570057
520.628560	3716.792319
520.991678	3675.739683
521.354739	3648.310765
521.717743	3621.665746
522.080690	3589.271292
522.443580	3574.946853
522.806413	3544.193294
523.169189	3516.051053
523.531908	3496.171262
523.894569	3465.203454
524.257174	3443.544137
524.619722	3430.653906
524.982213	3409.440731
525.344647	3387.216804
525.707025	3367.369782
526.069345	3354.018286
526.431608	3337.657221
526.793815	3329.278823
527.155964	3302.805204
527.518057	3289.723409
527.880093	3273.644649
528.242072	3266.062754
528.603995	3250.112543
528.965860	3240.022674
529.327669	3226.429202
529.689421	3216.407388
530.051117	3202.647559
530.412755	3193.621373
530.774337	3185.237934
531.135862	3173.640760
531.497331	3164.571724
531.858743	3152.490599
532.220098	3150.665701
532.581396	3135.060809
532.942638	3122.533542
533.303824	3122.790641
533.664953	3113.756893
534.026025	3099.195520
534.387040	3102.764657
534.747999	3092.178234
535.108902	3089.486258
535.469748	3076.785071
535.830537	3070.702919
536.191270	3070.811304
536.551947	3061.051630
536.912567	3058.767987
537.273131	3053.285732
537.633638	3041.126469
537.994089	3040.471119
538.354483	3031.452495
538.714821	3032.067516
539.075103	3032.052392
539.435328	3024.215919
539.795497	3018.421112
540.155609	3016.875999
540.515665	3013.011954
540.875665	3004.726818
541.235609	3001.772702
541.595496	2998.468225
541.955328	3005.568691
542.315102	2994.044613
542.674821	2986.351812
543.034483	2981.267808
543.394090	2978.074238
543.753640	2976.120790
544.113134	2981.925679
544.472571	2972.077785
544.831953	2979.742859
545.191278	2966.963534
545.550548	2963.696867
545.909761	2964.579069
546.268918	2961.496403
546.628019	2965.020170
546.987064	2955.063891
547.346053	2942.645008
547.704986	2952.175310
548.063863	2942.715584
548.422684	2946.269598
548.781449	2938.692744
549.140158	2937.999585
549.498811	2938.332301
549.857408	2926.344437
550.215949	2932.439192
550.574434	2927.360230
550.932864	2925.787390
551.291237	2928.401228
551.649555	2925.187493
552.007817	2925.626073
552.366022	2914.908580
552.724173	2917.827408
553.082267	2923.440733
553.440305	2924.199426
553.798288	2913.862540
554.156215	2913.572674
554.514086	2915.140473
554.871902	2909.756521
555.229661	2908.546644
555.587365	2903.634039
555.945014	2906.832651
556.302606	2902.676220
556.660143	2901.877197
557.017625	2900.657238
557.375050	2896.478121
557.732421	2899.936353
558.089735	2899.323853
558.446994	2895.636249
558.804197	2901.156312
559.161345	2898.018194
559.518437	2885.788355
559.875474	2889.791031
560.232455	2885.846328
560.589381	2888.228273
560.946251	2887.973695
561.303065	2889.276833
561.659825	2888.124929
562.016528	2878.415667
562.373177	2879.446583
562.729770	2881.057232
563.086307	2875.438866
563.442789	2877.024309
563.799216	2876.008516
564.155587	2871.358052
564.511904	2870.420397
564.868164	2870.216230
565.224370	2872.255377
565.580520	2867.771271
565.936615	2869.124821
566.292654	2859.972606
566.648638	2864.111393
567.004567	2861.570652
567.360441	2859.319776
567.716260	2857.399097
568.072023	2857.993953
568.427732	2853.605628
568.783385	2847.150431
569.138982	2848.385514
569.494525	2847.362159
569.850013	2841.632888
570.205445	2843.326716
570.560823	2841.164061
570.916145	2838.010819
571.271412	2841.847137
571.626625	2837.864626
571.981782	2831.598471
572.336884	2827.648727
572.691931	2827.305929
573.046923	2824.472800
573.401860	2819.121616
573.756743	2815.890236
574.111570	2815.910401
574.466342	2813.856130
574.821059	2814.130873
575.175722	2806.866571
575.530330	2806.473361
575.884882	2799.279634
576.239380	2798.871301
576.593823	2795.355096
576.948211	2790.364353
577.302544	2787.891667
577.656823	2784.851852
578.011047	2782.648867
578.365216	2778.409257
578.719330	2775.077054
579.073389	2772.017074
579.427394	2772.148144
579.781344	2769.967845
580.135239	2763.063985
580.489080	2761.798655
580.842866	2758.491658
581.196597	2764.011722
581.550273	2752.099475
581.903895	2748.081676
582.257463	2749.654516
582.610975	2745.220821
582.964434	2743.093454
583.317837	2738.528689
583.671186	2735.990468
584.024481	2735.420818
584.377721	2730.382184
584.730906	2729.807493
585.084037	2726.921432
585.437113	2721.993704
585.790135	2721.943293
586.143103	2715.982128
586.496016	2713.164123
586.848874	2708.228834
587.201679	2711.863506
587.554428	2703.870756
587.907124	2703.112063
588.259765	2697.773481
588.612352	2699.424459
588.964884	2694.829447
589.317362	2695.252904
589.669786	2692.560928
590.022155	2690.902388
590.374470	2687.144208
590.726731	2685.536080
591.078937	2682.029957
591.431090	2681.490554
591.783188	2677.150120
592.135232	2673.792712
592.487222	2673.018895
592.839157	2670.868843
593.191038	2669.175015
593.542866	2666.185611
593.894639	2660.242090
594.246358	2661.494817
594.598022	2657.930721
594.949633	2654.822850
595.301190	2655.677326
595.652692	2650.981491
596.004141	2653.532315
596.355535	2646.550317
596.706876	2644.957312
597.058162	2643.727270
597.409395	2646.018475
597.760573	2643.354225
598.111698	2639.127217
598.462768	2639.182670
598.813785	2640.465644
599.164748	2637.241826
599.515657	2634.897689
599.866511	2631.668830
600.217312	2633.345014
600.568060	2628.971813
600.918753	2631.270579
601.269392	2630.864766
601.619978	2628.311422
601.970510	2626.988119
602.320988	2627.411576
602.671412	2629.833850
603.021783	2627.086422
603.372100	2623.968468
603.722363	2622.534260
604.072572	2625.813530
604.422728	2621.586523
604.772830	2617.659464
605.122878	2617.994701
605.472872	2619.696090
605.822813	2615.675770
606.172701	2617.205760
606.522534	2620.830350
606.872314	2617.578805
607.222041	2617.346912
607.571714	2616.802468
607.921333	2613.293825
608.270899	2617.510750
608.620411	2619.237345
608.969870	2617.654423
609.319276	2615.592591
609.668627	2616.200050
610.017926	2617.246089
610.367171	2619.837242
610.716362	2614.778444
611.065500	2615.012858
611.414585	2615.738784
611.763616	2614.264247
612.112594	2616.290791
612.461518	2616.121912
612.810389	2614.135697
613.159207	2612.920779
613.507971	2612.898094
613.856682	2615.942951
614.205340	2616.187447
614.553945	2618.544186
614.902496	2616.671398
615.250994	2617.205760
615.599439	2617.861110
615.947830	2616.779782
616.296169	2616.384052
616.644454	2615.990842
616.992686	2616.623507
617.340864	2619.451594
617.688990	2616.298352
618.037063	2616.908332
618.385082	2617.916563
618.733048	2620.008642
619.080961	2618.713065
619.428821	2617.972015
619.776628	2619.885133
620.124382	2617.780452
620.472083	2619.164248
620.819731	2617.898919
621.167326	2612.882971
621.514868	2618.317334
621.862357	2611.196705
622.209793	2611.378186
622.557176	2609.429780
622.904506	2607.955243
623.251783	2605.517845
623.599007	2604.237392
623.946179	2600.922833
624.293297	2603.453492
624.640363	2597.550301
624.987376	2599.513831
625.334336	2598.417380
625.681243	2596.610126
626.028097	2594.341607
626.374899	2596.254725
626.721647	2595.795980
627.068343	2594.318922
627.414987	2590.167531
627.761577	2592.418407
628.108115	2593.494693
628.454600	2590.154928
628.801032	2589.693663
629.147412	2588.360278
629.493739	2590.772470
629.840014	2587.873806
630.186236	2587.236100
630.532405	2587.775504
630.878521	2585.716192
631.224585	2586.989084
631.570597	2584.362643
631.916556	2583.200657
632.262462	2583.911459
632.608316	2584.617221
632.954117	2581.408527
633.299866	2582.782241
633.645562	2580.521283
633.991206	2579.296283
634.336797	2578.189750
634.682336	2579.813001
635.027823	2575.099523
635.373257	2573.826631
635.718639	2573.128431
636.063968	2574.766806
636.409245	2569.518965
636.754470	2570.799418
637.099642	2568.288924
637.444762	2566.295147
637.789829	2565.382698
638.134845	2565.158367
638.479808	2562.635270
638.824719	2561.415310
639.169577	2560.220557
639.514383	2562.710887
639.859137	2562.476473
640.203839	2558.902295
640.548489	2558.367933
