Dividing Wavelength (nm)	Counts (n)	Blue Motor Position (mm): 0.000000	Red Motor Position (mm): 24.000000	
326.493990	1985.486169
326.888308	1985.486169
327.282561	1985.486169
327.676750	1961.172684
328.070874	1961.303754
328.464933	1964.656121
328.858929	1976.989304
329.252859	1990.411376
329.646726	2005.328150
330.040528	2019.529081
330.434265	2039.333253
330.827938	2060.070040
331.221547	2077.991342
331.615091	2100.215268
332.008571	2120.541201
332.401986	2139.977369
332.795338	2159.509320
333.188625	2180.682166
333.581847	2196.725638
333.975006	2218.286653
334.368100	2233.747872
334.761129	2252.027096
335.154095	2264.781215
335.546996	2285.684360
335.939833	2307.504994
336.332606	2319.202992
336.725315	2330.343942
337.117960	2338.397185
337.510540	2346.024451
337.903056	2356.351254
338.295508	2363.025742
338.687896	2370.378265
339.080220	2375.363966
339.472480	2382.071221
339.864676	2384.858979
340.256807	2389.915257
340.648875	2389.539691
341.040879	2389.829557
341.432818	2391.336862
341.824694	2392.607233
342.216506	2392.365257
342.608253	2397.595454
342.999937	2393.083622
343.391557	2390.913405
343.783113	2388.135729
344.174605	2390.275699
344.566033	2386.467107
344.957397	2387.024155
345.348697	2384.269164
345.739934	2381.153731
346.131106	2379.719523
346.522215	2377.508977
346.913260	2376.367156
347.304241	2376.722557
347.695159	2373.544109
348.086012	2372.583770
348.476802	2370.821886
348.867528	2371.542771
349.258191	2369.677544
349.648789	2369.075127
350.039324	2367.759385
350.429796	2366.683099
350.820203	2364.916175
351.210548	2364.031452
351.600828	2367.066227
351.991045	2366.680578
352.381198	2364.454909
352.771288	2366.141175
353.161314	2364.109590
353.551276	2366.743593
353.941175	2363.169415
354.331010	2365.571525
354.720782	2365.687471
355.110490	2368.132431
355.500135	2366.693181
355.889717	2365.664786
356.279235	2364.505321
356.668689	2368.886083
357.058080	2368.296268
357.447408	2366.700743
357.836672	2365.195959
358.225873	2369.551516
358.615010	2366.289889
359.004084	2369.317102
359.393095	2370.733666
359.782043	2372.142669
360.170927	2373.697865
360.559748	2376.157948
360.948505	2375.845396
361.337199	2377.319934
361.725830	2373.576877
362.114398	2376.112577
362.502903	2377.602238
362.891344	2378.658360
363.279722	2379.316231
363.668037	2381.620038
364.056289	2379.890922
364.444478	2382.446787
364.832603	2383.535676
365.220665	2384.778321
365.608665	2382.630789
365.996601	2383.838146
366.384474	2385.307642
366.772284	2388.221429
367.160031	2388.682694
367.547715	2390.810061
367.935336	2390.457181
368.322893	2392.072870
368.710388	2391.160422
369.097820	2395.097563
369.485189	2391.435164
369.872495	2392.448436
370.259738	2397.073695
370.646918	2401.227606
371.034035	2398.575959
371.421090	2401.272976
371.808081	2407.864285
372.195010	2410.115160
372.581875	2418.128074
372.968678	2422.602098
373.355418	2430.259611
373.742096	2438.781681
374.128710	2451.233331
374.515262	2459.326904
374.901751	2475.171250
375.288177	2491.660865
375.674540	2511.714575
376.060841	2532.360620
376.447079	2555.565051
376.833254	2582.026068
377.219367	2603.602206
377.605417	2642.424132
377.991404	2668.764161
378.377329	2711.094730
378.763191	2742.236458
379.148991	2787.679939
379.534727	2837.219358
379.920402	2884.013868
380.306013	2934.579162
380.691563	2993.709376
381.077049	3049.139383
381.462474	3107.727673
381.847835	3180.665608
382.233134	3251.584560
382.618371	3309.661173
383.003545	3397.525964
383.388657	3476.825834
383.773706	3571.574321
384.158693	3641.719456
384.543618	3736.525916
384.928480	3813.247236
385.313280	3918.047784
385.698017	4022.271119
386.082692	4143.813338
386.467305	4208.587124
386.851856	4331.833253
387.236344	4485.177591
387.620770	4551.390627
388.005133	4668.486548
388.389435	4816.399043
388.773674	4902.880037
389.157851	5035.419534
389.541965	5168.606818
389.926018	5190.467782
390.310008	5369.312797
390.693936	5494.381303
391.077802	5607.144353
391.461606	5739.555300
391.845348	5851.819276
392.229027	5980.890458
392.612645	6194.413570
392.996200	6313.112579
393.379694	6483.851418
393.763125	6712.661830
394.146494	6801.325644
394.529801	6940.879906
394.913047	7179.412182
395.296230	7176.435381
395.679351	7235.404278
396.062410	7491.467167
396.445408	7386.762402
396.828343	7538.559106
397.211217	7666.052407
397.594028	7553.516209
397.976778	7755.570696
398.359466	7915.171107
398.742092	7897.766523
399.124656	8046.639358
399.507158	8226.422027
399.889598	8246.566478
400.271977	8456.444836
400.654294	8490.427254
401.036549	8685.903036
401.418742	8713.657108
401.800874	9007.926902
402.182944	9090.649716
402.564952	9455.684707
402.946898	9273.734342
403.328783	9328.105707
403.710606	9533.736892
404.092367	9783.649574
404.474067	10139.260128
404.855705	9936.366288
405.237282	9890.022961
405.618797	10314.936778
406.000250	10554.625999
406.381642	10911.229660
406.762972	10867.593433
407.144240	10670.696046
407.525447	10920.028994
407.906593	10860.581188
408.287677	11111.809610
408.668700	11265.310224
409.049661	11240.215360
409.430560	11400.024978
409.811399	11375.436751
410.192176	11540.143850
410.572891	11612.113882
410.953545	12083.514699
411.334138	11567.807181
411.714669	12156.810556
412.095139	11474.916360
412.475547	11967.469858
412.855894	11823.615492
413.236180	12136.630817
413.616405	11828.744866
413.996568	12105.864655
414.376670	12073.797875
414.756711	11958.216820
415.136691	12230.963408
415.516609	12408.873289
415.896466	12472.296046
416.276262	12760.909665
416.655997	13204.473230
417.035670	13241.117377
417.415283	13882.374832
417.794834	13972.246002
418.174324	13718.186972
418.553753	13617.729378
418.933121	14099.167132
419.312428	13914.222321
419.691674	13817.341427
420.070859	14274.979893
420.449983	13934.334005
420.829045	14477.649402
421.208047	14215.489237
421.586988	14674.791284
421.965867	14931.189410
422.344686	14925.676908
422.723444	15485.527290
423.102141	14185.353219
423.480777	15354.495099
423.859352	14871.726480
424.237866	15958.989939
424.616319	15666.121585
424.994712	16310.451623
425.373044	16107.560304
425.751314	16772.140657
426.129524	15911.484625
426.507673	16981.424159
426.885762	16688.628902
427.263789	16868.048609
427.641756	17038.923560
428.019662	17088.767968
428.397508	17139.194630
428.775292	17423.853464
429.153016	17392.754586
429.530679	17468.218139
429.908282	17486.726735
430.285824	17208.550825
430.663305	17903.042864
431.040726	17514.135489
431.418086	17338.446236
431.795385	17976.631107
432.172624	18390.406494
432.549802	17946.580789
432.926920	18133.542062
433.303977	18012.940018
433.680974	18262.242719
434.057910	18546.047078
434.434786	18569.130522
434.811601	18481.888313
435.188355	19494.761985
435.565050	19149.382453
435.941683	19099.722046
436.318257	19957.975968
436.694770	19759.803169
437.071222	20330.849953
437.447614	19406.627492
437.823946	19415.522608
438.200218	19549.690397
438.576429	19314.621393
438.952580	19571.201001
439.328670	19516.464152
439.704700	19912.729092
440.080670	19466.987748
440.456580	20016.327324
440.832429	20169.671662
441.208218	19159.777312
441.583947	19565.948118
441.959616	19620.906778
442.335224	19835.617082
442.710773	19915.118598
443.086261	20392.951928
443.461689	19738.728625
443.837057	19813.246962
444.212365	20373.651870
444.587612	20315.640792
444.962800	19856.810092
445.337927	20199.608554
445.712995	18943.529456
446.088002	20616.590115
446.462949	20713.428160
446.837837	20802.114659
447.212664	20680.232162
447.587431	23209.502555
447.962139	25804.547402
448.336786	27860.266926
448.711374	26327.241959
449.085901	22864.112940
449.460369	22671.992046
449.834776	22474.716573
450.209124	24556.382916
450.583412	24016.987016
450.957640	24341.468445
451.331808	23010.944108
451.705917	21665.676916
452.079965	21550.383207
452.453954	21711.783309
452.827883	21447.092485
453.201752	21141.069241
453.575562	21106.280238
453.949311	21860.993901
454.323001	21744.404615
454.696632	21374.749407
455.070202	22436.418927
455.443713	22363.785982
455.817164	22617.194704
456.190556	22822.236075
456.563888	22195.524870
456.937160	22309.664155
457.310373	20838.204279
457.683526	20959.126437
458.056619	20729.905171
458.429653	20459.704366
458.802628	20645.712861
459.175542	20518.285094
459.548398	21186.893329
459.921194	22034.283564
460.293930	22251.980752
460.666607	23373.894582
461.039224	24289.383243
461.411782	24246.777932
461.784280	23148.897803
462.156719	22524.417309
462.529099	21853.971573
462.901419	20732.246787
463.273680	19797.495876
463.645882	19565.191945
464.018024	19274.763511
464.390106	19489.108331
464.762130	20769.188362
465.134094	22830.417868
465.505999	25586.583033
465.877845	27935.972454
466.249631	28182.189970
466.621358	26697.088732
466.993026	25026.974627
467.364634	23447.780253
467.736184	22015.028877
468.107674	21003.009681
468.479105	20248.326265
468.850477	19561.816893
469.221790	18546.586482
469.593043	17397.831028
469.964238	16680.774785
470.335373	16337.142012
470.706449	16748.606030
471.077467	17517.760078
471.448425	19161.244288
471.819324	20061.856505
472.190164	18957.939594
472.560945	17145.952297
472.931667	15633.815351
473.302330	14898.472322
473.672934	14321.965968
474.043479	14210.702661
474.413965	13680.968133
474.784393	13285.960962
475.154761	13317.301815
475.525070	13058.700705
475.895321	12652.386226
476.265513	12563.235940
476.635645	12606.322682
477.005719	12303.989563
477.375734	12180.975327
477.745691	12116.841767
478.115588	12223.651214
478.485427	12498.000889
478.855207	13143.266061
479.224928	13575.098861
479.594591	13703.552502
479.964194	13139.144918
480.333739	12839.710461
480.703226	12534.899615
481.072653	12417.654979
481.442022	12266.737956
481.811333	12049.796942
482.180584	11499.376038
482.549777	11126.053390
482.918912	10770.094997
483.287988	10470.005191
483.657005	10072.822761
484.025964	9720.330161
484.394864	9493.621911
484.763706	9189.776445
485.132489	8841.893980
485.501213	8611.520811
485.869879	8430.971886
486.238487	8184.416613
486.607036	8016.964606
486.975527	7763.699557
487.343959	7607.534693
487.712333	7444.801206
488.080648	7262.046776
488.448905	7142.427757
488.817104	6963.323123
489.185244	6902.393217
489.553326	6920.924498
489.921350	7056.846609
490.289315	7212.492234
490.657222	7120.778522
491.025070	6988.828840
491.392861	6730.255457
491.760593	6440.278205
492.128267	6130.476616
492.495883	5861.891501
492.863440	5620.510972
493.230939	5400.472169
493.598380	5210.743303
493.965763	5073.926387
494.333088	4926.341567
494.700354	4795.248882
495.067563	4686.296945
495.434713	4588.521245
495.801805	4508.094677
496.168839	4410.543309
496.535815	4315.157116
496.902733	4245.601796
497.269593	4154.427488
497.636395	4081.645829
498.003139	4033.149929
498.369825	3946.832772
498.736453	3900.902819
499.103023	3827.120492
499.469535	3768.096142
499.835989	3721.762897
500.202385	3663.567817
500.568723	3620.259264
500.935003	3582.102771
501.301226	3531.776932
501.667390	3511.493849
502.033497	3483.293635
502.399546	3434.558280
502.765537	3380.736401
503.131470	3358.981302
503.497345	3339.494721
503.863163	3284.145373
504.228923	3270.819083
504.594625	3254.072369
504.960269	3221.146073
505.325856	3210.226934
505.691385	3179.354908
506.056856	3164.339831
506.422270	3158.050992
506.787625	3132.958648
507.152924	3117.315948
507.518164	3106.230451
507.883347	3083.091554
508.248472	3071.784246
508.613540	3066.695202
508.978550	3060.424006
509.343503	3046.263405
509.708398	3041.179401
510.073236	3040.443393
510.438016	3031.618853
510.802738	3015.860206
511.167403	3015.837521
511.532010	3011.880215
511.896561	3010.277128
512.261053	3015.565299
512.625488	2999.617608
512.989866	2990.120075
513.354186	2984.920124
513.718449	2973.955615
514.082655	2982.399547
514.446803	2973.569967
514.810894	2979.052221
515.174927	2968.624595
515.538904	2965.355406
515.902822	2967.369347
516.266684	2956.278809
516.630488	2959.910960
516.994235	2946.496450
517.357925	2950.514249
517.721558	2950.005093
518.085133	2950.473920
518.448651	2949.664815
518.812112	2941.233485
519.175516	2939.038063
519.538863	2935.663010
519.902152	2934.337187
520.265385	2937.611416
520.628560	2935.889862
520.991678	2925.883172
521.354739	2929.318718
521.717743	2928.439037
522.080690	2925.772266
522.443580	2927.960127
522.806413	2927.917277
523.169189	2921.714138
523.531908	2923.004673
523.894569	2917.076276
524.257174	2917.164496
524.619722	2918.056780
524.982213	2917.514856
525.344647	2912.110739
525.707025	2909.330543
526.069345	2911.523445
526.431608	2909.474216
526.793815	2913.383631
527.155964	2904.382651
527.518057	2902.814852
527.880093	2899.061713
528.242072	2902.857702
528.603995	2897.650190
528.965860	2896.430230
529.327669	2895.200189
529.689421	2890.264899
530.051117	2891.021072
530.412755	2891.487379
530.774337	2893.140878
531.135862	2888.187944
531.497331	2887.346071
531.858743	2881.163096
532.220098	2887.656102
532.581396	2878.738301
532.942638	2876.316027
533.303824	2880.422046
533.664953	2882.078065
534.026025	2876.661346
534.387040	2879.255019
534.747999	2875.464072
535.108902	2881.092520
535.469748	2874.067672
535.830537	2873.724873
536.191270	2872.109184
536.551947	2871.499204
536.912567	2875.736294
537.273131	2875.373331
537.633638	2867.423431
537.994089	2870.377547
538.354483	2863.473687
538.714821	2870.420397
539.075103	2871.234543
539.435328	2869.840664
539.795497	2865.573328
540.155609	2868.318236
540.515665	2870.924512
540.875665	2866.367309
541.235609	2868.900489
541.595496	2865.560725
541.955328	2870.586755
542.315102	2863.413193
542.674821	2860.784232
543.034483	2859.866742
543.394090	2859.024869
543.753640	2858.036803
544.113134	2867.373020
544.472571	2854.505474
544.831953	2867.478884
545.191278	2862.268851
545.550548	2853.214939
545.909761	2858.556042
546.268918	2860.282637
546.628019	2860.771629
546.987064	2857.250383
547.346053	2850.908611
547.704986	2855.226359
548.063863	2850.744774
548.422684	2854.034127
548.781449	2849.055987
549.140158	2854.097141
549.498811	2850.187726
549.857408	2847.117663
550.215949	2848.299814
550.574434	2848.929958
550.932864	2844.881912
551.291237	2849.096316
551.649555	2847.788137
552.007817	2851.503467
552.366022	2842.643639
552.724173	2844.687827
553.082267	2849.303004
553.440305	2849.728981
553.798288	2841.567353
554.156215	2845.242354
554.514086	2845.358301
554.871902	2841.829493
555.229661	2841.927796
555.587365	2841.108608
555.945014	2840.380161
556.302606	2837.196673
556.660143	2839.853361
557.017625	2836.722804
557.375050	2835.170129
557.732421	2835.001250
558.089735	2836.294306
558.446994	2831.895899
558.804197	2838.353617
559.161345	2834.716425
559.518437	2828.851042
559.875474	2827.273161
560.232455	2826.050682
560.589381	2826.373315
560.946251	2825.528922
561.303065	2826.839622
561.659825	2824.371977
562.016528	2819.761842
562.373177	2817.616831
562.729770	2820.051708
563.086307	2810.561736
563.442789	2813.432673
563.799216	2816.187664
564.155587	2808.278094
564.511904	2810.554175
564.868164	2806.770789
565.224370	2805.034111
565.580520	2802.299285
565.936615	2800.376085
566.292654	2799.032617
566.648638	2795.284520
567.004567	2795.617236
567.360441	2791.216308
567.716260	2790.243366
568.072023	2786.875875
568.427732	2780.627365
568.783385	2777.534617
569.138982	2774.083947
569.494525	2773.854575
569.850013	2770.567742
570.205445	2771.029008
570.560823	2766.348297
570.916145	2765.647576
571.271412	2760.031731
571.626625	2755.250196
571.981782	2754.289857
572.336884	2749.268867
572.691931	2748.704258
573.046923	2742.223855
573.401860	2740.988772
573.756743	2734.410066
574.111570	2732.600292
574.466342	2729.802452
574.821059	2726.830692
575.175722	2723.138046
575.530330	2716.864330
575.884882	2716.093034
576.239380	2710.646067
576.593823	2710.280583
576.948211	2706.295551
577.302544	2700.483101
577.656823	2698.514530
578.011047	2696.714838
578.365216	2691.472038
578.719330	2689.097655
579.073389	2684.517767
579.427394	2685.415092
579.781344	2681.057015
580.135239	2675.794050
580.489080	2675.549554
580.842866	2671.446055
581.196597	2670.382371
581.550273	2665.663851
581.903895	2665.585713
582.257463	2664.743841
582.610975	2661.237718
582.964434	2661.577996
583.317837	2658.399549
583.671186	2654.858138
584.024481	2654.343940
584.377721	2653.255051
584.730906	2648.070224
585.084037	2649.912766
585.437113	2646.797333
585.790135	2642.469502
586.143103	2640.674852
586.496016	2638.192083
586.848874	2634.091105
587.201679	2634.842237
587.554428	2627.121710
587.907124	2630.274951
588.259765	2623.920577
588.612352	2629.241515
588.964884	2624.714559
589.317362	2625.730351
589.669786	2625.697584
590.022155	2623.706328
590.374470	2623.734054
590.726731	2619.091152
591.078937	2618.483692
591.431090	2615.942951
591.783188	2614.725512
592.135232	2614.717951
592.487222	2611.728546
592.839157	2612.739298
593.191038	2609.099585
593.542866	2606.205962
593.894639	2603.088009
594.246358	2602.294027
594.598022	2604.073554
594.949633	2602.077257
595.301190	2601.396702
595.652692	2598.956783
596.004141	2601.106835
596.355535	2594.351689
596.706876	2595.357399
597.058162	2590.880855
597.409395	2593.330855
597.760573	2594.762543
598.111698	2593.013263
598.462768	2589.340782
598.813785	2592.010073
599.164748	2587.178127
599.515657	2591.929415
599.866511	2587.205853
600.217312	2589.000504
600.568060	2588.612335
600.918753	2591.639548
601.269392	2586.946234
601.619978	2584.123188
601.970510	2587.457911
602.320988	2587.210895
602.671412	2588.771132
603.021783	2586.389187
603.372100	2583.001531
603.722363	2581.774010
604.072572	2586.195102
604.422728	2588.219125
604.772830	2578.819894
605.122878	2578.683783
605.472872	2578.827456
605.822813	2578.721592
606.172701	2584.279464
606.522534	2581.776531
606.872314	2584.511357
607.222041	2581.516911
607.571714	2584.251737
607.921333	2582.273084
608.270899	2585.123857
608.620411	2581.521953
608.969870	2583.513208
609.319276	2578.230079
609.668627	2581.753846
610.017926	2581.370718
610.367171	2585.935483
610.716362	2582.704103
611.065500	2582.346181
611.414585	2583.031778
611.763616	2585.701069
612.112594	2586.137129
612.461518	2585.824577
612.810389	2585.375915
613.159207	2582.215111
613.507971	2582.358784
613.856682	2586.278281
614.205340	2581.655543
614.553945	2587.062181
614.902496	2583.419947
615.250994	2583.233424
615.599439	2585.648137
615.947830	2584.662591
616.296169	2581.920204
616.644454	2585.476738
616.992686	2584.183682
617.340864	2584.801223
617.688990	2584.014803
618.037063	2587.289032
618.385082	2585.943044
618.733048	2586.830288
619.080961	2584.629824
619.428821	2585.615369
619.776628	2585.910277
620.124382	2585.325503
620.472083	2586.275761
620.819731	2584.579412
621.167326	2584.269381
621.514868	2586.570668
621.862357	2581.610173
622.209793	2577.118505
622.557176	2579.402147
622.904506	2575.908628
623.251783	2573.632547
623.599007	2573.309913
623.946179	2569.957546
624.293297	2570.922927
624.640363	2569.823955
624.987376	2570.335632
625.334336	2566.895045
625.681243	2569.702967
626.028097	2567.200034
626.374899	2565.823799
626.721647	2564.931515
627.068343	2566.194324
627.414987	2562.703325
627.761577	2561.919426
628.108115	2564.440003
628.454600	2560.149981
628.801032	2561.664847
629.147412	2561.453119
629.493739	2558.521688
629.840014	2560.444888
630.186236	2559.313149
630.532405	2555.602860
630.878521	2561.816082
631.224585	2557.616801
631.570597	2557.647048
631.916556	2557.122768
632.262462	2555.605381
632.608316	2556.263251
632.954117	2554.493806
633.299866	2557.503375
633.645562	2553.949362
633.991206	2550.564227
634.336797	2549.167827
634.682336	2551.557334
635.027823	2547.577343
635.373257	2547.166489
635.718639	2546.735470
636.063968	2545.502908
636.409245	2541.404450
636.754470	2544.852599
637.099642	2543.609955
637.444762	2539.587114
637.789829	2541.621220
638.134845	2540.509645
638.479808	2536.138965
638.824719	2535.259284
639.169577	2535.597041
639.514383	2536.028060
639.859137	2536.512010
640.203839	2536.181815
640.548489	2533.106711
640.893086	2530.606299
641.237632	2529.519930
