Dividing Wavelength (nm)	Counts (n)	Blue Motor Position (mm): 0.000000	Red Motor Position (mm): 8.200000	
326.493990	1976.643985
326.888308	1976.643985
327.282561	1976.643985
327.676750	1953.600871
328.070874	1952.809409
328.464933	1960.189659
328.858929	1969.636781
329.252859	1978.279839
329.646726	1998.010915
330.040528	2014.329130
330.434265	2030.796059
330.827938	2047.751980
331.221547	2069.998592
331.615091	2086.997363
332.008571	2110.358070
332.401986	2132.806328
332.795338	2150.523463
333.188625	2172.150013
333.581847	2193.572397
333.975006	2208.612679
334.368100	2224.177242
334.761129	2243.336147
335.154095	2260.097983
335.546996	2271.861516
335.939833	2284.978598
336.332606	2300.742286
336.725315	2311.285859
337.117960	2319.097127
337.510540	2326.366471
337.903056	2334.797801
338.295508	2339.677638
338.687896	2347.909842
339.080220	2356.636079
339.472480	2359.537263
339.864676	2363.338293
340.256807	2365.639580
340.648875	2370.632843
341.040879	2375.023688
341.432818	2370.191742
341.824694	2373.322299
342.216506	2374.731301
342.608253	2371.434387
342.999937	2372.399767
343.391557	2367.681248
343.783113	2368.147554
344.174605	2370.093440
344.566033	2367.015815
344.957397	2364.858201
345.348697	2363.194621
345.739934	2361.256297
346.131106	2358.337469
346.522215	2357.823271
346.913260	2354.609536
347.304241	2355.078363
347.695159	2350.125429
348.086012	2352.769514
348.476802	2350.203567
348.867528	2347.236848
349.258191	2347.050325
349.648789	2348.305573
350.039324	2344.827177
350.429796	2348.242558
350.820203	2345.124605
351.210548	2342.606548
351.600828	2345.023782
351.991045	2343.922289
352.381198	2342.911538
352.771288	2344.839779
353.161314	2341.232834
353.551276	2345.313648
353.941175	2342.596466
354.331010	2344.048318
354.720782	2341.956239
355.110490	2344.083606
355.500135	2343.130828
355.889717	2344.844821
356.279235	2342.200735
356.668689	2346.006807
357.058080	2343.682835
357.447408	2344.680983
357.836672	2343.619820
358.225873	2347.546879
358.615010	2341.711743
359.004084	2347.067969
359.393095	2346.324399
359.782043	2349.936386
360.170927	2347.148628
360.559748	2350.803464
360.948505	2352.013341
361.337199	2350.173320
361.725830	2352.104082
362.114398	2351.247086
362.502903	2352.025944
362.891344	2353.903774
363.279722	2354.017200
363.668037	2356.648682
364.056289	2355.035513
364.444478	2355.141377
364.832603	2355.557273
365.220665	2358.818899
365.608665	2356.202540
365.996601	2357.041892
366.384474	2358.284537
366.772284	2362.347707
367.160031	2357.787983
367.547715	2359.829650
367.935336	2358.501306
368.322893	2361.495752
368.710388	2359.582634
369.097820	2364.071781
369.485189	2361.362161
369.872495	2365.379961
370.259738	2365.475743
370.646918	2367.940867
371.034035	2369.022194
371.421090	2371.585621
371.808081	2373.201311
372.195010	2377.463607
372.581875	2379.361601
372.968678	2387.465256
373.355418	2392.902140
373.742096	2403.513769
374.128710	2412.290418
374.515262	2427.091246
374.901751	2439.938626
375.288177	2454.643672
375.674540	2473.754686
376.060841	2492.011225
376.447079	2514.467045
376.833254	2539.836651
377.219367	2564.238357
377.605417	2601.300920
377.991404	2623.918056
378.377329	2666.755261
378.763191	2699.676516
379.148991	2743.290059
379.534727	2790.800413
379.920402	2835.901096
380.306013	2882.020092
380.691563	2943.708692
381.077049	2996.928153
381.462474	3048.226934
381.847835	3118.379631
382.233134	3188.156762
382.618371	3241.313209
383.003545	3325.392093
383.388657	3393.606467
383.773706	3482.391268
384.158693	3546.539951
384.543618	3631.770739
384.928480	3698.916388
385.313280	3786.282104
385.698017	3873.630177
386.082692	3974.233964
386.467305	4022.286242
386.851856	4119.136890
387.236344	4243.398812
387.620770	4279.039769
388.005133	4357.938868
388.389435	4463.914004
388.773674	4510.206920
389.157851	4594.396710
389.541965	4671.100386
389.926018	4651.598683
390.310008	4761.248820
390.693936	4818.554136
391.077802	4870.984657
391.461606	4927.261578
391.845348	4963.366322
392.229027	5000.799410
392.612645	5108.778404
392.996200	5133.850583
393.379694	5198.642013
393.763125	5284.712153
394.146494	5281.374909
394.529801	5297.632630
394.913047	5381.656062
395.296230	5303.669412
395.679351	5267.433598
396.062410	5334.667467
396.445408	5188.186660
396.828343	5197.243093
397.211217	5176.176111
397.594028	5036.447929
397.976778	5046.195000
398.359466	5041.635276
398.742092	4933.288277
399.124656	4918.235392
399.507158	4906.681067
399.889598	4825.848686
400.271977	4822.892049
400.654294	4735.896857
401.036549	4716.594279
401.418742	4632.696876
401.800874	4639.104183
402.182944	4572.293771
402.564952	4588.009568
402.946898	4434.201444
403.328783	4357.490206
403.710606	4320.145338
404.092367	4286.651912
404.474067	4282.051859
404.855705	4141.373420
405.237282	4035.451216
405.618797	4034.478273
406.000250	3995.719362
406.381642	3973.931495
406.762972	3874.860219
407.144240	3755.223556
407.525447	3706.896534
407.906593	3618.048718
408.287677	3573.852922
408.668700	3518.226310
409.049661	3443.410546
409.430560	3386.871485
409.811399	3316.118891
410.192176	3266.403032
410.572891	3210.879763
410.953545	3188.844880
411.334138	3088.866196
411.714669	3073.858681
412.095139	2978.311172
412.475547	2958.234777
412.855894	2907.145203
413.236180	2876.792416
413.616405	2822.819302
413.996568	2794.828295
414.376670	2763.157246
414.756711	2722.528067
415.136691	2703.217927
415.516609	2677.414781
415.896466	2653.043323
416.276262	2636.503297
416.655997	2621.410082
417.035670	2601.179932
417.415283	2590.908581
417.794834	2571.018708
418.174324	2553.790565
418.553753	2536.055786
418.933121	2530.820548
419.312428	2513.564678
419.691674	2501.493635
420.070859	2496.729745
420.449983	2485.863538
420.829045	2481.634010
421.208047	2471.478605
421.586988	2469.666310
421.965867	2466.087091
422.344686	2463.621967
422.723444	2462.580969
423.102141	2448.884154
423.480777	2450.366253
423.859352	2446.106478
424.237866	2448.551437
424.616319	2442.610438
424.994712	2445.758638
425.373044	2443.003648
425.751314	2440.334357
426.129524	2436.238419
426.507673	2438.479212
426.885762	2435.578028
427.263789	2435.794798
427.641756	2430.252049
428.019662	2433.924530
428.397508	2428.482604
428.775292	2429.695002
429.153016	2427.429003
429.530679	2428.580907
429.908282	2427.255083
430.285824	2423.897675
430.663305	2425.382294
431.040726	2424.127047
431.418086	2424.802562
431.795385	2424.026224
432.172624	2422.662592
432.549802	2423.378436
432.926920	2422.372726
433.303977	2422.788621
433.680974	2421.576223
434.057910	2421.460277
434.434786	2420.341141
434.811601	2423.108734
435.188355	2422.791141
435.565050	2423.459094
435.941683	2421.180493
436.318257	2419.779052
436.694770	2418.586819
437.071222	2421.450194
437.447614	2417.830646
437.823946	2419.141346
438.200218	2420.736871
438.576429	2417.689494
438.952580	2420.673857
439.328670	2423.355751
439.704700	2420.336099
440.080670	2420.978847
440.456580	2420.562951
440.832429	2422.392890
441.208218	2420.535225
441.583947	2420.600760
441.959616	2420.310894
442.335224	2421.578744
442.710773	2422.760894
443.086261	2422.062695
443.461689	2420.827612
443.837057	2419.952972
444.212365	2422.287026
444.587612	2424.137129
444.962800	2421.309042
445.337927	2425.311718
445.712995	2419.433733
446.088002	2423.892633
446.462949	2424.641245
446.837837	2427.129054
447.212664	2425.016811
447.587431	2427.202151
447.962139	2432.175249
448.336786	2438.660694
448.711374	2434.776485
449.085901	2430.688109
449.460369	2427.880186
449.834776	2427.519744
450.209124	2430.662903
450.583412	2432.034097
450.957640	2432.560898
451.331808	2431.638366
451.705917	2426.897161
452.079965	2428.868252
452.453954	2428.396904
452.827883	2429.833633
453.201752	2428.424631
453.575562	2429.286668
453.949311	2432.099632
454.323001	2427.892789
454.696632	2429.715166
455.070202	2433.770774
455.443713	2433.511155
455.817164	2432.492842
456.190556	2431.897986
456.563888	2432.293716
456.937160	2432.258428
457.310373	2433.032245
457.683526	2434.421083
458.056619	2435.197421
458.429653	2434.363110
458.802628	2432.215578
459.175542	2432.724735
459.548398	2438.212031
459.921194	2438.532144
460.293930	2440.445262
460.666607	2444.833587
461.039224	2447.054215
461.411782	2445.700665
461.784280	2446.408947
462.156719	2442.159254
462.529099	2442.043308
462.901419	2439.489963
463.273680	2438.600200
463.645882	2437.828903
464.018024	2437.821342
464.390106	2440.631785
464.762130	2444.674790
465.134094	2450.053701
465.505999	2460.320011
465.877845	2469.116825
466.249631	2467.755713
466.621358	2464.468881
466.993026	2463.896710
467.364634	2463.735393
467.736184	2458.971502
468.107674	2450.444391
468.479105	2453.229628
468.850477	2450.830039
469.221790	2449.005141
469.593043	2446.449276
469.964238	2445.622527
470.335373	2444.168154
470.706449	2447.770059
471.077467	2448.702672
471.448425	2457.537294
471.819324	2460.985443
472.190164	2458.323714
472.560945	2453.186778
472.931667	2448.730398
473.302330	2445.869544
473.672934	2448.314503
474.043479	2446.061107
474.413965	2445.012548
474.784393	2438.517021
475.154761	2444.901642
475.525070	2441.750921
475.895321	2441.403081
476.265513	2440.500715
476.635645	2443.386775
477.005719	2448.478341
477.375734	2447.644030
477.745691	2447.928855
478.115588	2451.941613
478.485427	2451.097220
478.855207	2458.011163
479.224928	2462.250773
479.594591	2462.472584
479.964194	2460.887141
480.333739	2464.002574
480.703226	2461.197172
481.072653	2463.526185
481.442022	2464.405866
481.811333	2464.839406
482.180584	2462.041565
482.549777	2461.872687
482.918912	2459.838581
483.287988	2459.846143
483.657005	2458.318673
484.025964	2457.680967
484.394864	2453.842128
484.763706	2456.430761
485.132489	2452.856583
485.501213	2455.374639
485.869879	2453.665688
486.238487	2457.053343
486.607036	2455.742643
486.975527	2450.399020
487.343959	2453.837087
487.712333	2452.912036
488.080648	2452.876748
488.448905	2453.330451
488.817104	2453.010338
489.185244	2457.116358
489.553326	2457.648200
489.921350	2463.049796
490.289315	2466.936526
490.657222	2469.477267
491.025070	2464.070630
491.392861	2466.034159
491.760593	2465.623305
492.128267	2458.328755
492.495883	2459.095011
492.863440	2456.415637
493.230939	2454.255503
493.598380	2452.778445
493.965763	2450.250306
494.333088	2448.032199
494.700354	2448.226283
495.067563	2451.664350
495.434713	2445.322578
495.801805	2453.022941
496.168839	2451.278702
496.535815	2450.235183
496.902733	2451.344237
497.269593	2451.568568
497.636395	2450.688887
498.003139	2450.572940
498.369825	2454.321038
498.736453	2452.659978
499.103023	2452.412961
499.469535	2456.100565
499.835989	2453.098558
500.202385	2457.053343
500.568723	2455.044444
500.935003	2459.218519
501.301226	2456.100565
501.667390	2459.105093
502.033497	2464.438634
502.399546	2460.811524
502.765537	2461.918057
503.131470	2463.448047
503.497345	2464.380661
503.863163	2463.518623
504.228923	2466.921402
504.594625	2466.881073
504.960269	2467.362503
505.325856	2473.595890
505.691385	2472.670838
506.056856	2473.472382
506.422270	2476.486992
506.787625	2475.977835
507.152924	2477.974132
507.518164	2484.048722
507.883347	2479.894812
508.248472	2484.081490
508.613540	2486.718013
508.978550	2488.767242
509.343503	2492.669095
509.708398	2493.785711
510.073236	2495.403921
510.438016	2497.178407
510.802738	2495.421565
511.167403	2499.290651
511.532010	2502.307782
511.896561	2504.704850
512.261053	2507.782475
512.625488	2503.855416
512.989866	2504.472957
513.354186	2506.759120
513.718449	2504.992196
514.082655	2512.127949
514.446803	2512.664832
514.810894	2512.097702
515.174927	2514.830008
515.538904	2509.612413
515.902822	2512.304390
516.266684	2513.204236
516.630488	2513.264729
516.994235	2513.403361
517.357925	2512.886643
517.721558	2513.781448
518.085133	2511.535614
518.448651	2510.139214
518.812112	2512.407733
519.175516	2506.033194
519.538863	2507.462361
519.902152	2505.718122
520.265385	2506.222237
520.628560	2506.375993
520.991678	2504.520848
521.354739	2499.610764
521.717743	2495.035917
522.080690	2495.509786
522.443580	2494.420896
522.806413	2491.002994
523.169189	2491.393683
523.531908	2489.818323
523.894569	2485.898826
524.257174	2485.649289
524.619722	2483.269864
524.982213	2484.381438
525.344647	2482.087713
525.707025	2476.373566
526.069345	2473.686631
526.431608	2474.278966
526.793815	2469.900724
527.155964	2469.280662
527.518057	2467.115487
527.880093	2466.686988
528.242072	2464.788994
528.603995	2460.740948
528.965860	2459.510906
529.327669	2461.134158
529.689421	2456.471090
530.051117	2452.947324
530.412755	2452.846501
530.774337	2452.042437
531.135862	2448.984977
531.497331	2448.044802
531.858743	2442.577670
532.220098	2443.268308
532.581396	2441.798812
532.942638	2439.560540
533.303824	2443.248144
533.664953	2440.316713
534.026025	2442.678493
534.387040	2440.472988
534.747999	2441.561878
535.108902	2437.710436
535.469748	2438.017947
535.830537	2438.035591
536.191270	2436.122473
536.551947	2437.919644
536.912567	2437.344953
537.273131	2437.730601
537.633638	2434.211875
537.994089	2435.502411
538.354483	2435.759510
538.714821	2436.266146
539.075103	2433.687595
539.435328	2435.802359
539.795497	2433.317071
540.155609	2433.112904
540.515665	2432.825558
540.875665	2433.811104
541.235609	2436.873605
541.595496	2433.768254
541.955328	2432.369334
542.315102	2431.245156
542.674821	2431.862698
543.034483	2432.036617
543.394090	2431.645928
543.753640	2432.127358
544.113134	2431.212389
544.472571	2430.594847
544.831953	2433.576690
545.191278	2430.622574
545.550548	2430.514189
545.909761	2429.944539
546.268918	2429.135433
546.628019	2432.767585
546.987064	2428.046544
547.346053	2431.209868
547.704986	2433.037287
548.063863	2432.568459
548.422684	2434.007709
548.781449	2430.340269
549.140158	2431.035948
549.498811	2432.185332
549.857408	2429.659713
550.215949	2427.333221
550.574434	2423.564958
550.932864	2427.512182
551.291237	2422.811306
551.649555	2429.495876
552.007817	2427.570155
552.366022	2429.107707
552.724173	2424.585792
553.082267	2428.026380
553.440305	2429.337080
553.798288	2428.608633
554.156215	2426.519075
554.514086	2428.459919
554.871902	2427.746596
555.229661	2429.042172
555.587365	2426.400608
555.945014	2429.362285
556.302606	2425.949424
556.660143	2425.490679
557.017625	2427.577717
557.375050	2426.531678
557.732421	2424.376584
558.089735	2428.326328
558.446994	2427.108890
558.804197	2431.807245
559.161345	2427.678540
559.518437	2428.170052
559.875474	2425.720052
560.232455	2429.629467
560.589381	2426.186358
560.946251	2428.981678
561.303065	2429.349683
561.659825	2429.251380
562.016528	2427.562593
562.373177	2430.113417
562.729770	2428.570824
563.086307	2427.812131
563.442789	2426.899682
563.799216	2430.020156
564.155587	2427.242480
564.511904	2426.345155
564.868164	2429.921853
565.224370	2428.023859
565.580520	2428.379260
565.936615	2423.436409
566.292654	2427.338262
566.648638	2429.049734
567.004567	2425.583941
567.360441	2425.866245
567.716260	2429.465629
568.072023	2425.863725
568.427732	2424.812644
568.783385	2426.483787
569.138982	2424.530339
569.494525	2422.541604
569.850013	2425.059661
570.205445	2428.659044
570.560823	2426.493869
570.916145	2426.486307
571.271412	2424.283323
571.626625	2425.941862
571.981782	2426.075453
572.336884	2426.317428
572.691931	2426.859352
573.046923	2427.890268
573.401860	2423.814496
573.756743	2425.568817
574.111570	2426.408169
574.466342	2426.917326
574.821059	2427.698705
575.175722	2427.234918
575.530330	2426.219126
575.884882	2423.501944
576.239380	2424.835329
576.593823	2426.309867
576.948211	2426.042686
577.302544	2427.192069
577.656823	2422.160997
578.011047	2427.108890
578.365216	2421.891295
578.719330	2426.130906
579.073389	2422.249217
579.427394	2426.819023
579.781344	2424.263158
580.135239	2424.071594
580.489080	2425.863725
580.842866	2425.979671
581.196597	2425.825916
581.550273	2425.208375
581.903895	2423.917839
582.257463	2423.703590
582.610975	2422.730648
582.964434	2426.700556
583.317837	2422.317273
583.671186	2424.621080
584.024481	2422.390370
584.377721	2421.926583
584.730906	2423.721234
585.084037	2420.981367
585.437113	2423.680905
585.790135	2423.033117
586.143103	2422.287026
586.496016	2423.864907
586.848874	2418.332241
587.201679	2423.537232
587.554428	2419.186716
587.907124	2419.458939
588.259765	2414.236303
588.612352	2425.044537
588.964884	2419.935328
589.317362	2421.200657
589.669786	2420.741912
590.022155	2424.230391
590.374470	2421.717376
590.726731	2423.136460
591.078937	2423.086049
591.431090	2421.568662
591.783188	2422.097983
592.135232	2420.351223
592.487222	2419.847108
592.839157	2419.514391
593.191038	2420.469690
593.542866	2417.719741
593.894639	2421.145205
594.246358	2422.357602
594.598022	2420.678898
594.949633	2422.244176
595.301190	2417.389545
595.652692	2420.174783
596.004141	2420.424320
596.355535	2419.758887
596.706876	2419.408527
597.058162	2419.509350
597.409395	2421.087231
597.760573	2423.207037
598.111698	2417.210584
598.462768	2418.881727
598.813785	2417.692014
599.164748	2420.285688
599.515657	2417.187899
599.866511	2420.840215
600.217312	2419.242169
600.568060	2418.712848
600.918753	2423.370874
601.269392	2419.048085
601.619978	2421.384659
601.970510	2420.512540
602.320988	2419.713517
602.671412	2421.543456
603.021783	2418.259144
603.372100	2419.768970
603.722363	2419.779052
604.072572	2419.809299
604.422728	2420.081521
604.772830	2414.311921
605.122878	2416.469534
605.472872	2416.953485
605.822813	2414.344688
606.172701	2419.605132
606.522534	2417.747467
606.872314	2419.683270
607.222041	2419.562282
607.571714	2420.527663
607.921333	2416.653537
608.270899	2417.689494
608.620411	2417.712179
608.969870	2418.339803
609.319276	2418.624628
609.668627	2420.056315
610.017926	2418.599422
610.367171	2419.121181
610.716362	2416.532549
611.065500	2420.268044
611.414585	2417.026582
611.763616	2418.370049
612.112594	2418.291912
612.461518	2416.903074
612.810389	2418.455749
613.159207	2419.479103
613.507971	2418.571696
613.856682	2417.520615
614.205340	2419.075811
614.553945	2418.841397
614.902496	2420.517581
615.250994	2418.909453
615.599439	2419.521953
615.947830	2419.952972
616.296169	2420.189906
616.644454	2418.415420
616.992686	2419.529515
617.340864	2419.406007
617.688990	2422.171079
618.037063	2420.331058
618.385082	2418.256623
618.733048	2419.894998
619.080961	2418.848959
619.428821	2420.537746
619.776628	2420.883065
620.124382	2420.976326
620.472083	2420.283167
620.819731	2422.055133
621.167326	2417.954154
621.514868	2420.840215
621.862357	2418.518763
622.209793	2421.838363
622.557176	2420.794844
622.904506	2416.209915
623.251783	2415.942734
623.599007	2417.404668
623.946179	2412.333268
624.293297	2416.091448
624.640363	2416.527508
624.987376	2417.361819
625.334336	2416.240162
625.681243	2416.300656
626.028097	2416.280491
626.374899	2416.837539
626.721647	2414.934503
627.068343	2417.180337
627.414987	2417.066911
627.761577	2416.300656
628.108115	2416.736716
628.454600	2418.622107
628.801032	2418.843918
629.147412	2415.950296
629.493739	2415.173958
629.840014	2416.721592
630.186236	2417.974319
630.532405	2417.334092
630.878521	2414.679925
631.224585	2413.510377
631.570597	2415.398289
631.916556	2417.260996
632.262462	2416.794689
632.608316	2416.126736
632.954117	2416.111613
633.299866	2417.485327
633.645562	2416.706469
633.991206	2417.941551
634.336797	2412.887795
634.682336	2418.581778
635.027823	2414.770666
635.373257	2414.626993
635.718639	2412.721437
636.063968	2416.136818
636.409245	2412.144224
636.754470	2415.867117
637.099642	2415.761252
637.444762	2414.415264
637.789829	2415.496592
638.134845	2413.107085
638.479808	2413.301169
638.824719	2414.886612
639.169577	2413.255799
639.514383	2413.447363
639.859137	2414.054822
640.203839	2415.592374
640.548489	2413.548186
640.893086	2410.362177
641.237632	2408.244892
641.582125	2410.316806
641.926566	2408.315468
642.270955	2413.018865
642.615292	2412.580284
642.959576	2414.364853
643.303809	2412.280336
643.647990	2410.442835
643.992118	2412.063566
644.336195	2411.814029
