Dividing Wavelength (nm)	Counts (n)	Blue Motor Position (mm): 0.000000	Red Motor Position (mm): 39.400000	
326.493990	1991.424648
326.888308	1991.424648
327.282561	1991.424648
327.676750	1967.471605
328.070874	1970.793726
328.464933	1975.131639
328.858929	1984.999697
329.252859	1998.963693
329.646726	2013.729233
330.040528	2027.776408
330.434265	2046.748791
330.827938	2066.981462
331.221547	2088.502148
331.615091	2106.562081
332.008571	2126.298198
332.401986	2148.743936
332.795338	2168.303613
333.188625	2190.509896
333.581847	2207.601928
333.975006	2226.634804
334.368100	2241.639798
334.761129	2259.268713
335.154095	2275.617175
335.546996	2303.850158
335.939833	2346.669718
336.332606	2362.312419
336.725315	2373.382792
337.117960	2379.270860
337.510540	2389.708569
337.903056	2399.180897
338.295508	2405.000909
338.687896	2413.091961
339.080220	2421.225863
339.472480	2427.943201
339.864676	2428.495207
340.256807	2430.123500
340.648875	2435.822524
341.040879	2436.576177
341.432818	2437.944850
341.824694	2437.365117
342.216506	2437.511311
342.608253	2439.696651
342.999937	2436.044335
343.391557	2435.477205
343.783113	2434.819334
344.174605	2432.112235
344.566033	2430.746082
344.957397	2432.419745
345.348697	2427.139137
345.739934	2427.739034
346.131106	2424.056471
346.522215	2425.130237
346.913260	2420.938517
347.304241	2418.843918
347.695159	2418.342323
348.086012	2416.073804
348.476802	2415.572209
348.867528	2416.623290
349.258191	2413.664132
349.648789	2414.395100
350.039324	2412.643299
350.429796	2413.265881
350.820203	2411.050294
351.210548	2409.427043
351.600828	2410.891498
351.991045	2412.219842
352.381198	2410.919224
352.771288	2412.071128
353.161314	2409.174985
353.551276	2409.071641
353.941175	2412.834862
354.331010	2411.372928
354.720782	2412.827301
355.110490	2408.696075
355.500135	2411.844276
355.889717	2412.973494
356.279235	2414.039698
356.668689	2412.635737
357.058080	2412.050963
357.447408	2408.985942
357.836672	2412.161868
358.225873	2411.700603
358.615010	2411.796385
359.004084	2416.280491
359.393095	2417.941551
359.782043	2419.915163
360.170927	2418.009607
360.559748	2421.845925
360.948505	2422.118147
361.337199	2423.317942
361.725830	2423.474218
362.114398	2422.478590
362.502903	2422.342479
362.891344	2426.725762
363.279722	2427.461770
363.668037	2428.323808
364.056289	2429.778181
364.444478	2429.175763
364.832603	2429.069898
365.220665	2431.736669
365.608665	2430.446133
365.996601	2434.627771
366.384474	2432.921340
366.772284	2435.086516
367.160031	2435.031063
367.547715	2437.100457
367.935336	2433.964859
368.322893	2436.971907
368.710388	2439.278235
369.097820	2442.431477
369.485189	2440.145313
369.872495	2444.087496
370.259738	2445.004986
370.646918	2449.685697
371.034035	2449.589915
371.421090	2455.077211
371.808081	2455.871193
372.195010	2463.039714
372.581875	2467.062554
372.968678	2472.544809
373.355418	2481.412199
373.742096	2493.866369
374.128710	2508.407578
374.515262	2513.930162
374.901751	2532.005219
375.288177	2550.715461
375.674540	2569.859243
376.060841	2589.393714
376.447079	2614.138218
376.833254	2643.757517
377.219367	2668.126455
377.605417	2701.723225
377.991404	2732.040724
378.377329	2773.627723
378.763191	2806.322126
379.148991	2857.696525
379.534727	2905.950449
379.920402	2955.366360
380.306013	3005.677075
380.691563	3070.697878
381.077049	3124.161835
381.462474	3188.547452
381.847835	3262.944800
382.233134	3336.921212
382.618371	3397.445305
383.003545	3485.647854
383.388657	3566.417221
383.773706	3661.866427
384.158693	3737.584558
384.543618	3833.248014
384.928480	3916.351435
385.313280	4025.789844
385.698017	4125.191316
386.082692	4255.071603
386.467305	4319.989062
386.851856	4452.503353
387.236344	4609.333649
387.620770	4675.554246
388.005133	4797.482113
388.389435	4947.718580
388.773674	5036.407600
389.157851	5173.874824
389.541965	5305.922808
389.926018	5330.886602
390.310008	5515.191186
390.693936	5639.884127
391.077802	5762.555564
391.461606	5899.440535
391.845348	6011.709552
392.229027	6141.952803
392.612645	6373.026692
392.996200	6485.920812
393.379694	6667.664491
393.763125	6897.858699
394.146494	6995.059707
394.529801	7136.106150
394.913047	7387.621918
395.296230	7385.562607
395.679351	7445.748943
396.062410	7714.182823
396.445408	7604.835155
396.828343	7766.257942
397.211217	7908.131135
397.594028	7784.312835
397.976778	7994.982654
398.359466	8163.921802
398.742092	8133.201010
399.124656	8290.243035
399.507158	8480.748239
399.889598	8503.657762
400.271977	8721.675063
400.654294	8749.471986
401.036549	8953.658881
401.418742	8977.594280
401.800874	9290.624728
402.182944	9370.474084
402.564952	9742.954859
402.946898	9567.925998
403.328783	9634.749013
403.710606	9830.824692
404.092367	10097.148849
404.474067	10467.356064
404.855705	10245.174770
405.237282	10201.417555
405.618797	10642.410132
406.000250	10890.765096
406.381642	11274.154929
406.762972	11211.014477
407.144240	11004.037303
407.525447	11269.494382
407.906593	11207.155473
408.287677	11473.794703
408.668700	11632.291101
409.049661	11603.415372
409.430560	11764.578539
409.811399	11734.177861
410.192176	11905.622462
410.572891	11978.459574
410.953545	12486.502017
411.334138	11946.110489
411.714669	12566.106877
412.095139	11854.900893
412.475547	12373.832229
412.855894	12210.410624
413.236180	12549.163559
413.616405	12225.521482
413.996568	12515.198785
414.376670	12486.479332
414.756711	12350.897499
415.136691	12643.473466
415.516609	12827.702433
415.896466	12906.712437
416.276262	13201.554402
416.655997	13641.430363
417.035670	13674.482688
417.415283	14335.947608
417.794834	14439.003916
418.174324	14172.347042
418.553753	14068.700919
418.933121	14578.401902
419.312428	14375.402199
419.691674	14295.832626
420.070859	14763.573565
420.449983	14412.421912
420.829045	14972.478981
421.208047	14706.182549
421.586988	15181.444890
421.965867	15449.094871
422.344686	15437.530464
422.723444	16014.694689
423.102141	14671.338094
423.480777	15885.258023
423.859352	15386.360232
424.237866	16517.045669
424.616319	16213.868157
424.994712	16881.725259
425.373044	16679.123807
425.751314	17365.421450
426.129524	16471.362733
426.507673	17604.868696
426.885762	17279.699150
427.263789	17480.004357
427.641756	17663.509918
428.019662	17722.526706
428.397508	17767.254344
428.775292	18078.659020
429.153016	18039.963123
429.530679	18119.815000
429.908282	18142.467425
430.285824	17851.144185
430.663305	18585.330269
431.040726	18174.209050
431.418086	17986.073188
431.795385	18652.155805
432.172624	19077.762780
432.549802	18627.683523
432.926920	18812.091452
433.303977	18699.532569
433.680974	18956.759964
434.057910	19252.557228
434.434786	19284.417320
434.811601	19182.046609
435.188355	20247.287787
435.565050	19885.731192
435.941683	19835.954839
436.318257	20738.205431
436.694770	20536.072806
437.071222	21159.522384
437.447614	20203.845644
437.823946	20229.366485
438.200218	20385.813654
438.576429	20162.142699
438.952580	20435.537075
439.328670	20398.300592
439.704700	20826.375212
440.080670	20380.502798
440.456580	21000.945328
440.832429	21177.294972
441.208218	20134.186980
441.583947	20595.344172
441.959616	20698.856705
442.335224	20952.487237
442.710773	21075.592214
443.086261	21621.143362
443.461689	20980.299283
443.837057	21104.644383
444.212365	21770.444695
444.587612	21768.952514
444.962800	21311.883698
445.337927	21764.952358
445.712995	20466.472115
446.088002	22360.237010
446.462949	22543.629146
446.837837	22741.605340
447.212664	22690.982073
447.587431	25583.946510
447.962139	28567.382015
448.336786	30992.000574
448.711374	29411.477856
449.085901	25665.335939
449.460369	25597.129127
449.834776	25516.198443
450.209124	28052.002172
450.583412	27568.169870
450.957640	28102.328011
451.331808	26738.832006
451.705917	25347.592012
452.079965	25389.489042
452.453954	25755.035710
452.827883	25625.909075
453.201752	25427.249804
453.575562	25602.278666
453.949311	26737.269249
454.323001	26796.459957
454.696632	26548.944344
455.070202	28144.051120
455.443713	28280.232850
455.817164	28879.462205
456.190556	29421.345914
456.563888	28859.075779
456.937160	29308.507247
457.310373	27606.512886
457.683526	28075.083095
458.056619	28042.723928
458.429653	27989.577564
458.802628	28572.140864
459.175542	28687.207721
459.548398	30010.845842
459.921194	31589.639445
460.293930	32261.133740
460.666607	34334.638455
461.039224	36104.869875
461.411782	36519.290530
461.784280	35314.734545
462.156719	34832.293601
462.529099	34273.774084
462.901419	32970.792091
463.273680	31890.291340
463.645882	31990.149036
464.018024	31952.973047
464.390106	32793.756850
464.762130	35514.149988
465.134094	39607.733269
465.505999	44958.716431
465.877845	49577.058621
466.249631	50766.808738
466.621358	49090.143654
466.993026	46997.341402
467.364634	44917.051294
467.736184	42914.851180
468.107674	41641.296922
468.479105	40836.506957
468.850477	40151.202421
469.221790	38690.114720
469.593043	36915.850377
469.964238	36017.491555
470.335373	35941.488599
470.706449	37677.019237
471.077467	40279.739241
471.448425	44882.652981
471.819324	47739.921008
472.190164	45879.742800
472.560945	42290.496714
472.931667	39159.181482
473.302330	38025.912453
473.672934	37198.880918
474.043479	37698.600417
474.413965	36886.916674
474.784393	36503.705803
475.154761	37419.812006
475.525070	37455.442881
475.895321	36974.317679
476.265513	37583.218487
476.635645	38576.524921
477.005719	38393.909122
477.375734	38857.944813
477.745691	39571.550387
478.115588	40929.848962
478.485427	42913.595932
478.855207	46295.743857
479.224928	48904.568698
479.594591	50566.380023
479.964194	49575.379917
480.333739	49760.763309
480.703226	49800.747220
481.072653	50410.873029
481.442022	50898.166083
481.811333	51152.285608
482.180584	49861.939266
482.549777	49358.010404
482.918912	48816.920677
483.287988	48535.596566
483.657005	47691.830920
484.025964	47053.963642
484.394864	47072.436950
484.763706	46632.961761
485.132489	45764.282733
485.501213	45590.496516
485.869879	45751.130363
486.238487	45339.736921
486.607036	45530.221960
486.975527	44984.922869
487.343959	45176.867322
487.712333	45283.394465
488.080648	45175.773392
488.448905	45632.998484
488.817104	45441.144771
489.185244	46423.035512
489.553326	48091.808669
489.921350	50813.026036
490.289315	53651.853522
490.657222	54250.077167
491.025070	54530.544282
491.392861	53648.196165
491.760593	52424.609824
492.128267	50792.725310
492.495883	49257.830075
492.863440	47875.424702
493.230939	46500.462594
493.598380	45395.441671
493.965763	45076.674389
494.333088	44244.367287
494.700354	43732.349893
495.067563	43439.428608
495.434713	43313.155266
495.801805	43360.282492
496.168839	42974.987104
496.535815	42640.602328
496.902733	42681.148329
497.269593	42262.775409
497.636395	42188.183976
498.003139	42596.759413
498.369825	42026.299923
498.736453	42361.264432
499.103023	41872.262427
499.469535	41745.011101
499.835989	41842.065915
500.202385	41491.594817
500.568723	41510.317663
500.935003	41705.992570
501.301226	41492.368634
501.667390	42108.347223
502.033497	42381.562638
502.399546	41801.073772
502.765537	41099.861875
503.131470	41503.708710
503.497345	41855.863553
503.863163	40506.513027
504.228923	41125.334826
504.594625	41538.797661
504.960269	40815.959214
505.325856	41511.444361
505.691385	40879.734852
506.056856	41016.944977
506.422270	41460.037194
506.787625	41040.867772
507.152924	41205.436240
507.518164	41327.906031
507.883347	40510.903872
508.248472	40786.700357
508.613540	41235.073183
508.978550	41550.301574
509.343503	41299.630199
509.708398	41501.941786
510.073236	42039.270812
510.438016	42036.276367
510.802738	41487.332522
511.167403	42113.932821
511.532010	42339.988242
511.896561	42630.588076
512.261053	43509.210780
512.625488	43028.594734
512.989866	42907.014706
513.354186	42752.147939
513.718449	42713.744429
514.082655	43403.039039
514.446803	43074.539810
514.810894	43603.603865
515.174927	43530.975962
515.538904	43413.910287
515.902822	44102.179022
516.266684	43529.957649
516.630488	43974.453827
516.994235	43807.387468
517.357925	44392.126026
517.721558	44565.035083
518.085133	44860.439136
518.448651	45013.503691
518.812112	44756.034320
519.175516	44861.281009
519.538863	45212.382251
519.902152	45160.125650
520.265385	45620.927441
520.628560	45656.873388
520.991678	45450.947295
521.354739	45678.815011
521.717743	45987.573081
522.080690	45904.938487
522.443580	46433.543797
522.806413	46490.216448
523.169189	46432.981708
523.531908	46609.953935
523.894569	46470.455125
524.257174	46640.447874
524.619722	46919.715194
524.982213	46934.211032
525.344647	46845.779112
525.707025	46860.993314
526.069345	47257.510311
526.431608	47182.936522
526.793815	47502.621293
527.155964	47046.336376
527.518057	47179.069957
527.880093	46969.899881
528.242072	47491.792895
528.603995	47182.162705
528.965860	47184.642952
529.327669	47289.007440
529.689421	47180.884772
530.051117	47123.763458
530.412755	47269.188144
530.774337	47335.391097
531.135862	47131.393244
531.497331	47325.505394
531.858743	47206.932414
532.220098	47567.589163
532.581396	47286.983417
532.942638	46939.721013
533.303824	47222.509580
533.664953	47197.049232
534.026025	46898.207112
534.387040	47385.364055
534.747999	47318.493149
535.108902	47468.583422
535.469748	46997.729571
535.830537	47099.765045
536.191270	47294.335940
536.551947	46931.128367
536.912567	47254.591483
537.273131	47356.402626
537.633638	46841.022783
537.994089	47177.973506
538.354483	46766.317924
538.714821	47340.452415
539.075103	47683.565949
539.435328	47422.968542
539.795497	47304.539235
540.155609	47291.764951
540.515665	47755.039428
540.875665	47205.485603
541.235609	47532.754790
541.595496	47484.483222
541.955328	48155.506169
542.315102	47505.429216
542.674821	47302.051426
543.034483	47345.675050
543.394090	47284.621636
543.753640	47255.143489
544.113134	48243.363398
544.472571	47247.944721
544.831953	48492.882869
545.191278	47686.134417
545.550548	47389.770023
545.909761	47849.626598
546.268918	48051.015653
546.628019	48335.145166
546.987064	47897.605779
547.346053	47149.306985
547.704986	48028.927837
548.063863	47548.629384
548.422684	47737.644927
548.781449	47585.941484
549.140158	47968.512129
549.498811	47801.927200
549.857408	47218.345587
550.215949	48040.741781
550.574434	47962.976942
550.932864	47690.086681
551.291237	48399.971883
551.649555	48001.287190
552.007817	48212.723265
552.366022	47834.649329
552.724173	48012.352523
553.082267	48386.315398
553.440305	48661.857305
553.798288	47940.299311
554.156215	48230.057272
554.514086	48428.930792
554.871902	48153.562804
555.229661	48145.754057
555.587365	47930.123742
555.945014	48003.286008
556.302606	47888.319974
556.660143	48098.198332
557.017625	48168.225000
557.375050	47918.115714
557.732421	48227.488805
558.089735	48182.249490
558.446994	48073.773942
558.804197	48507.287967
559.161345	48431.814332
559.518437	47636.889905
559.875474	47895.155778
560.232455	48015.384777
560.589381	48158.092281
560.946251	47827.322012
561.303065	48480.342999
561.659825	48238.649919
562.016528	47857.395016
562.373177	47540.641675
562.729770	47953.121486
563.086307	47444.199361
563.442789	47841.064198
563.799216	47851.716156
564.155587	47578.165504
564.511904	47560.632371
564.868164	47591.504397
565.224370	47777.094476
565.580520	47462.811301
565.936615	47598.982949
566.292654	47268.658823
566.648638	47452.113973
567.004567	47342.088269
567.360441	47326.909355
567.716260	47123.869322
568.072023	47313.472160
568.427732	47222.345742
568.783385	46711.724748
569.138982	47032.833646
569.494525	46911.016683
569.850013	46635.212636
570.205445	46521.910183
570.560823	46398.681697
570.916145	46196.990173
571.271412	46153.301013
571.626625	45829.066601
571.981782	45791.197453
572.336884	45418.983859
572.691931	45647.902655
573.046923	45153.725905
573.401860	44913.240182
573.756743	44834.588099
574.111570	44859.483838
574.466342	44606.216268
574.821059	44625.002128
575.175722	44073.391513
575.530330	43998.459802
575.884882	43634.818690
576.239380	43509.654402
576.593823	43383.655802
576.948211	43202.801888
577.302544	42661.810463
577.656823	42572.425764
578.011047	42670.919827
578.365216	42305.496668
578.719330	42028.240768
579.073389	41752.837492
579.427394	41722.262894
579.781344	41604.708227
580.135239	41162.888901
580.489080	41137.841928
580.842866	40532.376666
581.196597	40829.787099
581.550273	40641.963789
581.903895	40409.117934
582.257463	40664.359115
582.610975	39973.416048
582.964434	40094.771745
583.317837	39646.693827
583.671186	39381.297241
584.024481	39463.226073
584.377721	38925.440822
584.730906	39062.721524
585.084037	38956.799320
585.437113	38577.820497
585.790135	38481.879778
586.143103	38009.659773
586.496016	37981.204981
586.848874	37874.730770
587.201679	37753.178469
587.554428	37163.834817
587.907124	37183.901129
588.259765	36844.170210
588.612352	36913.690242
588.964884	36263.638495
589.317362	36366.127673
589.669786	36180.625814
590.022155	35854.357296
590.374470	36082.708963
590.726731	35551.446965
591.078937	35023.459196
591.431090	34972.737627
591.783188	34569.722582
592.135232	34153.015764
592.487222	34218.354159
592.839157	34154.409643
593.191038	33733.932042
593.542866	33413.569236
593.894639	32790.651499
594.246358	32891.789648
594.598022	32734.130082
594.949633	32265.015429
595.301190	32113.614455
595.652692	31827.344972
596.004141	31954.480352
596.355535	31052.411241
596.706876	30889.196324
597.058162	30635.646450
597.409395	30852.864728
597.760573	30779.863779
598.111698	30308.258796
598.462768	30184.939570
598.813785	30064.105633
599.164748	29518.062972
599.515657	29651.467026
599.866511	29118.821231
600.217312	29435.635065
600.568060	28532.071253
600.918753	28919.332691
601.269392	28749.312216
601.619978	28349.125259
601.970510	28353.765641
602.320988	28346.924795
602.671412	28395.508915
603.021783	28079.577283
603.372100	27689.810391
603.722363	27613.767106
604.072572	27519.104319
604.422728	27381.490902
604.772830	27110.697761
605.122878	27017.113781
605.472872	26825.280233
605.822813	26859.015635
606.172701	26593.732475
606.522534	26607.875432
606.872314	26632.027600
607.222041	26308.287221
607.571714	26403.096201
607.921333	25880.704113
608.270899	25935.181343
608.620411	26000.461764
608.969870	25719.992129
609.319276	25553.364350
609.668627	25430.912203
610.017926	25566.824231
610.367171	25527.636822
610.716362	25415.632465
611.065500	25213.729213
611.414585	25174.035167
611.763616	25188.349524
612.112594	24997.088147
612.461518	24962.974659
612.810389	24962.309226
613.159207	24731.563012
613.507971	24610.179589
613.856682	24726.859615
614.205340	24500.229503
614.553945	24735.172478
614.902496	24264.111939
615.250994	24355.621484
615.599439	24229.877463
615.947830	24179.032386
616.296169	24054.488159
616.644454	23943.030768
616.992686	23875.464183
617.340864	23985.850329
617.688990	23673.008924
618.037063	23822.716070
618.385082	23637.204129
618.733048	23643.548421
619.080961	23471.939983
619.428821	23329.419002
619.776628	23225.117529
620.124382	22980.016629
620.472083	22900.434453
620.819731	22817.827586
621.167326	22502.959637
621.514868	22356.869519
621.862357	21992.220177
622.209793	21871.683668
622.557176	21568.763253
622.904506	21300.989764
623.251783	21004.542192
623.599007	20753.079355
623.946179	20519.769714
624.293297	20348.451142
624.640363	19945.249575
624.987376	19802.884870
625.334336	19547.373987
625.681243	19259.488814
626.028097	19099.732128
626.374899	18911.621473
626.721647	18756.064068
627.068343	18565.548782
627.414987	18337.494543
627.761577	18114.214278
628.108115	18114.244525
628.454600	17755.568949
628.801032	17698.419909
629.147412	17554.600831
629.493739	17419.563442
629.840014	17148.193090
630.186236	17158.406468
630.532405	16887.847741
630.878521	16845.466760
631.224585	16673.737334
631.570597	16460.337730
631.916556	16403.591982
632.262462	16265.212308
632.608316	16144.832075
632.954117	15997.060733
633.299866	15886.871192
633.645562	15744.922382
633.991206	15460.722293
634.336797	15196.729668
634.682336	15096.579586
635.027823	14896.629780
