Dividing Wavelength (nm)	Counts (n)	Blue Motor Position (mm): 0.000000	Red Motor Position (mm): 25.400000	
326.493990	1986.983391
326.888308	1986.983391
327.282561	1986.983391
327.676750	1958.412652
328.070874	1964.998919
328.464933	1969.712398
328.858929	1981.039871
329.252859	1993.544453
329.646726	2005.754128
330.040528	2022.740296
330.434265	2039.212266
330.827938	2059.633980
331.221547	2079.453276
331.615091	2102.768613
332.008571	2122.769391
332.401986	2142.187915
332.795338	2161.734989
333.188625	2181.413133
333.581847	2201.862574
333.975006	2216.749101
334.368100	2236.270970
334.761129	2253.743609
335.154095	2266.684251
335.546996	2288.167128
335.939833	2311.159831
336.332606	2324.886893
336.725315	2335.705209
337.117960	2343.123267
337.510540	2349.326406
337.903056	2360.069105
338.295508	2365.342152
338.687896	2377.876981
339.080220	2379.096940
339.472480	2387.924001
339.864676	2391.110010
340.256807	2393.441544
340.648875	2392.299722
341.040879	2398.412121
341.432818	2398.520506
341.824694	2398.202913
342.216506	2394.364075
342.608253	2398.470095
342.999937	2398.046638
343.391557	2393.774260
343.783113	2394.283416
344.174605	2393.028169
344.566033	2391.374671
344.957397	2392.256873
345.348697	2387.712272
345.739934	2390.336193
346.131106	2382.857641
346.522215	2383.210522
346.913260	2384.443084
347.304241	2380.440408
347.695159	2379.996786
348.086012	2376.790613
348.476802	2377.519059
348.867528	2374.920344
349.258191	2374.897659
349.648789	2375.121991
350.039324	2371.270549
350.429796	2374.887577
350.820203	2369.841382
351.210548	2368.918851
351.600828	2370.607637
351.991045	2372.119983
352.381198	2371.331043
352.771288	2367.726618
353.161314	2369.276773
353.551276	2368.812987
353.941175	2369.944726
354.331010	2371.262987
354.720782	2369.944726
355.110490	2368.727287
355.500135	2371.530168
355.889717	2371.210055
356.279235	2370.731146
356.668689	2373.486136
357.058080	2373.665097
357.447408	2371.893132
357.836672	2371.094109
358.225873	2371.613348
358.615010	2370.627802
359.004084	2374.479243
359.393095	2377.980325
359.782043	2379.210366
360.170927	2379.258257
360.559748	2377.851775
360.948505	2380.117774
361.337199	2381.483927
361.725830	2381.985522
362.114398	2384.039792
362.502903	2383.084493
362.891344	2381.420912
363.279722	2386.474669
363.668037	2386.146994
364.056289	2388.690256
364.444478	2388.443240
364.832603	2387.336706
365.220665	2389.300236
365.608665	2389.764022
365.996601	2389.781666
366.384474	2390.794938
366.772284	2391.568755
367.160031	2393.751575
367.547715	2393.275186
367.935336	2396.453633
368.322893	2396.511606
368.710388	2395.616802
369.097820	2396.990516
369.485189	2396.887172
369.872495	2399.314488
370.259738	2401.096536
370.646918	2405.028636
371.034035	2406.336815
371.421090	2410.069790
371.808081	2412.655902
372.195010	2419.156469
372.581875	2420.772159
372.968678	2427.655855
373.355418	2433.269180
373.742096	2445.045315
374.128710	2456.004783
374.515262	2466.928964
374.901751	2483.814309
375.288177	2499.237719
375.674540	2519.722447
376.060841	2536.088553
376.447079	2561.904302
376.833254	2590.883375
377.219367	2616.018568
377.605417	2648.463434
377.991404	2675.090809
378.377329	2715.520863
378.763191	2752.613673
379.148991	2796.852318
379.534727	2845.706140
379.920402	2891.862945
380.306013	2940.474792
380.691563	3006.715553
381.077049	3060.297977
381.462474	3117.719240
381.847835	3188.426464
382.233134	3261.404728
382.618371	3321.845642
383.003545	3410.607758
383.388657	3490.033658
383.773706	3581.961618
384.158693	3651.229593
384.543618	3749.300200
384.928480	3825.318279
385.313280	3934.716359
385.698017	4036.444323
386.082692	4153.948578
386.467305	4220.181778
386.851856	4346.361858
387.236344	4503.650900
387.620770	4564.752205
388.005133	4687.963046
388.389435	4837.292105
388.773674	4917.690947
389.157851	5052.758582
389.541965	5187.589283
389.926018	5210.156008
390.310008	5387.055138
390.693936	5508.735989
391.077802	5628.513804
391.461606	5761.179329
391.845348	5877.544284
392.229027	6000.044322
392.612645	6221.194700
392.996200	6336.947154
393.379694	6517.869125
393.763125	6734.999183
394.146494	6832.280849
394.529801	6965.994934
394.913047	7210.644651
395.296230	7206.422684
395.679351	7266.160358
396.062410	7524.272476
396.445408	7423.393946
396.828343	7576.992863
397.211217	7708.667801
397.594028	7592.832168
397.976778	7793.676778
398.359466	7963.508210
398.742092	7933.049559
399.124656	8081.418278
399.507158	8265.715301
399.889598	8287.772870
400.271977	8500.118873
400.654294	8526.579889
401.036549	8726.635559
401.418742	8754.344261
401.800874	9057.373060
402.182944	9140.156368
402.564952	9500.805555
402.946898	9327.004214
403.328783	9381.509170
403.710606	9579.026619
404.092367	9833.299898
404.474067	10195.811792
404.855705	9988.985852
405.237282	9943.373492
405.618797	10373.928360
406.000250	10617.804260
406.381642	10976.936060
406.762972	10930.849831
407.144240	10727.968595
407.525447	10982.151133
407.906593	10913.170505
408.287677	11175.428972
408.668700	11330.424288
409.049661	11302.846656
409.430560	11468.609877
409.811399	11439.245155
410.192176	11594.174937
410.572891	11670.830722
410.953545	12155.157057
411.334138	11632.855710
411.714669	12228.591545
412.095139	11540.000177
412.475547	12048.077908
412.855894	11886.576983
413.236180	12215.797097
413.616405	11903.858058
413.996568	12173.859738
414.376670	12148.858135
414.756711	12026.040504
415.136691	12301.731126
415.516609	12485.178714
415.896466	12546.597612
416.276262	12839.193743
416.655997	13286.150005
417.035670	13317.437926
417.415283	13963.628150
417.794834	14057.421338
418.174324	13798.376606
418.553753	13700.026215
418.933121	14190.752295
419.312428	13999.584179
419.691674	13916.871448
420.070859	14361.221433
420.449983	14017.628990
420.829045	14564.914295
421.208047	14311.984483
421.586988	14769.441468
421.965867	15015.462379
422.344686	15015.316186
422.723444	15576.709160
423.102141	14273.331436
423.480777	15460.056860
423.859352	14964.972703
424.237866	16063.150259
424.616319	15763.189003
424.994712	16419.837100
425.373044	16212.247426
425.751314	16879.935650
426.129524	16016.229720
426.507673	17094.661077
426.885762	16802.110317
427.263789	16984.269890
427.641756	17145.458264
428.019662	17222.391313
428.397508	17258.019667
428.775292	17555.684679
429.153016	17514.977361
429.530679	17591.282787
429.908282	17615.853370
430.285824	17333.947006
430.663305	18034.329633
431.040726	17634.528325
431.418086	17458.113146
431.795385	18108.646323
432.172624	18525.219551
432.549802	18078.043999
432.926920	18277.179658
433.303977	18149.477149
433.680974	18405.146828
434.057910	18690.521506
434.434786	18719.213233
434.811601	18620.948542
435.188355	19663.262552
435.565050	19307.813315
435.941683	19268.467109
436.318257	20148.261882
436.694770	19942.174471
437.071222	20526.708863
437.447614	19607.424212
437.823946	19641.179778
438.200218	19780.214801
438.576429	19552.949503
438.952580	19822.225257
439.328670	19782.826119
439.704700	20198.610406
440.080670	19776.018040
440.456580	20360.726352
440.832429	20524.468070
441.208218	19518.977168
441.583947	19953.244845
441.959616	20063.089067
442.335224	20287.223808
442.710773	20409.262581
443.086261	20926.666447
443.461689	20296.260076
443.837057	20400.697660
444.212365	21027.623114
444.587612	21017.099706
444.962800	20601.393557
445.337927	20991.898978
445.712995	19734.642770
446.088002	21544.417001
446.462949	21708.640149
446.837837	21870.506558
447.212664	21816.387251
447.587431	24575.231790
447.962139	27439.010467
448.336786	29732.185981
448.711374	28142.168249
449.085901	24518.097873
449.460369	24424.075313
449.834776	24302.606190
450.209124	26681.549375
450.583412	26170.368813
450.957640	26625.766487
451.331808	25273.091320
451.705917	23889.970104
452.079965	23871.839594
452.453954	24153.385516
452.827883	23963.180260
453.201752	23726.016657
453.575562	23802.269150
453.949311	24782.173676
454.323001	24746.126905
454.696632	24430.303658
455.070202	25801.898276
455.443713	25830.080847
455.817164	26257.157318
456.190556	26617.478830
456.563888	26005.293710
456.937160	26282.249661
457.310373	24653.422607
457.683526	24924.767754
458.056619	24791.409070
458.429653	24595.829945
458.802628	24961.648835
459.175542	24929.750934
459.548398	25916.738281
459.921194	27131.159804
460.293930	27530.285598
460.666607	29105.908315
461.039224	30429.586766
461.411782	30547.640507
461.784280	29332.931638
462.156719	28713.835096
462.529099	28040.311736
462.901419	26755.397238
463.273680	25684.835122
463.645882	25555.186727
464.018024	25331.964435
464.390106	25785.423785
464.762130	27697.982102
465.134094	30674.228921
465.505999	34591.255871
465.877845	38013.491050
466.249631	38644.088985
466.621358	36892.325832
466.993026	34864.468765
467.364634	32914.507608
467.736184	31090.121593
468.107674	29858.734066
468.479105	28970.886051
468.850477	28159.426640
469.221790	26852.578081
469.593043	25346.888771
469.964238	24453.281237
470.335373	24120.247491
470.706449	24977.833460
471.077467	26383.844035
471.448425	29139.273192
471.819324	30747.229870
472.190164	29178.649645
472.560945	26518.538624
472.931667	24241.056222
473.302330	23233.541297
473.672934	22451.313016
474.043479	22450.972738
474.413965	21707.382381
474.784393	21200.461595
475.154761	21429.158580
475.525070	21162.342910
475.895321	20619.511464
476.265513	20662.283133
476.635645	20901.564021
477.005719	20512.883498
477.375734	20470.991510
477.745691	20532.400325
478.115588	20909.229096
478.485427	21598.339703
478.855207	22983.757165
479.224928	23994.478264
479.594591	24468.447549
479.964194	23567.689138
480.333739	23246.696188
480.703226	22872.546790
481.072653	22817.522596
481.442022	22695.340150
481.811333	22451.229837
482.180584	21488.392138
482.549777	20902.181563
482.918912	20325.297122
483.287988	19860.762357
483.657005	19167.943981
484.025964	18581.292305
484.394864	18252.722500
484.763706	17752.539216
485.132489	17106.023838
485.501213	16739.600009
485.869879	16483.222048
486.238487	16054.567695
486.607036	15829.540670
486.975527	15370.962028
487.343959	15155.480427
487.712333	14901.602878
488.080648	14598.798411
488.448905	14460.320435
488.817104	14134.278769
489.185244	14129.207368
489.553326	14345.067055
489.921350	14846.356873
490.289315	15425.940852
490.657222	15324.724565
491.025070	15113.527945
491.392861	14545.747828
491.760593	13893.959403
492.128267	13168.353363
492.495883	12497.980724
492.863440	11916.440778
493.230939	11377.254087
493.598380	10913.825855
493.965763	10614.512386
494.333088	10238.036496
494.700354	9944.931209
495.067563	9685.276498
495.434713	9464.703332
495.801805	9282.652143
496.168839	9029.684522
496.535815	8790.869941
496.902733	8606.706509
497.269593	8363.039817
497.636395	8175.019902
498.003139	8069.863953
498.369825	7824.241294
498.736453	7694.318157
499.103023	7469.149979
499.469535	7291.552649
499.835989	7153.573748
500.202385	6968.124822
500.568723	6817.812737
500.935003	6697.213214
501.301226	6538.535335
501.667390	6465.201670
502.033497	6358.598910
502.399546	6176.444377
502.765537	5975.198995
503.131470	5887.719853
503.497345	5799.696265
503.863163	5571.465587
504.228923	5502.616028
504.594625	5425.201549
504.960269	5270.191109
505.325856	5215.595413
505.691385	5073.051747
506.056856	4985.459178
506.422270	4920.761010
506.787625	4806.959482
507.152924	4725.149117
507.518164	4652.853930
507.883347	4526.734343
508.248472	4465.882575
508.613540	4409.575407
508.978550	4355.803940
509.343503	4274.966517
509.708398	4219.125656
510.073236	4175.905323
510.438016	4114.297382
510.802738	4034.649672
511.167403	3999.787573
511.532010	3954.490285
511.896561	3915.048297
512.261053	3894.160276
512.625488	3825.512364
512.989866	3774.478243
513.354186	3726.095769
513.718449	3686.525232
514.082655	3667.013446
514.446803	3620.680201
514.810894	3600.472735
515.174927	3563.500913
515.538904	3525.903988
515.902822	3515.743542
516.266684	3473.511276
516.630488	3455.310190
516.994235	3425.171652
517.357925	3412.656987
517.721558	3394.965058
518.085133	3379.332440
518.448651	3360.143288
518.812112	3335.565142
519.175516	3315.667708
519.538863	3304.262097
519.902152	3287.351547
520.265385	3277.440638
520.628560	3261.646703
520.991678	3243.390164
521.354739	3233.882548
521.717743	3227.021538
522.080690	3212.992007
522.443580	3207.585369
522.806413	3199.973227
523.169189	3184.711134
523.531908	3177.759382
523.894569	3166.583144
524.257174	3158.676095
524.619722	3151.258037
524.982213	3145.647232
525.344647	3134.037455
525.707025	3125.417082
526.069345	3121.164869
526.431608	3113.567850
526.793815	3109.393775
527.155964	3095.031527
527.518057	3090.091197
527.880093	3081.879157
528.242072	3077.387489
528.603995	3069.188052
528.965860	3066.314594
529.327669	3062.226219
529.689421	3052.426216
530.051117	3045.507232
530.412755	3043.372303
530.774337	3038.184956
531.135862	3028.654655
531.497331	3024.962009
531.858743	3019.769621
532.220098	3018.176616
532.581396	3009.649505
532.942638	3002.551560
533.303824	3002.029801
533.664953	2997.439830
534.026025	2988.988336
534.387040	2990.672081
534.747999	2986.220742
535.108902	2987.458345
535.469748	2977.199597
535.830537	2974.694144
536.191270	2974.910913
536.551947	2969.504276
536.912567	2965.042855
537.273131	2965.420941
537.633638	2956.530867
537.994089	2955.031123
538.354483	2949.473251
538.714821	2952.003910
539.075103	2953.455763
539.435328	2951.958540
539.795497	2943.852365
540.155609	2943.955708
540.515665	2943.870009
540.875665	2937.729883
541.235609	2939.108639
541.595496	2934.475818
541.955328	2938.849019
542.315102	2929.207813
542.674821	2927.390477
543.034483	2926.921649
543.394090	2921.371339
543.753640	2922.339241
544.113134	2925.583223
544.472571	2917.978643
544.831953	2926.110024
545.191278	2916.914959
545.550548	2910.941192
545.909761	2915.667273
546.268918	2914.822880
546.628019	2917.320772
546.987064	2909.237282
547.346053	2904.652352
547.704986	2907.379617
548.063863	2902.835016
548.422684	2902.956004
548.781449	2898.131620
549.140158	2899.452402
549.498811	2900.117834
549.857408	2890.713562
550.215949	2895.633728
550.574434	2893.881927
550.932864	2889.599467
551.291237	2894.567524
551.649555	2890.713562
552.007817	2892.465363
552.366022	2886.393293
552.724173	2889.649878
553.082267	2891.346227
553.440305	2893.466032
553.798288	2885.372459
554.156215	2884.245762
554.514086	2886.592419
554.871902	2880.008672
555.229661	2881.238713
555.587365	2880.989176
555.945014	2877.762838
556.302606	2879.091182
556.660143	2876.338712
557.017625	2876.658825
557.375050	2873.568598
557.732421	2877.170502
558.089735	2874.992724
558.446994	2872.867877
558.804197	2874.970038
559.161345	2876.550440
559.518437	2864.517206
559.875474	2869.230685
560.232455	2867.657845
560.589381	2867.045345
560.946251	2866.470653
561.303065	2866.889069
561.659825	2863.579551
562.016528	2857.787266
562.373177	2857.469673
562.729770	2856.504292
563.086307	2851.763087
563.442789	2856.350537
563.799216	2857.162163
564.155587	2850.545648
564.511904	2851.183354
564.868164	2851.634537
565.224370	2853.522449
565.580520	2846.331243
565.936615	2847.513394
566.292654	2843.326716
566.648638	2845.239834
567.004567	2842.701613
567.360441	2842.079030
567.716260	2838.157013
568.072023	2836.248936
568.427732	2832.727690
568.783385	2829.889520
569.138982	2828.765343
569.494525	2827.409272
569.850013	2823.905671
570.205445	2824.450115
570.560823	2821.506081
570.916145	2819.986173
571.271412	2814.219093
571.626625	2814.075421
571.981782	2809.412353
572.336884	2806.606951
572.691931	2806.433031
573.046923	2799.642597
573.401860	2796.622946
573.756743	2792.499282
574.111570	2792.529529
574.466342	2785.784465
574.821059	2787.871503
575.175722	2782.225411
575.530330	2781.164248
575.884882	2776.430604
576.239380	2772.044800
576.593823	2774.968670
576.948211	2766.038266
577.302544	2760.687081
577.656823	2759.421751
578.011047	2758.665578
578.365216	2753.453025
578.719330	2749.659557
579.073389	2745.142683
579.427394	2743.592528
579.781344	2742.299472
580.135239	2735.587176
580.489080	2735.027608
580.842866	2726.669375
581.196597	2731.864284
581.550273	2726.361864
581.903895	2722.404558
582.257463	2723.357337
582.610975	2716.672767
582.964434	2716.551779
583.317837	2713.201932
583.671186	2709.405943
584.024481	2707.797815
584.377721	2702.754141
584.730906	2701.577031
585.084037	2701.695498
585.437113	2696.462781
585.790135	2694.907585
586.143103	2689.566482
586.496016	2688.399455
586.848874	2683.963240
587.201679	2685.392407
587.554428	2677.462672
587.907124	2679.038032
588.259765	2674.669873
588.612352	2676.532579
588.964884	2669.202741
589.317362	2670.344563
589.669786	2668.040755
590.022155	2667.287103
590.374470	2668.348266
590.726731	2664.058244
591.078937	2658.823006
591.431090	2658.807882
591.783188	2655.238745
592.135232	2651.276398
592.487222	2650.558034
592.839157	2651.785555
593.191038	2646.257930
593.542866	2645.496715
593.894639	2642.482105
594.246358	2641.894811
594.598022	2639.729635
594.949633	2636.468009
595.301190	2635.789974
595.652692	2633.897020
596.004141	2632.530868
596.355535	2629.861577
596.706876	2628.160187
597.058162	2625.311935
597.409395	2627.829992
597.760573	2623.744137
598.111698	2619.958230
598.462768	2621.974692
598.813785	2621.999897
599.164748	2619.653240
599.515657	2619.870010
599.866511	2616.883126
600.217312	2619.819598
600.568060	2613.863475
600.918753	2617.752725
601.269392	2612.588063
601.619978	2610.216200
601.970510	2614.455811
602.320988	2614.014710
602.671412	2615.572426
603.021783	2612.371293
603.372100	2611.610079
603.722363	2611.226952
604.072572	2611.892384
604.422728	2608.655963
604.772830	2607.254522
605.122878	2603.433328
605.472872	2604.265118
605.822813	2602.949377
606.172701	2605.573297
606.522534	2606.165633
606.872314	2608.325767
607.222041	2607.181426
607.571714	2606.180757
607.921333	2603.529110
608.270899	2605.538009
608.620411	2604.595314
608.969870	2606.117742
609.319276	2604.383585
609.668627	2604.063472
610.017926	2606.251333
610.367171	2606.919286
610.716362	2605.628750
611.065500	2605.459872
611.414585	2605.626230
611.763616	2605.354007
612.112594	2602.193204
612.461518	2604.799480
612.810389	2605.112032
613.159207	2605.853082
613.507971	2602.636825
613.856682	2606.813421
614.205340	2607.441045
614.553945	2608.668566
614.902496	2606.513473
615.250994	2607.960284
615.599439	2607.080602
615.947830	2606.115222
616.296169	2610.932044
616.644454	2607.897269
616.992686	2609.679317
617.340864	2609.001282
617.688990	2606.410129
618.037063	2608.363576
618.385082	2609.883484
618.733048	2610.652260
619.080961	2609.147476
619.428821	2609.712085
619.776628	2610.213680
620.124382	2604.481888
620.472083	2607.284769
620.819731	2606.750407
621.167326	2605.298555
621.514868	2606.702516
621.862357	2602.949377
622.209793	2603.466095
622.557176	2600.627926
622.904506	2598.069540
623.251783	2593.224991
623.599007	2594.449992
623.946179	2587.853642
624.293297	2592.519230
624.640363	2590.467480
624.987376	2589.277768
625.334336	2590.341451
625.681243	2588.335072
626.028097	2585.728795
626.374899	2588.796337
626.721647	2585.060842
627.068343	2587.503282
627.414987	2586.837849
627.761577	2583.639237
628.108115	2584.556727
628.454600	2581.327868
628.801032	2582.053794
629.147412	2581.940368
629.493739	2581.837025
629.840014	2580.019689
630.186236	2578.998855
630.532405	2577.945254
630.878521	2576.248906
631.224585	2576.304358
631.570597	2576.324523
631.916556	2576.569019
632.262462	2574.068607
632.608316	2577.050449
632.954117	2574.739080
633.299866	2575.636405
633.645562	2574.320664
633.991206	2575.396951
634.336797	2570.335632
634.682336	2571.331260
635.027823	2566.771536
635.373257	2566.496793
635.718639	2564.664334
636.063968	2563.305743
636.409245	2561.296843
636.754470	2559.751730
637.099642	2559.313149
637.444762	2558.826678
637.789829	2559.204764
638.134845	2557.775597
638.479808	2558.708211
638.824719	2555.585216
639.169577	2555.307952
639.514383	2554.007335
639.859137	2552.212684
640.203839	2553.919115
640.548489	2553.359547
640.893086	2550.496171
