Dividing Wavelength (nm)	Counts (n)	Blue Motor Position (mm): 0.000000	Red Motor Position (mm): 30.800000	
326.493990	1987.742085
326.888308	1987.742085
327.282561	1987.742085
327.676750	1965.669393
328.070874	1966.551595
328.464933	1971.209621
328.858929	1982.088431
329.252859	1994.656027
329.646726	2009.013234
330.040528	2024.048475
330.434265	2043.862730
330.827938	2059.621377
331.221547	2082.808164
331.615091	2100.341297
332.008571	2124.808538
332.401986	2144.844603
332.795338	2164.941163
333.188625	2182.955727
333.581847	2204.899869
333.975006	2222.435523
334.368100	2239.701475
334.761129	2256.158322
335.154095	2269.877822
335.546996	2292.147119
335.939833	2323.006542
336.332606	2339.995231
336.725315	2348.219873
337.117960	2354.909484
337.510540	2365.309385
337.903056	2375.739532
338.295508	2381.128525
338.687896	2389.116234
339.080220	2393.106307
339.472480	2399.322050
339.864676	2405.628533
340.256807	2404.753893
340.648875	2409.968967
341.040879	2412.176992
341.432818	2411.141035
341.824694	2410.505849
342.216506	2410.846127
342.608253	2411.698082
342.999937	2411.756056
343.391557	2409.585839
343.783113	2409.837897
344.174605	2407.738256
344.566033	2405.258008
344.957397	2406.414953
345.348697	2404.443862
345.739934	2401.497307
346.131106	2398.759961
346.522215	2397.542522
346.913260	2397.577810
347.304241	2395.009342
347.695159	2390.605895
348.086012	2392.733262
348.476802	2389.912736
348.867528	2390.159753
349.258191	2388.080277
349.648789	2388.579351
350.039324	2387.319062
350.429796	2386.434340
350.820203	2386.169679
351.210548	2384.725389
351.600828	2384.793444
351.991045	2384.606922
352.381198	2383.049205
352.771288	2385.423588
353.161314	2383.883516
353.551276	2385.852087
353.941175	2384.427961
354.331010	2384.344782
354.720782	2383.283619
355.110490	2383.044164
355.500135	2383.913763
355.889717	2388.115565
356.279235	2385.776469
356.668689	2386.215050
357.058080	2387.475338
357.447408	2386.504916
357.836672	2384.843856
358.225873	2386.474669
358.615010	2385.642879
359.004084	2391.268806
359.393095	2391.578837
359.782043	2394.666544
360.170927	2393.149157
360.559748	2393.499517
360.948505	2396.768705
361.337199	2396.499003
361.725830	2395.493293
362.114398	2399.130486
362.502903	2396.511606
362.891344	2398.059241
363.279722	2398.467574
363.668037	2402.303892
364.056289	2399.521175
364.444478	2402.878584
364.832603	2403.370096
365.220665	2407.113153
365.608665	2404.847154
365.996601	2406.049469
366.384474	2407.529048
366.772284	2407.581980
367.160031	2407.397978
367.547715	2406.422515
367.935336	2411.604821
368.322893	2411.047773
368.710388	2410.710016
369.097820	2415.065573
369.485189	2418.029772
369.872495	2417.780234
370.259738	2415.894843
370.646918	2421.959351
371.034035	2419.453897
371.421090	2428.243149
371.808081	2429.526123
372.195010	2433.354879
372.581875	2440.236054
372.968678	2445.877105
373.355418	2453.269958
373.742096	2465.572893
374.128710	2476.136631
374.515262	2488.316059
374.901751	2499.346104
375.288177	2517.176665
375.674540	2536.806918
376.060841	2560.696946
376.447079	2584.604618
376.833254	2608.897938
377.219367	2635.376599
377.605417	2673.437311
377.991404	2697.133254
378.377329	2738.352249
378.763191	2772.833741
379.148991	2820.427274
379.534727	2870.896786
379.920402	2916.163827
380.306013	2968.372537
380.691563	3032.175901
381.077049	3089.783686
381.462474	3144.215545
381.847835	3221.975343
382.233134	3296.183648
382.618371	3351.830425
383.003545	3439.629681
383.388657	3524.439532
383.773706	3616.125518
384.158693	3688.355170
384.543618	3783.280097
384.928480	3866.517109
385.313280	3969.356647
385.698017	4077.229778
386.082692	4197.640258
386.467305	4261.488992
386.851856	4393.748705
387.236344	4550.296696
387.620770	4614.508393
388.005133	4734.210591
388.389435	4881.772726
388.773674	4970.912929
389.157851	5101.055357
389.541965	5237.327828
389.926018	5263.138535
390.310008	5442.550680
390.693936	5569.043312
391.077802	5687.213000
391.461606	5822.358773
391.845348	5934.645433
392.229027	6058.400719
392.612645	6281.287775
392.996200	6404.561630
393.379694	6574.710655
393.763125	6805.101468
394.146494	6898.698051
394.529801	7040.288939
394.913047	7288.230529
395.296230	7284.956300
395.679351	7336.988569
396.062410	7608.671473
396.445408	7501.869588
396.828343	7656.413721
397.211217	7801.099877
397.594028	7677.677308
397.976778	7885.269502
398.359466	8051.655306
398.742092	8028.266872
399.124656	8172.166609
399.507158	8366.044345
399.889598	8381.485399
400.271977	8601.738452
400.654294	8629.283316
401.036549	8829.422165
401.418742	8855.240435
401.800874	9160.512547
402.182944	9239.383919
402.564952	9615.151527
402.946898	9433.145709
403.328783	9490.198967
403.710606	9687.282877
404.092367	9943.744017
404.474067	10309.426797
404.855705	10097.766391
405.237282	10061.404548
405.618797	10482.668569
406.000250	10735.164842
406.381642	11099.942734
406.762972	11050.471371
407.144240	10858.053049
407.525447	11104.073960
407.906593	11039.892509
408.287677	11315.499952
408.668700	11464.239196
409.049661	11437.833632
409.430560	11606.545928
409.811399	11570.993191
410.192176	11741.243038
410.572891	11813.434882
410.953545	12300.170889
411.334138	11773.839139
411.714669	12379.397663
412.095139	11677.563183
412.475547	12185.285513
412.855894	12029.962522
413.236180	12359.661545
413.616405	12050.202755
413.996568	12323.400526
414.376670	12299.260960
414.756711	12171.618945
415.136691	12457.762399
415.516609	12643.995225
415.896466	12705.278012
416.276262	13004.737674
416.655997	13445.914252
417.035670	13475.740239
417.415283	14130.623933
417.794834	14229.070105
418.174324	13969.785919
418.553753	13877.336199
418.933121	14373.272311
419.312428	14184.148383
419.691674	14083.466459
420.070859	14542.400502
420.449983	14197.083984
420.829045	14757.884623
421.208047	14486.574764
421.586988	14951.341423
421.965867	15211.031422
422.344686	15205.912130
422.723444	15770.828871
423.102141	14450.366677
423.480777	15647.176929
423.859352	15154.252906
424.237866	16267.503513
424.616319	15967.244828
424.994712	16634.307949
425.373044	16429.632062
425.751314	17104.534177
426.129524	16226.166051
426.507673	17324.058783
426.885762	17013.173346
427.263789	17214.653142
427.641756	17383.680509
428.019662	17453.737424
428.397508	17492.246799
428.775292	17799.734498
429.153016	17756.373013
429.530679	17834.684818
429.908282	17859.971245
430.285824	17572.819561
430.663305	18284.411193
431.040726	17879.840953
431.418086	17711.806693
431.795385	18365.112505
432.172624	18786.437020
432.549802	18341.827415
432.926920	18523.336680
433.303977	18400.032578
433.680974	18662.195263
434.057910	18953.301733
434.434786	18975.467686
434.811601	18885.357061
435.188355	19939.835376
435.565050	19573.270394
435.941683	19530.292037
436.318257	20415.077552
436.694770	20227.501258
437.071222	20831.396201
437.447614	19888.324866
437.823946	19916.618342
438.200218	20072.851261
438.576429	19846.362301
438.952580	20128.293871
439.328670	20088.007490
439.704700	20509.775627
440.080670	20070.484439
440.456580	20666.865542
440.832429	20843.328612
441.208218	19827.591565
441.583947	20268.987434
441.959616	20377.243692
442.335224	20623.466249
442.710773	20743.826317
443.086261	21297.266872
443.461689	20643.101543
443.837057	20784.856269
444.212365	21422.670615
444.587612	21422.748753
444.962800	20995.185810
445.337927	21422.300090
445.712995	20144.206273
446.088002	22014.542406
446.462949	22183.272346
446.837837	22372.590358
447.212664	22335.363957
447.587431	25169.510732
447.962139	28117.184291
448.336786	30512.911998
448.711374	28964.692993
449.085901	25259.759988
449.460369	25204.055238
449.834776	25117.186075
450.209124	27606.981713
450.583412	27134.683571
450.957640	27675.599379
451.331808	26321.162328
451.705917	24944.108140
452.079965	24983.071218
452.453954	25333.844785
452.827883	25210.626382
453.201752	25014.585992
453.575562	25187.008577
453.949311	26307.523486
454.323001	26367.770316
454.696632	26124.287626
455.070202	27678.624071
455.443713	27806.871025
455.817164	28411.176822
456.190556	28949.226733
456.563888	28382.860660
456.937160	28835.722634
457.310373	27156.098393
457.683526	27603.460467
458.056619	27587.338857
458.429653	27511.063679
458.802628	28095.179654
459.175542	28212.250370
459.548398	29516.296047
459.921194	31075.373697
460.293930	31740.498494
460.666607	33776.585245
461.039224	35520.980751
461.411782	35926.733142
461.784280	34748.439048
462.156719	34267.593629
462.529099	33707.566808
462.901419	32414.213418
463.273680	31341.697855
463.645882	31423.782963
464.018024	31395.232388
464.390106	32224.759295
464.762130	34907.205147
465.134094	38968.159560
465.505999	44244.710085
465.877845	48846.847487
466.249631	50032.209279
466.621358	48356.070995
466.993026	46246.643018
467.364634	44158.914688
467.736184	42185.744058
468.107674	40943.606271
468.479105	40125.482454
468.850477	39439.068864
469.221790	38008.797736
469.593043	36258.317557
469.964238	35354.605030
470.335373	35264.655722
470.706449	36987.843095
471.077467	39522.449549
471.448425	44093.293988
471.819324	46905.909995
472.190164	45081.161016
472.560945	41521.244364
472.931667	38413.879653
473.302330	37303.464696
473.672934	36470.877809
474.043479	36964.240412
474.413965	36156.438358
474.784393	35777.852746
475.154761	36655.699112
475.525070	36672.818870
475.895321	36211.187810
476.265513	36778.050436
476.635645	37731.302382
477.005719	37550.735813
477.375734	37999.784153
477.745691	38670.232409
478.115588	39983.397533
478.485427	41929.298041
478.855207	45223.046812
479.224928	47787.456568
479.594591	49422.625394
479.964194	48405.255013
480.333739	48537.875167
480.703226	48537.628151
481.072653	49133.520262
481.442022	49561.436086
481.811333	49807.182253
482.180584	48480.292588
482.549777	47925.309440
482.918912	47336.568206
483.287988	47011.433947
483.657005	46138.575803
484.025964	45450.854034
484.394864	45425.744046
484.763706	44951.643692
485.132489	44028.779822
485.501213	43795.502948
485.869879	43878.203077
486.238487	43415.785596
486.607036	43534.840006
486.975527	42940.871095
487.343959	43051.438723
487.712333	43056.399218
488.080648	42887.036613
488.448905	43231.692740
488.817104	42969.255312
489.185244	43773.629382
489.553326	45279.638805
489.921350	47782.163356
490.289315	50567.194169
490.657222	51057.567368
491.025070	51231.845098
491.392861	50188.177538
491.760593	48813.384308
492.128267	47024.482974
492.495883	45440.174349
492.863440	43957.029079
493.230939	42520.685881
493.598380	41342.908505
493.965763	40883.664431
494.333088	39979.656997
494.700354	39376.659380
495.067563	38932.513561
495.434713	38652.086776
495.801805	38557.144205
496.168839	38033.953094
496.535815	37577.569874
496.902733	37418.723117
497.269593	36875.410240
497.636395	36648.525550
498.003139	36819.027455
498.369825	36145.320093
498.736453	36244.545125
499.103023	35646.991953
499.469535	35338.203636
499.835989	35218.728290
500.202385	34734.018827
500.568723	34561.074483
500.935003	34504.711862
501.301226	34126.736229
501.667390	34437.379691
502.033497	34440.119558
502.399546	33732.240735
502.765537	32945.616568
503.131470	33059.486151
503.497345	33115.125366
503.863163	31811.102375
504.228923	32086.883737
504.594625	32159.299912
504.960269	31367.775744
505.325856	31676.927024
505.691385	30954.222167
506.056856	30812.827884
506.422270	30904.516390
506.787625	30345.293633
507.152924	30237.675080
507.518164	30075.682643
507.883347	29245.026518
508.248472	29164.617593
508.613540	29255.247457
508.978550	29222.986593
509.343503	28755.472506
509.708398	28645.414035
510.073236	28757.221786
510.438016	28479.025711
510.802738	27831.887751
511.167403	27991.664601
511.532010	27867.879069
511.896561	27803.538822
512.261053	28092.205374
512.625488	27493.200350
512.989866	27140.259087
513.354186	26753.569820
513.718449	26483.580743
514.082655	26616.720137
514.446803	26139.073330
514.810894	26166.035942
515.174927	25837.619892
515.538904	25488.570400
515.902822	25607.070283
516.266684	25002.668704
516.630488	24954.434944
516.994235	24600.422436
517.357925	24629.741787
517.721558	24438.969402
518.085133	24317.459950
518.448651	24102.326189
518.812112	23699.593449
519.175516	23458.235606
519.538863	23350.430531
519.902152	23044.245970
520.265385	23002.124609
520.628560	22732.720306
520.991678	22342.030883
521.354739	22189.916586
521.717743	22063.494530
522.080690	21738.196434
522.443580	21716.222045
522.806413	21463.370371
523.169189	21160.374339
523.531908	20971.681430
523.894569	20642.337808
524.257174	20430.017011
524.619722	20291.440733
524.982213	20021.900319
525.344647	19726.491224
525.707025	19482.983329
526.069345	19377.497185
526.431608	19084.326362
526.793815	18967.820256
527.155964	18515.311163
527.518057	18329.259819
527.880093	17979.494482
528.242072	17934.073686
528.603995	17562.535607
528.965860	17323.932754
529.327669	17114.624046
529.689421	16847.432810
530.051117	16595.775890
530.412755	16409.477529
530.774337	16211.771037
531.135862	15924.783189
531.497331	15765.384425
531.858743	15511.136352
532.220098	15391.303083
532.581396	15087.071969
532.942638	14782.198108
533.303824	14655.922246
533.664953	14438.835038
534.026025	14156.908509
534.387040	14090.410648
534.747999	13884.550090
535.108902	13732.090474
535.469748	13411.825970
535.830537	13249.641969
536.191270	13112.830094
536.551947	12832.831807
536.912567	12725.964387
537.273131	12563.437587
537.633638	12265.828028
537.994089	12163.006134
538.354483	11906.182030
538.714821	11855.399967
539.075103	11763.945875
539.435328	11551.214223
539.795497	11365.372087
540.155609	11199.301356
540.515665	11128.326951
540.875665	10874.814886
541.235609	10778.276789
541.595496	10619.402305
541.955328	10593.480692
542.315102	10334.042751
542.674821	10144.681889
543.034483	10009.624336
543.394090	9857.961223
543.753640	9709.655518
544.113134	9739.388243
544.472571	9452.594480
544.831953	9507.759827
545.191278	9253.962936
545.550548	9073.285462
545.909761	9015.607100
546.268918	8914.766379
546.628019	8837.427517
546.987064	8650.798961
547.346053	8426.228160
547.704986	8428.100949
548.063863	8247.045388
548.422684	8161.764188
548.781449	8023.911316
549.140158	7966.124569
549.498811	7828.780853
549.857408	7654.087228
550.215949	7639.740104
550.574434	7522.545880
550.932864	7391.571662
551.291237	7371.649022
551.649555	7230.894966
552.007817	7157.248749
552.366022	7021.891248
552.724173	6943.607170
553.082267	6884.343365
553.440305	6819.065464
553.798288	6665.040570
554.156215	6604.377845
554.514086	6539.185644
554.871902	6429.558192
555.229661	6340.581826
555.587365	6239.960395
555.945014	6167.203943
556.302606	6082.278144
556.660143	6018.830182
557.017625	5944.263955
557.375050	5850.616960
557.732421	5799.827335
558.089735	5721.775150
558.446994	5641.580475
558.804197	5601.742757
559.161345	5527.400861
559.518437	5407.151698
559.875474	5352.445096
560.232455	5298.522394
560.589381	5245.696143
560.946251	5164.024409
561.303065	5136.280419
561.659825	5064.012958
562.016528	4983.770392
562.373177	4908.042179
562.729770	4875.950193
563.086307	4790.061535
563.442789	4763.293008
563.799216	4710.557497
564.155587	4643.341273
564.511904	4594.023665
564.868164	4550.034556
565.224370	4512.256149
565.580520	4450.743990
565.936615	4413.003392
566.292654	4356.620607
566.648638	4323.240606
567.004567	4281.061272
567.360441	4235.527050
567.716260	4192.009289
568.072023	4159.788755
568.427732	4118.610089
568.783385	4068.143098
569.138982	4042.760889
569.494525	4009.295189
569.850013	3965.772387
570.205445	3936.586627
570.560823	3900.590268
570.916145	3870.439127
571.271412	3841.351669
571.626625	3806.255156
571.981782	3777.137451
572.336884	3745.005137
572.691931	3721.301631
573.046923	3686.626055
573.401860	3659.091272
573.756743	3634.210657
574.111570	3617.557206
574.466342	3587.252309
574.821059	3573.850402
575.175722	3539.494938
575.530330	3517.263450
575.884882	3489.821929
576.239380	3471.840133
576.593823	3449.959005
576.948211	3431.742796
577.302544	3405.528796
577.656823	3387.357957
578.011047	3377.510063
578.365216	3357.073225
578.719330	3337.127900
579.073389	3319.778769
579.427394	3309.698982
579.781344	3294.983853
580.135239	3277.410391
580.489080	3268.845471
580.842866	3245.976276
581.196597	3240.355390
581.550273	3229.655541
581.903895	3216.195660
582.257463	3215.290773
582.610975	3194.203626
582.964434	3189.417051
583.317837	3172.788805
583.671186	3160.090138
584.024481	3153.108140
584.377721	3138.047693
584.730906	3132.719193
585.084037	3126.795838
585.437113	3112.287397
585.790135	3106.132148
586.143103	3089.052719
586.496016	3086.164138
586.848874	3077.024526
587.201679	3072.222827
587.554428	3055.448387
587.907124	3051.649878
588.259765	3040.526572
588.612352	3041.557488
588.964884	3026.595343
589.317362	3024.515867
589.669786	3017.899353
590.022155	3006.695388
590.374470	3007.297806
590.726731	2998.387567
591.078937	2987.725527
591.431090	2980.683035
591.783188	2970.744400
592.135232	2962.310549
592.487222	2959.613532
592.839157	2958.272585
593.191038	2948.202880
593.542866	2942.098043
593.894639	2929.646393
594.246358	2927.347627
594.598022	2925.895775
594.949633	2914.167530
595.301190	2906.774678
595.652692	2902.204872
596.004141	2901.146230
596.355535	2889.213819
596.706876	2880.515308
597.058162	2877.566233
597.409395	2879.013044
597.760573	2875.007847
598.111698	2866.221116
598.462768	2865.061651
598.813785	2860.108717
599.164748	2849.590349
599.515657	2849.973477
599.866511	2842.386541
600.217312	2844.130780
600.568060	2829.529078
600.918753	2836.876559
601.269392	2829.899602
601.619978	2824.268634
601.970510	2822.930207
602.320988	2822.698314
602.671412	2822.589929
603.021783	2816.805205
603.372100	2810.360090
603.722363	2810.367652
604.072572	2805.127372
604.422728	2804.421611
604.772830	2797.525312
605.122878	2795.110600
605.472872	2791.244035
605.822813	2788.088272
606.172701	2787.760597
606.522534	2788.088272
606.872314	2786.820422
607.222041	2783.221038
607.571714	2783.828497
607.921333	2774.736777
608.270899	2774.603186
608.620411	2777.509411
608.969870	2774.817435
609.319276	2767.253184
609.668627	2765.408121
610.017926	2766.179418
610.367171	2764.548605
610.716362	2767.054058
611.065500	2761.546597
611.414585	2758.103489
611.763616	2760.951741
612.112594	2759.789755
612.461518	2753.188364
612.810389	2754.012593
613.159207	2752.066708
613.507971	2749.495719
613.856682	2752.520412
614.205340	2743.521952
614.553945	2751.333220
614.902496	2744.532703
615.250994	2741.203021
615.599439	2743.834503
615.947830	2742.879205
616.296169	2740.530027
616.644454	2739.967938
616.992686	2737.623802
617.340864	2740.852661
617.688990	2736.169429
618.037063	2738.735376
618.385082	2736.209758
618.733048	2736.252608
619.080961	2734.273955
619.428821	2734.168091
619.776628	2728.995867
620.124382	2729.749520
620.472083	2723.737944
620.819731	2724.259703
621.167326	2721.146791
621.514868	2722.419682
621.862357	2716.506408
622.209793	2718.117057
622.557176	2710.293186
622.904506	2705.123483
623.251783	2699.071578
623.599007	2698.943028
623.946179	2695.361289
624.293297	2696.366999
624.640363	2691.323324
624.987376	2691.310722
625.334336	2686.125895
625.681243	2685.157993
626.028097	2683.133970
626.374899	2679.975687
626.721647	2679.922755
627.068343	2678.738084
627.414987	2677.666839
627.761577	2671.017557
628.108115	2673.238185
628.454600	2670.029491
628.801032	2668.466733
629.147412	2666.838440
629.493739	2667.637463
629.840014	2665.091680
630.186236	2664.927843
630.532405	2659.637152
630.878521	2664.683347
631.224585	2660.683191
631.570597	2657.814775
631.916556	2658.520536
632.262462	2655.989877
632.608316	2655.959630
632.954117	2657.441729
633.299866	2656.299908
633.645562	2656.597336
633.991206	2650.628610
634.336797	2646.099133
634.682336	2646.716675
635.027823	2646.404123
635.373257	2642.429173
635.718639	2637.708133
636.063968	2639.346508
636.409245	2634.305354
636.754470	2635.013636
637.099642	2631.419293
637.444762	2629.221350
637.789829	2628.356792
638.134845	2628.986937
638.479808	2628.865949
638.824719	2623.098869
