Dividing Wavelength (nm)	Counts (n)	Blue Motor Position (mm): 0.000000	Red Motor Position (mm): 9.200000	
326.493990	1977.374952
326.888308	1977.374952
327.282561	1977.374952
327.676750	1952.920315
328.070874	1956.628083
328.464933	1962.019597
328.858929	1970.892028
329.252859	1984.427526
329.646726	2000.092912
330.040528	2014.840807
330.434265	2033.417459
330.827938	2050.655685
331.221547	2068.758468
331.615091	2092.978692
332.008571	2112.755139
332.401986	2132.667696
332.795338	2152.333238
333.188625	2173.959788
333.581847	2191.016532
333.975006	2210.772813
334.368100	2226.934753
334.761129	2244.450242
335.154095	2261.575041
335.546996	2276.305293
335.939833	2289.190482
336.332606	2301.392595
336.725315	2314.759214
337.117960	2320.859011
337.510540	2327.162973
337.903056	2336.320229
338.295508	2341.820128
338.687896	2349.701972
339.080220	2357.596419
339.472480	2363.665968
339.864676	2363.804600
340.256807	2368.394571
340.648875	2371.769623
341.040879	2372.631661
341.432818	2372.578728
341.824694	2377.750952
342.216506	2376.553678
342.608253	2372.238451
342.999937	2372.908924
343.391557	2373.765920
343.783113	2372.188039
344.174605	2369.450693
344.566033	2368.823069
344.957397	2367.282996
345.348697	2361.392408
345.739934	2362.587162
346.131106	2362.496421
346.522215	2360.898375
346.913260	2356.164732
347.304241	2353.044257
347.695159	2356.474763
348.086012	2352.174658
348.476802	2353.021572
348.867528	2350.367405
349.258191	2348.227435
349.648789	2349.812878
350.039324	2347.458659
350.429796	2349.069308
350.820203	2346.636951
351.210548	2344.587722
351.600828	2345.898422
351.991045	2341.989007
352.381198	2344.696107
352.771288	2346.147959
353.161314	2344.411281
353.551276	2345.633761
353.941175	2346.200891
354.331010	2346.223576
354.720782	2345.278360
355.110490	2345.774913
355.500135	2345.890860
355.889717	2346.379852
356.279235	2346.498319
356.668689	2347.546879
357.058080	2346.841118
357.447408	2345.621158
357.836672	2343.345077
358.225873	2346.825994
358.615010	2346.878926
359.004084	2352.076356
359.393095	2350.145594
359.782043	2349.044102
360.170927	2349.792713
360.559748	2354.002077
360.948505	2351.211798
361.337199	2352.436798
361.725830	2351.645337
362.114398	2353.876048
362.502903	2354.952334
362.891344	2357.210771
363.279722	2354.251614
363.668037	2356.222705
364.056289	2359.295288
364.444478	2357.644310
364.832603	2358.854187
365.220665	2359.610360
365.608665	2360.180011
365.996601	2360.358972
366.384474	2361.465505
366.772284	2362.294775
367.160031	2361.198324
367.547715	2360.414424
367.935336	2360.069105
368.322893	2363.955835
368.710388	2360.101873
369.097820	2364.976668
369.485189	2364.608664
369.872495	2363.940711
370.259738	2365.599251
370.646918	2370.070754
371.034035	2372.765251
371.421090	2373.329860
371.808081	2375.202649
372.195010	2377.398072
372.581875	2386.353681
372.968678	2392.551780
373.355418	2398.641494
373.742096	2407.103071
374.128710	2416.653537
374.515262	2429.289189
374.901751	2441.476178
375.288177	2457.393621
375.674540	2476.660911
376.060841	2497.380054
376.447079	2517.645492
376.833254	2542.359749
377.219367	2568.624160
377.605417	2602.840992
377.991404	2628.369395
378.377329	2665.578152
378.763191	2700.659541
379.148991	2744.925913
379.534727	2790.931483
379.920402	2837.481498
380.306013	2887.245248
380.691563	2945.551233
381.077049	2998.591734
381.462474	3053.792368
381.847835	3125.636372
382.233134	3193.979295
382.618371	3252.895260
383.003545	3331.827126
383.388657	3410.146493
383.773706	3497.953310
384.158693	3567.841347
384.543618	3655.801919
384.928480	3729.284298
385.313280	3827.584278
385.698017	3924.767642
386.082692	4031.214126
386.467305	4088.358125
386.851856	4203.684602
387.236344	4343.256508
387.620770	4387.961460
388.005133	4492.005834
388.389435	4612.751551
388.773674	4674.997198
389.157851	4780.639618
389.541965	4882.291965
389.926018	4883.368251
390.310008	5013.810628
390.693936	5091.507411
391.077802	5165.612373
391.461606	5243.276389
391.845348	5306.805010
392.229027	5362.388772
392.612645	5510.598695
392.996200	5552.669645
393.379694	5644.053161
393.763125	5770.157624
394.146494	5785.727228
394.529801	5833.265309
394.913047	5948.763185
395.296230	5879.608636
395.679351	5852.910685
396.062410	5964.383200
396.445408	5813.602288
396.828343	5838.770249
397.211217	5847.065467
397.594028	5691.727353
397.976778	5731.998610
398.359466	5752.138020
398.742092	5645.424355
399.124656	5644.315301
399.507158	5653.245705
399.889598	5574.611267
400.271977	5587.947639
400.654294	5511.150702
401.036549	5509.905537
401.418742	5419.802473
401.800874	5462.301921
402.182944	5392.169388
402.564952	5443.649652
402.946898	5262.190798
403.328783	5180.468653
403.710606	5147.053365
404.092367	5138.564062
404.474067	5154.612575
404.855705	4974.991223
405.237282	4849.090926
405.618797	4877.245770
406.000250	4844.765616
406.381642	4835.661292
406.762972	4716.717787
407.144240	4553.548240
407.525447	4512.959390
407.906593	4396.239035
408.287677	4350.581304
408.668700	4279.185963
409.049661	4177.442875
409.430560	4108.941156
409.811399	4011.465406
410.192176	3951.276549
410.572891	3868.379815
410.953545	3851.297866
411.334138	3694.018907
411.714669	3685.035571
412.095139	3518.927031
412.475547	3502.500431
412.855894	3415.452307
413.236180	3378.634240
413.616405	3281.811318
413.996568	3239.609299
414.376670	3175.485822
414.756711	3110.780092
415.136691	3075.066037
415.516609	3032.269162
415.896466	2986.921463
416.276262	2956.674539
416.655997	2932.227464
417.035670	2886.857079
417.415283	2874.879298
417.794834	2833.630056
418.174324	2794.750157
418.553753	2754.632655
418.933121	2737.923751
419.312428	2702.764223
419.691674	2674.526200
420.070859	2657.325783
420.449983	2629.488531
420.829045	2617.966974
421.208047	2593.756833
421.586988	2585.595205
421.965867	2572.659604
422.344686	2553.543549
422.723444	2547.400903
423.102141	2517.925276
423.480777	2523.193282
423.859352	2503.878101
424.237866	2506.161744
424.616319	2495.416524
424.994712	2494.725886
425.373044	2488.230359
425.751314	2486.692808
426.129524	2472.305354
426.507673	2477.706951
426.885762	2470.195632
427.263789	2465.260342
427.641756	2463.712708
428.019662	2462.364199
428.397508	2457.658282
428.775292	2457.781790
429.153016	2453.380863
429.530679	2455.137705
429.908282	2448.921962
430.285824	2445.531786
430.663305	2447.873402
431.040726	2442.048349
431.418086	2440.813266
431.795385	2443.379214
432.172624	2443.278391
432.549802	2440.944336
432.926920	2439.701692
433.303977	2438.252360
433.680974	2437.584407
434.057910	2438.232196
434.434786	2434.345466
434.811601	2435.872936
435.188355	2436.508121
435.565050	2436.699685
435.941683	2435.935950
436.318257	2435.308326
436.694770	2430.148705
437.071222	2434.733635
437.447614	2430.783891
437.823946	2432.865887
438.200218	2431.088881
438.576429	2431.711463
438.952580	2429.090063
439.328670	2430.710794
439.704700	2432.024015
440.080670	2431.003181
440.456580	2432.523089
440.832429	2433.773295
441.208218	2430.695671
441.583947	2430.572162
441.959616	2428.341452
442.335224	2430.388160
442.710773	2429.916812
443.086261	2431.204827
443.461689	2429.427820
443.837057	2428.535536
444.212365	2428.865732
444.587612	2434.670620
444.962800	2430.801535
445.337927	2430.917481
445.712995	2430.347831
446.088002	2432.371854
446.462949	2429.891607
446.837837	2433.652307
447.212664	2430.657862
447.587431	2440.367124
447.962139	2444.243772
448.336786	2448.944648
448.711374	2445.062959
449.085901	2441.188832
449.460369	2438.627926
449.834776	2438.764037
450.209124	2444.367280
450.583412	2443.583380
450.957640	2446.300562
451.331808	2439.575663
451.705917	2437.334870
452.079965	2439.731939
452.453954	2439.525252
452.827883	2441.037598
453.201752	2436.140117
453.575562	2437.413008
453.949311	2438.791764
454.323001	2441.070365
454.696632	2439.094233
455.070202	2442.643205
455.443713	2442.802002
455.817164	2439.479881
456.190556	2441.178750
456.563888	2441.715633
456.937160	2436.462751
457.310373	2440.931733
457.683526	2442.512135
458.056619	2443.933741
458.429653	2441.831579
458.802628	2442.731425
459.175542	2441.491302
459.548398	2443.545572
459.921194	2451.485389
460.293930	2450.474638
460.666607	2452.218877
461.039224	2456.067798
461.411782	2456.637448
461.784280	2456.952520
462.156719	2453.385904
462.529099	2455.440174
462.901419	2451.676953
463.273680	2448.216201
463.645882	2450.794751
464.018024	2449.937755
464.390106	2448.289297
464.762130	2456.697942
465.134094	2466.175311
465.505999	2473.109418
465.877845	2480.121663
466.249631	2483.156438
466.621358	2479.483958
466.993026	2479.262147
467.364634	2476.106384
467.736184	2469.242853
468.107674	2466.145064
468.479105	2467.503655
468.850477	2464.506689
469.221790	2460.103242
469.593043	2456.874382
469.964238	2454.457149
470.335373	2455.263734
470.706449	2460.009980
471.077467	2464.894858
471.448425	2473.001034
471.819324	2474.442804
472.190164	2473.245530
472.560945	2466.281176
472.931667	2461.650876
473.302330	2459.195834
473.672934	2455.508230
474.043479	2457.403704
474.413965	2454.631069
474.784393	2450.109154
475.154761	2454.520164
475.525070	2452.302056
475.895321	2451.278702
476.265513	2450.595625
476.635645	2458.220371
477.005719	2454.777263
477.375734	2457.343210
477.745691	2457.751543
478.115588	2462.086936
478.485427	2464.736062
478.855207	2473.931127
479.224928	2473.999182
479.594591	2482.433033
479.964194	2475.715695
480.333739	2481.399596
480.703226	2477.409523
481.072653	2479.650316
481.442022	2479.461272
481.811333	2482.773310
482.180584	2477.845582
482.549777	2477.215438
482.918912	2475.413226
483.287988	2476.229893
483.657005	2473.613534
484.025964	2472.171764
484.394864	2471.705457
484.763706	2470.543471
485.132489	2469.368882
485.501213	2469.552884
485.869879	2469.681434
486.238487	2469.197483
486.607036	2468.025415
486.975527	2466.870991
487.343959	2470.740076
487.712333	2464.511731
488.080648	2464.262193
488.448905	2466.722277
488.817104	2468.075826
489.185244	2467.430559
489.553326	2472.380972
489.921350	2478.528659
490.289315	2480.887919
490.657222	2482.075111
491.025070	2486.443270
491.392861	2483.900008
491.760593	2480.426653
492.128267	2476.925572
492.495883	2475.713174
492.863440	2471.581949
493.230939	2471.471043
493.598380	2468.249746
493.965763	2462.810341
494.333088	2465.260342
494.700354	2459.800772
495.067563	2463.397636
495.434713	2460.350258
495.801805	2464.085753
496.168839	2465.923254
496.535815	2463.858901
496.902733	2465.023408
497.269593	2464.980558
497.636395	2462.888479
498.003139	2468.111114
498.369825	2468.161526
498.736453	2467.075157
499.103023	2466.132462
499.469535	2466.755044
499.835989	2464.801597
500.202385	2467.387709
500.568723	2467.246557
500.935003	2469.966259
501.301226	2469.404170
501.667390	2474.110088
502.033497	2473.028760
502.399546	2476.844913
502.765537	2472.907772
503.131470	2475.672845
503.497345	2477.343988
503.863163	2480.086375
504.228923	2480.131746
504.594625	2482.123002
504.960269	2480.514873
505.325856	2486.029896
505.691385	2483.965543
506.056856	2489.289002
506.422270	2491.363437
506.787625	2493.407624
507.152924	2493.891575
507.518164	2495.507265
507.883347	2493.243787
508.248472	2499.585558
508.613540	2502.506907
508.978550	2504.634274
509.343503	2506.602845
509.708398	2507.981600
510.073236	2512.463186
510.438016	2514.628362
510.802738	2515.255985
511.167403	2519.167921
511.532010	2520.450894
511.896561	2520.612211
512.261053	2526.643952
512.625488	2523.984743
512.989866	2523.233611
513.354186	2527.417769
513.718449	2524.345186
514.082655	2533.192411
514.446803	2531.249046
514.810894	2535.866743
515.174927	2536.759027
515.538904	2534.309026
515.902822	2536.862371
516.266684	2536.544778
516.630488	2536.721218
516.994235	2537.593338
517.357925	2537.137113
517.721558	2540.529810
518.085133	2539.067875
518.448651	2534.157792
518.812112	2536.486805
519.175516	2536.214582
519.538863	2536.093595
519.902152	2532.869777
520.265385	2531.228881
520.628560	2532.705939
520.991678	2529.469518
521.354739	2527.793335
521.717743	2528.559590
522.080690	2525.877696
522.443580	2526.898530
522.806413	2524.687984
523.169189	2520.423168
523.531908	2517.960564
523.894569	2512.619462
524.257174	2517.247241
524.619722	2513.567199
524.982213	2511.628875
525.344647	2506.580159
525.707025	2507.825324
526.069345	2501.327277
526.431608	2503.689058
526.793815	2501.299551
527.155964	2498.400887
527.518057	2495.703870
527.880093	2492.933756
528.242072	2490.158601
528.603995	2486.685246
528.965860	2484.273054
529.327669	2483.763897
529.689421	2481.737353
530.051117	2480.174596
530.412755	2476.726446
530.774337	2474.289048
531.135862	2472.005406
531.497331	2470.488018
531.858743	2465.305712
532.220098	2464.020218
532.581396	2461.522326
532.942638	2460.635083
533.303824	2463.395115
533.664953	2459.331945
534.026025	2458.094342
534.387040	2459.495783
534.747999	2456.430761
535.108902	2458.280864
535.469748	2452.536470
535.830537	2454.464711
536.191270	2455.243569
536.551947	2451.104782
536.912567	2451.366922
537.273131	2449.146294
537.633638	2447.316355
537.994089	2446.345933
538.354483	2447.288628
538.714821	2446.973556
539.075103	2446.282918
539.435328	2447.054215
539.795497	2442.101281
540.155609	2446.209822
540.515665	2445.123453
540.875665	2444.115222
541.235609	2443.361570
541.595496	2442.623041
541.955328	2442.761672
542.315102	2441.135900
542.674821	2441.161106
543.034483	2441.128338
543.394090	2438.791764
543.753640	2443.190170
544.113134	2439.522731
544.472571	2443.210335
544.831953	2441.584563
545.191278	2438.070879
545.550548	2439.830241
545.909761	2438.320416
546.268918	2440.808225
546.628019	2436.949222
546.987064	2438.539706
547.346053	2437.803697
547.704986	2440.102464
548.063863	2438.333019
548.422684	2438.607762
548.781449	2438.610282
549.140158	2438.970725
549.498811	2437.589448
549.857408	2437.793615
550.215949	2435.444437
550.574434	2434.736155
550.932864	2435.204983
551.291237	2434.201793
551.649555	2439.527772
552.007817	2435.630960
552.366022	2438.852257
552.724173	2437.516352
553.082267	2437.130703
553.440305	2437.324788
553.798288	2438.086002
554.156215	2438.819490
554.514086	2439.573142
554.871902	2435.136927
555.229661	2435.331012
555.587365	2436.220775
555.945014	2438.774120
556.302606	2438.060796
556.660143	2435.961156
557.017625	2436.976948
557.375050	2433.899324
557.732421	2438.159099
558.089735	2435.827565
558.446994	2438.824531
558.804197	2439.074068
559.161345	2437.717998
559.518437	2434.940322
559.875474	2436.755138
560.232455	2437.017277
560.589381	2436.198090
560.946251	2440.208328
561.303065	2438.088523
561.659825	2436.177925
562.016528	2436.293872
562.373177	2434.731114
562.729770	2433.652307
563.086307	2435.890580
563.442789	2434.640373
563.799216	2436.382092
564.155587	2434.350507
564.511904	2437.163471
564.868164	2435.479726
565.224370	2436.094746
565.580520	2436.026691
565.936615	2434.161464
566.292654	2434.968048
566.648638	2436.099787
567.004567	2434.766402
567.360441	2433.634663
567.716260	2437.004675
568.072023	2433.879159
568.427732	2429.647111
568.783385	2434.458892
569.138982	2429.838674
569.494525	2431.116607
569.850013	2431.174580
570.205445	2434.927719
570.560823	2434.867225
570.916145	2430.304981
571.271412	2433.969900
571.626625	2435.000816
571.981782	2432.364293
572.336884	2434.274890
572.691931	2431.882862
573.046923	2433.344797
573.401860	2433.387647
573.756743	2436.286310
574.111570	2432.908737
574.466342	2430.771288
574.821059	2431.535023
575.175722	2430.292378
575.530330	2434.980651
575.884882	2430.980496
576.239380	2430.330187
576.593823	2433.914447
576.948211	2432.490321
577.302544	2432.636515
577.656823	2432.026535
578.011047	2432.213058
578.365216	2432.255908
578.719330	2430.640218
579.073389	2430.788932
579.427394	2433.170877
579.781344	2430.030238
580.135239	2430.751123
580.489080	2430.645259
580.842866	2431.905547
581.196597	2431.192224
581.550273	2429.551329
581.903895	2431.290527
582.257463	2428.812800
582.610975	2432.298757
582.964434	2431.716504
583.317837	2429.180804
583.671186	2429.957142
584.024481	2429.314394
584.377721	2429.233736
584.730906	2427.413879
585.084037	2432.787749
585.437113	2432.147523
585.790135	2428.893458
586.143103	2431.300609
586.496016	2428.585948
586.848874	2424.898344
587.201679	2428.538057
587.554428	2422.521440
587.907124	2429.077460
588.259765	2423.534712
588.612352	2431.923192
588.964884	2430.947728
589.317362	2429.266503
589.669786	2426.937490
590.022155	2429.906730
590.374470	2428.827923
590.726731	2430.927564
591.078937	2429.200968
591.431090	2428.472522
591.783188	2428.699374
592.135232	2428.638880
592.487222	2428.270876
592.839157	2426.267017
593.191038	2427.618046
593.542866	2429.405135
593.894639	2429.574014
594.246358	2427.106369
594.598022	2428.422110
594.949633	2425.833478
595.301190	2429.190886
595.652692	2426.665268
596.004141	2426.980340
596.355535	2426.856832
596.706876	2427.008067
597.058162	2425.818354
597.409395	2426.115782
597.760573	2424.797521
598.111698	2426.070412
598.462768	2428.003694
598.813785	2425.011770
599.164748	2425.523447
599.515657	2426.927408
599.866511	2423.759043
600.217312	2426.317428
600.568060	2425.805751
600.918753	2428.553180
601.269392	2425.384815
601.619978	2424.043868
601.970510	2426.929929
602.320988	2424.164856
602.671412	2425.878848
603.021783	2427.549991
603.372100	2425.029414
603.722363	2425.467994
604.072572	2425.268868
604.422728	2428.565783
604.772830	2422.367684
605.122878	2422.723086
605.472872	2419.463980
605.822813	2421.629155
606.172701	2424.409352
606.522534	2422.725606
606.872314	2423.103693
607.222041	2426.698036
607.571714	2426.511513
607.921333	2425.916657
608.270899	2425.125196
608.620411	2426.816503
608.969870	2423.328024
609.319276	2425.654517
609.668627	2426.161153
610.017926	2423.580082
610.367171	2423.872469
610.716362	2425.677202
611.065500	2422.967582
611.414585	2424.399269
611.763616	2422.251738
612.112594	2425.720052
612.461518	2423.746440
612.810389	2424.835329
613.159207	2425.614187
613.507971	2425.362130
613.856682	2424.046389
614.205340	2425.641914
614.553945	2426.188879
614.902496	2424.421955
615.250994	2427.507141
615.599439	2425.631832
615.947830	2422.571851
616.296169	2424.479928
616.644454	2424.832809
616.992686	2424.462284
617.340864	2425.843560
617.688990	2424.573189
618.037063	2427.403797
618.385082	2426.655186
618.733048	2426.057809
619.080961	2428.573345
619.428821	2426.324990
619.776628	2423.801893
620.124382	2425.810792
620.472083	2425.150401
620.819731	2424.885741
621.167326	2425.941863
621.514868	2426.435896
621.862357	2424.999167
622.209793	2426.856832
622.557176	2425.956986
622.904506	2423.766605
623.251783	2420.139494
623.599007	2421.029258
623.946179	2417.891140
624.293297	2421.374577
624.640363	2420.963723
624.987376	2421.460277
625.334336	2420.159659
625.681243	2423.501944
626.028097	2423.343148
626.374899	2423.280133
626.721647	2422.833991
627.068343	2422.130750
627.414987	2422.211409
627.761577	2423.131419
628.108115	2422.082859
628.454600	2421.084711
628.801032	2419.390883
629.147412	2418.740574
629.493739	2420.562951
629.840014	2421.737540
630.186236	2420.525143
630.532405	2422.554207
630.878521	2420.028589
631.224585	2422.236614
631.570597	2423.244845
631.916556	2421.775349
632.262462	2421.543456
632.608316	2422.748292
632.954117	2419.673188
633.299866	2419.297622
633.645562	2420.149577
633.991206	2422.037489
634.336797	2418.622107
634.682336	2422.130750
635.027823	2422.697880
635.373257	2418.543969
635.718639	2418.879206
636.063968	2418.420461
636.409245	2418.599422
636.754470	2421.316604
637.099642	2417.129926
637.444762	2418.475914
637.789829	2420.777200
638.134845	2419.774011
638.479808	2419.184196
638.824719	2419.363157
639.169577	2419.542118
639.514383	2419.781573
639.859137	2419.499268
640.203839	2417.346695
640.548489	2416.532549
640.893086	2414.780748
641.237632	2413.671694
641.582125	2415.292425
641.926566	2412.262692
642.270955	2419.320307
642.615292	2415.983063
642.959576	2416.852662
643.303809	2416.809812
643.647990	2416.993814
643.992118	2416.860224
644.336195	2415.199164
