Dividing Wavelength (nm)	Counts (n)	Blue Motor Position (mm): 0.000000	Red Motor Position (mm): 43.600000	
326.493990	1994.161994
326.888308	1994.161994
327.282561	1994.161994
327.676750	1971.799436
328.070874	1973.997379
328.464933	1977.364870
328.858929	1987.318628
329.252859	2003.619199
329.646726	2015.465911
330.040528	2030.480987
330.434265	2050.960675
330.827938	2071.042111
331.221547	2088.088773
331.615091	2109.838831
332.008571	2130.532768
332.401986	2150.157980
332.795338	2171.998779
333.188625	2190.726665
333.581847	2209.615869
333.975006	2228.928529
334.368100	2246.106261
334.761129	2261.668303
335.154095	2276.822011
335.546996	2313.657722
335.939833	2379.835469
336.332606	2393.212171
336.725315	2403.793553
337.117960	2412.784451
337.510540	2419.610173
337.903056	2432.850764
338.295508	2437.171033
338.687896	2442.504573
339.080220	2451.266099
339.472480	2455.664506
339.864676	2461.325721
340.256807	2462.908644
340.648875	2466.470219
341.040879	2467.939715
341.432818	2467.561629
341.824694	2468.615230
342.216506	2470.349387
342.608253	2470.412401
342.999937	2469.699078
343.391557	2469.179839
343.783113	2465.580455
344.174605	2466.797894
344.566033	2461.638273
344.957397	2460.546863
345.348697	2460.541822
345.739934	2459.367233
346.131106	2456.980247
346.522215	2458.353961
346.913260	2452.181068
347.304241	2452.962447
347.695159	2450.832560
348.086012	2448.339709
348.476802	2446.509770
348.867528	2446.146807
349.258191	2444.533638
349.648789	2444.435335
350.039324	2443.215376
350.429796	2446.010696
350.820203	2442.161775
351.210548	2443.585901
351.600828	2441.864347
351.991045	2442.711261
352.381198	2440.016764
352.771288	2443.787547
353.161314	2439.242947
353.551276	2442.290324
353.941175	2440.810746
354.331010	2438.635488
354.720782	2442.471806
355.110490	2446.194698
355.500135	2443.545572
355.889717	2441.955088
356.279235	2444.047167
356.668689	2443.502722
357.058080	2446.300562
357.447408	2441.917279
357.836672	2443.361570
358.225873	2443.096909
358.615010	2444.266457
359.004084	2447.545727
359.393095	2449.738629
359.782043	2449.685697
360.170927	2452.140739
360.559748	2451.971860
360.948505	2452.445729
361.337199	2452.055039
361.725830	2455.621656
362.114398	2458.666513
362.502903	2455.568724
362.891344	2457.237346
363.279722	2456.508899
363.668037	2456.428240
364.056289	2459.155505
364.444478	2461.678602
364.832603	2460.577110
365.220665	2462.112141
365.608665	2460.345217
365.996601	2467.823769
366.384474	2464.040383
366.772284	2466.180353
367.160031	2466.939046
367.547715	2467.599437
367.935336	2467.188583
368.322893	2470.906434
368.710388	2469.568008
369.097820	2475.020016
369.485189	2475.103195
369.872495	2476.431539
370.259738	2478.851293
370.646918	2484.220122
371.034035	2483.075780
371.421090	2485.256079
371.808081	2489.140288
372.195010	2494.446102
372.581875	2499.688902
372.968678	2507.457320
373.355418	2515.969308
373.742096	2523.957017
374.128710	2536.353214
374.515262	2550.191181
374.901751	2560.409600
375.288177	2580.982549
375.674540	2599.483584
376.060841	2624.621297
376.447079	2646.041160
376.833254	2674.851354
377.219367	2701.072916
377.605417	2735.998030
377.991404	2758.985691
378.377329	2804.018319
378.763191	2838.709019
379.148991	2884.722151
379.534727	2940.363886
379.920402	2987.380208
380.306013	3037.083464
380.691563	3100.896910
381.077049	3156.780621
381.462474	3215.139538
381.847835	3292.611991
382.233134	3366.336345
382.618371	3429.562497
383.003545	3517.956609
383.388657	3597.674895
383.773706	3694.762477
384.158693	3769.018673
384.543618	3866.486862
384.928480	3946.459727
385.313280	4054.778999
385.698017	4162.518539
386.082692	4281.066313
386.467305	4350.558619
386.851856	4479.917147
387.236344	4638.247187
387.620770	4703.840160
388.005133	4829.397658
388.389435	4979.059434
388.773674	5066.110078
389.157851	5202.296849
389.541965	5339.824568
389.926018	5358.940623
390.310008	5547.144540
390.693936	5674.988202
391.077802	5791.073372
391.461606	5929.531183
391.845348	6047.579882
392.229027	6172.429098
392.612645	6398.194653
392.996200	6516.873497
393.379694	6698.642381
393.763125	6926.870539
394.146494	7026.657659
394.529801	7168.263670
394.913047	7420.689367
395.296230	7416.911022
395.679351	7473.687017
396.062410	7749.092814
396.445408	7642.971484
396.828343	7803.796895
397.211217	7942.300076
397.594028	7826.870256
397.976778	8030.558077
398.359466	8203.177267
398.742092	8170.150148
399.124656	8332.606371
399.507158	8520.795165
399.889598	8542.073875
400.271977	8749.285463
400.654294	8793.539232
401.036549	8994.822423
401.418742	9020.507102
401.800874	9335.579217
402.182944	9413.583511
402.564952	9791.677611
402.946898	9604.333211
403.328783	9663.738168
403.710606	9865.777532
404.092367	10132.845260
404.474067	10503.337300
404.855705	10290.043560
405.237282	10245.157126
405.618797	10684.034939
406.000250	10933.135994
406.381642	11308.250773
406.762972	11254.867474
407.144240	11053.927082
407.525447	11312.447533
407.906593	11256.704975
408.287677	11515.732062
408.668700	11677.795076
409.049661	11647.094449
409.430560	11813.124851
409.811399	11784.551591
410.192176	11952.742127
410.572891	12027.696523
410.953545	12531.012885
411.334138	11996.897594
411.714669	12619.880866
412.095139	11899.931000
412.475547	12420.059609
412.855894	12259.224117
413.236180	12595.501846
413.616405	12272.557968
413.996568	12553.670351
414.376670	12523.962831
414.756711	12404.842887
415.136691	12694.641177
415.516609	12885.027914
415.896466	12959.211013
416.276262	13248.916042
416.655997	13696.739383
417.035670	13720.347106
417.415283	14384.088107
417.794834	14490.171628
418.174324	14223.212285
418.553753	14128.874652
418.933121	14633.884842
419.312428	14437.983083
419.691674	14352.180123
420.070859	14814.786647
420.449983	14458.780363
420.829045	15026.361354
421.208047	14762.341003
421.586988	15233.502365
421.965867	15494.326624
422.344686	15491.206150
422.723444	16068.577062
423.102141	14718.056987
423.480777	15947.110460
423.859352	15445.966835
424.237866	16577.559680
424.616319	16275.587003
424.994712	16952.094726
425.373044	16739.234525
425.751314	17427.919155
426.129524	16534.908998
426.507673	17662.705854
426.885762	17333.644537
427.263789	17550.696457
427.641756	17724.880925
428.019662	17785.505841
428.397508	17821.814752
428.775292	18147.259041
429.153016	18096.650898
429.530679	18182.209361
429.908282	18215.450729
430.285824	17918.836799
430.663305	18633.385068
431.040726	18216.645483
431.418086	18052.460143
431.795385	18717.584941
432.172624	19134.251429
432.549802	18690.150981
432.926920	18876.514877
433.303977	18764.553371
433.680974	19029.211427
434.057910	19310.956475
434.434786	19339.479323
434.811601	19258.203320
435.188355	20318.904939
435.565050	19958.820361
435.941683	19898.833151
436.318257	20807.773354
436.694770	20611.821183
437.071222	21216.946168
437.447614	20282.507808
437.823946	20302.644697
438.200218	20455.681525
438.576429	20233.606096
438.952580	20503.398567
439.328670	20474.353959
439.704700	20889.243441
440.080670	20461.657813
440.456580	21063.115358
440.832429	21243.618913
441.208218	20194.869869
441.583947	20665.423772
441.959616	20776.004002
442.335224	21009.931185
442.710773	21145.893625
443.086261	21698.343592
443.461689	21053.537166
443.837057	21174.197183
444.212365	21840.521775
444.587612	21831.651865
444.962800	21387.659802
445.337927	21833.189417
445.712995	20531.261024
446.088002	22433.515222
446.462949	22626.684676
446.837837	22816.053100
447.212664	22771.053240
447.587431	25685.208167
447.962139	28674.743468
448.336786	31082.569944
448.711374	29486.732200
449.085901	25723.352058
449.460369	25686.458373
449.834776	25610.825942
450.209124	28139.783784
450.583412	27655.056677
450.957640	28194.172792
451.331808	26806.779198
451.705917	25422.175883
452.079965	25461.610309
452.453954	25832.886249
452.827883	25703.973862
453.201752	25502.012637
453.575562	25680.814802
453.949311	26829.620667
454.323001	26892.042754
454.696632	26639.259136
455.070202	28225.475837
455.443713	28376.249187
455.817164	28967.140473
456.190556	29519.824855
456.563888	28944.414952
456.937160	29385.157992
457.310373	27692.139404
457.683526	28159.623245
458.056619	28136.746488
458.429653	28078.228775
458.802628	28661.144956
459.175542	28774.187789
459.548398	30092.726784
459.921194	31699.317309
460.293930	32374.511811
460.666607	34433.583702
461.039224	36215.979426
461.411782	36616.478935
461.784280	35416.434782
462.156719	34931.664826
462.529099	34383.812390
462.901419	33069.334045
463.273680	31988.828253
463.645882	32082.003900
464.018024	32063.812896
464.390106	32906.950918
464.762130	35633.247248
465.134094	39759.862689
465.505999	45089.541935
465.877845	49688.863852
466.249631	50878.561036
466.621358	49206.795954
466.993026	47111.904144
467.364634	45040.191559
467.736184	43036.514387
468.107674	41770.657971
468.479105	40955.798301
468.850477	40267.118713
469.221790	38814.767331
469.593043	37017.779987
469.964238	36131.076313
470.335373	36058.390437
470.706449	37827.003646
471.077467	40444.668151
471.448425	45040.867074
471.819324	47846.591823
472.190164	45980.628891
472.560945	42400.708940
472.931667	39247.583156
473.302330	38130.952456
473.672934	37304.883781
474.043479	37821.294539
474.413965	37007.962340
474.784393	36622.417414
475.154761	37550.156080
475.525070	37568.415139
475.895321	37103.225024
476.265513	37708.765903
476.635645	38681.156589
477.005719	38514.271712
477.375734	38985.506170
477.745691	39697.871620
478.115588	41052.154916
478.485427	43041.043863
478.855207	46433.667305
479.224928	49050.379032
479.594591	50690.175638
479.964194	49707.034691
480.333739	49891.177959
480.703226	49929.704977
481.072653	50541.166692
481.442022	51016.774351
481.811333	51281.994496
482.180584	49998.788949
482.549777	49480.394496
482.918912	48932.756310
483.287988	48669.411474
483.657005	47819.939242
484.025964	47169.761466
484.394864	47194.445476
484.763706	46768.888913
485.132489	45906.559218
485.501213	45720.550723
485.869879	45881.759262
486.238487	45471.495038
486.607036	45667.016190
486.975527	45126.027286
487.343959	45325.054560
487.712333	45406.149081
488.080648	45318.243961
488.448905	45801.988043
488.817104	45594.758811
489.185244	46562.705720
489.553326	48255.741951
489.921350	50990.918273
490.289315	53812.562986
490.657222	54372.360436
491.025070	54657.173025
491.392861	53787.271517
491.760593	52570.352102
492.128267	50922.300608
492.495883	49410.022509
492.863440	48036.187098
493.230939	46668.663212
493.598380	45556.592236
493.965763	45240.874852
494.333088	44406.720167
494.700354	43898.128237
495.067563	43624.948111
495.434713	43496.552443
495.801805	43562.019387
496.168839	43177.606201
496.535815	42827.349352
496.902733	42865.440310
497.269593	42470.342398
497.636395	42381.119016
498.003139	42800.447234
498.369825	42235.434711
498.736453	42568.370155
499.103023	42086.672782
499.469535	41931.138062
499.835989	42048.801114
500.202385	41715.621174
500.568723	41727.228430
500.935003	41918.278079
501.301226	41706.758825
501.667390	42353.806045
502.033497	42625.277221
502.399546	42031.348639
502.765537	41333.196722
503.131470	41731.921745
503.497345	42089.211003
503.863163	40738.839643
504.228923	41354.808149
504.594625	41783.729683
504.960269	41052.628784
505.325856	41767.814760
505.691385	41128.820784
506.056856	41266.449325
506.422270	41691.844572
506.787625	41264.140476
507.152924	41476.393218
507.518164	41583.744589
507.883347	40757.701120
508.248472	41034.480631
508.613540	41513.559125
508.978550	41827.076044
509.343503	41551.206462
509.708398	41764.535489
510.073236	42307.049343
510.438016	42313.519664
510.802738	41752.955959
511.167403	42383.170766
511.532010	42614.068215
511.896561	42924.951132
512.261053	43783.464673
512.625488	43318.803879
512.989866	43190.869476
513.354186	43029.832337
513.718449	43007.210159
514.082655	43714.415988
514.446803	43364.620405
514.810894	43894.440633
515.174927	43821.545549
515.538904	43717.912029
515.902822	44399.438220
516.266684	43815.410465
516.630488	44266.329073
516.994235	44108.548520
517.357925	44698.103900
517.721558	44850.820615
518.085133	45169.217371
518.448651	45297.449202
518.812112	45080.714874
519.175516	45166.464901
519.538863	45507.846798
519.902152	45474.638197
520.265385	45938.056347
520.628560	45983.824983
520.991678	45772.222550
521.354739	46011.977307
521.717743	46317.889645
522.080690	46214.881228
522.443580	46755.098836
522.806413	46808.099007
523.169189	46731.470948
523.531908	46927.740711
523.894569	46774.920653
524.257174	46940.749409
524.619722	47265.813091
524.982213	47246.379443
525.344647	47147.177097
525.707025	47186.233437
526.069345	47569.945903
526.431608	47501.610542
526.793815	47827.904266
527.155964	47355.908593
527.518057	47524.318419
527.880093	47278.589896
528.242072	47815.316504
528.603995	47498.132146
528.965860	47522.780867
529.327669	47608.997201
529.689421	47499.573916
530.051117	47446.598950
530.412755	47588.043645
530.774337	47674.018003
531.135862	47448.280175
531.497331	47661.117691
531.858743	47551.134837
532.220098	47890.633863
532.581396	47605.680122
532.942638	47264.330992
533.303824	47576.809434
533.664953	47520.098973
534.026025	47232.975015
534.387040	47705.376501
534.747999	47659.040735
535.108902	47809.733427
535.469748	47321.979107
535.830537	47436.985470
536.191270	47625.653173
536.551947	47284.483004
536.912567	47584.305629
537.273131	47703.687714
537.633638	47170.968823
537.994089	47538.549597
538.354483	47109.660830
538.714821	47699.120429
539.075103	48043.458963
539.435328	47784.550343
539.795497	47674.655709
540.155609	47657.750200
540.515665	48117.873955
540.875665	47568.340295
541.235609	47898.666942
541.595496	47864.745018
541.955328	48545.157114
542.315102	47905.578364
542.674821	47696.057928
543.034483	47733.309534
543.394090	47697.792085
543.753640	47661.813370
544.113134	48677.066466
544.472571	47668.671860
544.831953	48927.027039
545.191278	48134.698806
545.550548	47855.711270
545.909761	48324.231067
546.268918	48505.798306
546.628019	48814.480758
546.987064	48380.550838
547.346053	47660.016198
547.704986	48554.009380
548.063863	48080.377853
548.422684	48278.714489
548.781449	48150.028955
549.140158	48535.145383
549.498811	48381.110406
549.857408	47795.252712
550.215949	48645.874327
550.574434	48567.479343
550.932864	48335.046863
551.291237	49072.829811
551.649555	48661.764044
552.007817	48894.612419
552.366022	48537.915497
552.724173	48724.188652
553.082267	49118.714393
553.440305	49433.148803
553.798288	48742.987115
554.156215	49048.712931
554.514086	49265.081774
554.871902	49011.690697
555.229661	49042.272857
555.587365	48835.714098
555.945014	48943.410789
556.302606	48851.046768
556.660143	49094.690774
557.017625	49178.739412
557.375050	48979.790275
557.732421	49316.443570
558.089735	49305.589966
558.446994	49216.873220
558.804197	49708.894877
559.161345	49645.378859
559.518437	48897.064941
559.875474	49189.898006
560.232455	49350.620073
560.589381	49527.138595
560.946251	49230.635570
561.303065	49930.632549
561.659825	49738.282283
562.016528	49401.729811
562.373177	49125.131782
562.729770	49591.297360
563.086307	49108.034709
563.442789	49580.300083
563.799216	49643.082613
564.155587	49421.723027
564.511904	49440.690369
564.868164	49548.550896
565.224370	49775.231420
565.580520	49513.817346
565.936615	49731.522096
566.292654	49442.137180
566.648638	49704.977900
567.004567	49655.854377
567.360441	49714.409899
567.716260	49562.774512
568.072023	49834.671665
568.427732	49825.428710
568.783385	49370.020953
569.138982	49768.798908
569.494525	49718.863758
569.850013	49521.963851
570.205445	49476.585905
570.560823	49435.248443
570.916145	49328.736424
571.271412	49338.904431
571.626625	49099.041290
571.981782	49160.931536
572.336884	48847.817909
572.691931	49171.928813
573.046923	48771.361249
573.401860	48620.426582
573.756743	48611.400396
574.111570	48734.891022
574.466342	48575.025951
574.821059	48682.543680
575.175722	48204.102892
575.530330	48230.571470
575.884882	47941.476421
576.239380	47902.261285
576.593823	47879.921412
576.948211	47802.600194
577.302544	47317.570618
577.656823	47348.606481
578.011047	47562.356446
578.365216	47283.230278
578.719330	47102.615818
579.073389	46917.718898
579.427394	47016.772529
579.781344	46989.825042
580.135239	46649.413566
580.489080	46731.760814
580.842866	46193.322734
581.196597	46668.048192
581.550273	46586.565501
581.903895	46460.032540
582.257463	46875.859677
582.610975	46247.678975
582.964434	46512.286620
583.317837	46175.716504
583.671186	45996.382497
584.024481	46214.906434
584.377721	45757.502381
584.730906	46054.007927
585.084037	46081.971207
585.437113	45784.154961
585.790135	45834.556418
586.143103	45424.607266
586.496016	45530.690787
586.848874	45576.371203
587.201679	45575.345328
587.554428	45058.145628
587.907124	45238.261014
588.259765	44985.406820
588.612352	45231.248769
588.964884	44618.715809
589.317362	44891.676646
589.669786	44845.124111
590.022155	44606.569149
590.374470	45042.996961
590.726731	44554.254575
591.078937	44052.952154
591.431090	44147.960260
591.783188	43811.430474
592.135232	43481.847397
592.487222	43717.622162
592.839157	43815.849045
593.191038	43467.091940
593.542866	43218.789907
593.894639	42589.807662
594.246358	42867.088768
594.598022	42871.154458
594.949633	42449.688791
595.301190	42390.278793
595.652692	42207.126112
596.004141	42539.905280
596.355535	41529.126208
596.706876	41486.314209
597.058162	41321.264311
597.409395	41795.019347
597.760573	41871.866696
598.111698	41430.395210
598.462768	41436.948710
598.813785	41475.994967
599.164748	40893.219938
599.515657	41275.324276
599.866511	40736.432492
600.217312	41345.512261
600.568060	40287.109408
600.918753	41034.326875
601.269392	41005.824192
601.619978	40634.399538
601.970510	40840.696156
602.320988	41013.433813
602.671412	41297.520477
603.021783	41047.259956
603.372100	40701.532584
603.722363	40798.733592
604.072572	40854.062776
604.422728	40867.225228
604.772830	40662.322489
605.122878	40743.676630
605.472872	40669.498572
605.822813	40923.925606
606.172701	40757.917889
606.522534	40989.788281
606.872314	41241.639286
607.222041	40961.966153
607.571714	41339.972033
607.921333	40756.029977
608.270899	41062.479199
608.620411	41383.121789
608.969870	41183.731552
609.319276	41148.035142
609.668627	41171.108503
610.017926	41660.244099
610.367171	41811.166163
610.716362	41866.230686
611.065500	41777.544187
611.414585	41955.300313
611.763616	42243.825712
612.112594	42137.830411
612.461518	42347.524767
612.810389	42606.899694
613.159207	42432.674897
613.507971	42491.157323
613.856682	42967.997544
614.205340	42820.831140
614.553945	43493.472298
614.902496	42914.710027
615.250994	43360.829458
615.599439	43418.505299
615.947830	43588.737503
616.296169	43605.080923
616.644454	43698.138103
616.992686	43839.696223
617.340864	44322.941231
617.688990	43999.727652
618.037063	44583.221045
618.385082	44506.963511
618.733048	44770.000836
619.080961	44760.997336
619.428821	44745.117701
619.776628	44837.620353
620.124382	44630.002953
620.472083	44741.994706
620.819731	44854.147776
621.167326	44512.838976
621.514868	44493.450698
621.862357	44030.312333
622.209793	44033.478177
622.557176	43707.663363
622.904506	43440.363742
623.251783	43103.241620
623.599007	42851.788866
623.946179	42611.908081
624.293297	42528.666028
624.640363	41921.333018
624.987376	41887.743810
625.334336	41632.396765
625.681243	41229.853068
626.028097	41148.715697
626.374899	40977.457619
626.721647	40929.576740
627.068343	40781.205500
627.414987	40517.086847
627.761577	40263.221901
628.108115	40552.909286
628.454600	39970.076284
628.801032	40122.344336
629.147412	40042.384074
629.493739	40016.064210
629.840014	39625.740271
630.186236	39905.887272
630.532405	39498.204119
630.878521	39668.509420
631.224585	39505.619657
631.570597	39177.430459
631.916556	39308.492897
632.262462	39208.163853
632.608316	39183.721819
632.954117	39047.474554
633.299866	39008.201445
633.645562	38908.628574
633.991206	38411.835466
634.336797	37959.802762
634.682336	37940.721995
635.027823	37699.883390
