Dividing Wavelength (nm)	Counts (n)	Blue Motor Position (mm): 0.000000	Red Motor Position (mm): 30.200000	
326.493990	1989.695532
326.888308	1989.695532
327.282561	1989.695532
327.676750	1966.118056
328.070874	1965.480350
328.464933	1973.016875
328.858929	1980.883595
329.252859	1994.474546
329.646726	2007.516011
330.040528	2024.285409
330.434265	2045.707793
330.827938	2060.702705
331.221547	2082.977043
331.615091	2100.232913
332.008571	2122.943311
332.401986	2143.359984
332.795338	2164.064003
333.188625	2185.993022
333.581847	2203.256453
333.975006	2221.482745
334.368100	2237.990003
334.761129	2253.622621
335.154095	2270.921341
335.546996	2292.258024
335.939833	2319.492858
336.332606	2335.450630
336.725315	2344.638133
337.117960	2354.317149
337.510540	2363.731503
337.903056	2372.208204
338.295508	2377.002341
338.687896	2385.380739
339.080220	2394.971534
339.472480	2398.437327
339.864676	2401.265414
340.256807	2403.496125
340.648875	2408.519635
341.040879	2408.743966
341.432818	2408.381003
341.824694	2412.262692
342.216506	2408.625499
342.608253	2407.952505
342.999937	2410.702454
343.391557	2406.848492
343.783113	2406.722463
344.174605	2406.162895
344.566033	2403.236506
344.957397	2402.379509
345.348697	2402.071999
345.739934	2397.396329
346.131106	2395.016904
346.522215	2395.435320
346.913260	2392.138405
347.304241	2392.730741
347.695159	2388.269320
348.086012	2390.736965
348.476802	2388.372663
348.867528	2390.394166
349.258191	2386.245297
349.648789	2386.232694
350.039324	2382.655995
350.429796	2384.080121
350.820203	2381.509133
351.210548	2380.684904
351.600828	2381.438556
351.991045	2382.900491
352.381198	2381.536859
352.771288	2380.677342
353.161314	2384.216232
353.551276	2382.119112
353.941175	2383.883516
354.331010	2383.344113
354.720782	2381.398227
355.110490	2381.307486
355.500135	2380.382435
355.889717	2382.870244
356.279235	2384.317055
356.668689	2384.117930
357.058080	2383.696993
357.447408	2384.246479
357.836672	2383.326468
358.225873	2384.604401
358.615010	2383.891078
359.004084	2388.158414
359.393095	2386.885523
359.782043	2390.469783
360.170927	2388.508775
360.559748	2390.081615
360.948505	2392.894578
361.337199	2392.007335
361.725830	2393.615463
362.114398	2395.972203
362.502903	2396.080588
362.891344	2398.243243
363.279722	2396.529250
363.668037	2396.791390
364.056289	2398.084446
364.444478	2399.584190
364.832603	2400.138717
365.220665	2403.213820
365.608665	2401.076371
365.996601	2401.237688
366.384474	2402.195507
366.772284	2404.751372
367.160031	2407.511404
367.547715	2407.410581
367.935336	2405.111815
368.322893	2408.456620
368.710388	2410.757907
369.097820	2414.077507
369.485189	2410.906621
369.872495	2414.228742
370.259738	2417.560944
370.646918	2419.786614
371.034035	2419.239648
371.421090	2425.117634
371.808081	2428.210382
372.195010	2432.886052
372.581875	2439.240426
372.968678	2442.928030
373.355418	2453.685853
373.742096	2463.362347
374.128710	2471.062710
374.515262	2483.277426
374.901751	2500.049345
375.288177	2518.222704
375.674540	2534.271218
376.060841	2556.109496
376.447079	2583.054463
376.833254	2608.562702
377.219367	2634.365848
377.605417	2671.481343
377.991404	2695.646114
378.377329	2736.139182
378.763191	2771.278545
379.148991	2820.528097
379.534727	2867.846888
379.920402	2917.376225
380.306013	2966.940849
380.691563	3030.262783
381.077049	3087.079107
381.462474	3141.205976
381.847835	3214.658108
382.233134	3290.482103
382.618371	3350.870085
383.003545	3437.477108
383.388657	3517.790251
383.773706	3612.914303
384.158693	3687.656971
384.543618	3783.827063
384.928480	3862.983260
385.313280	3967.141060
385.698017	4068.894230
386.082692	4189.763455
386.467305	4257.100668
386.851856	4382.000296
387.236344	4542.525757
387.620770	4604.194192
388.005133	4728.771186
388.389435	4878.692581
388.773674	4961.939675
389.157851	5095.300880
389.541965	5230.829780
389.926018	5254.533286
390.310008	5434.983908
390.693936	5565.113733
391.077802	5678.988357
391.461606	5812.778060
391.845348	5928.722078
392.229027	6050.891920
392.612645	6277.443895
392.996200	6390.474126
393.379694	6567.083389
393.763125	6792.322143
394.146494	6890.107925
394.529801	7030.062958
394.913047	7278.627131
395.296230	7274.611852
395.679351	7333.293403
396.062410	7597.407015
396.445408	7494.406160
396.828343	7649.061198
397.211217	7785.280737
397.594028	7666.982500
397.976778	7878.000159
398.359466	8043.654995
398.742092	8017.914863
399.124656	8168.473964
399.507158	8357.839867
399.889598	8377.732260
400.271977	8587.792100
400.654294	8621.267882
401.036549	8818.008993
401.418742	8845.150565
401.800874	9149.273294
402.182944	9233.901665
402.564952	9606.206000
402.946898	9420.994007
403.328783	9488.283329
403.710606	9680.719295
404.092367	9935.806720
404.474067	10304.236929
404.855705	10093.120967
405.237282	10042.573318
405.618797	10481.400719
406.000250	10728.686959
406.381642	11096.381159
406.762972	11044.447192
407.144240	10848.565598
407.525447	11102.523805
407.906593	11038.458301
408.287677	11304.429578
408.668700	11456.737959
409.049661	11426.448186
409.430560	11587.039183
409.811399	11560.270656
410.192176	11721.353166
410.572891	11802.578757
410.953545	12284.099690
411.334138	11765.117943
411.714669	12364.896783
412.095139	11672.035558
412.475547	12180.012466
412.855894	12024.283662
413.236180	12348.225688
413.616405	12030.164168
413.996568	12310.459884
414.376670	12276.558124
414.756711	12162.191987
415.136691	12449.729320
415.516609	12624.869087
415.896466	12693.607741
416.276262	12996.356755
416.655997	13431.511676
417.035670	13461.884628
417.415283	14119.886275
417.794834	14212.174678
418.174324	13956.552890
418.553753	13854.842570
418.933121	14349.841028
419.312428	14159.406400
419.691674	14071.370210
420.070859	14521.903171
420.449983	14183.223332
420.829045	14735.290172
421.208047	14483.298014
421.586988	14945.221462
421.965867	15194.027610
422.344686	15186.682649
422.723444	15752.610141
423.102141	14434.199697
423.480777	15634.914323
423.859352	15138.027952
424.237866	16255.918941
424.616319	15951.486181
424.994712	16620.671628
425.373044	16408.512148
425.751314	17084.649346
426.129524	16204.743668
426.507673	17302.459959
426.885762	17004.658837
427.263789	17194.067590
427.641756	17361.650667
428.019662	17429.260102
428.397508	17480.566445
428.775292	17777.359337
429.153016	17735.227893
429.530679	17818.159915
429.908282	17842.748143
430.285824	17546.323256
430.663305	18273.388711
431.040726	17863.729426
431.418086	17691.390020
431.795385	18338.117126
432.172624	18762.242002
432.549802	18324.621957
432.926920	18501.813474
433.303977	18390.653511
433.680974	18650.708994
434.057910	18940.101471
434.434786	18963.139544
434.811601	18866.467858
435.188355	19917.198074
435.565050	19558.000739
435.941683	19506.792699
436.318257	20402.830068
436.694770	20208.982580
437.071222	20802.432252
437.447614	19866.516834
437.823946	19899.357431
438.200218	20051.754032
438.576429	19828.297326
438.952580	20102.016857
439.328670	20064.054448
439.704700	20482.916359
440.080670	20050.408044
440.456580	20646.642954
440.832429	20811.730660
441.208218	19809.849224
441.583947	20261.324880
441.959616	20364.371106
442.335224	20595.094635
442.710773	20725.244624
443.086261	21263.463415
443.461689	20630.428082
443.837057	20751.743450
444.212365	21401.404507
444.587612	21389.209956
444.962800	20968.762602
445.337927	21393.454608
445.712995	20120.424630
446.088002	21982.644505
446.462949	22178.742869
446.837837	22352.408098
447.212664	22302.175521
447.587431	25139.155424
447.962139	28092.217977
448.336786	30484.313532
448.711374	28929.556151
449.085901	25229.472736
449.460369	25169.125083
449.834776	25090.611633
450.209124	27577.417866
450.583412	27108.658614
450.957640	27653.645154
451.331808	26286.489272
451.705917	24915.383646
452.079965	24930.181953
452.453954	25308.618852
452.827883	25195.860843
453.201752	24988.891231
453.575562	25153.467260
453.949311	26276.427129
454.323001	26332.663720
454.696632	26098.207217
455.070202	27652.147931
455.443713	27788.410319
455.817164	28373.090904
456.190556	28910.314067
456.563888	28364.074801
456.937160	28800.260637
457.310373	27117.606662
457.683526	27567.945538
458.056619	27548.363176
458.429653	27484.096026
458.802628	28055.402430
459.175542	28168.399893
459.548398	29471.114706
459.921194	31045.779603
460.293930	31707.315099
460.666607	33728.149839
461.039224	35487.033621
461.411782	35892.722998
461.784280	34706.302563
462.156719	34213.665886
462.529099	33651.196625
462.901419	32367.058465
463.273680	31291.061985
463.645882	31383.489020
464.018024	31343.426971
464.390106	32176.626358
464.762130	34866.243252
465.134094	38909.689737
465.505999	44192.869379
465.877845	48789.123755
466.249631	49977.633747
466.621358	48281.129202
466.993026	46171.512182
467.364634	44072.025360
467.736184	42105.030144
468.107674	40839.854283
468.479105	40037.761336
468.850477	39343.158392
469.221790	37917.182327
469.593043	36164.995717
469.964238	35264.834683
470.335373	35180.370151
470.706449	36882.848463
471.077467	39412.827138
471.448425	43957.394563
471.819324	46788.541851
472.190164	44953.950020
472.560945	41392.299210
472.931667	38282.358470
473.302330	37158.254259
473.672934	36326.335325
474.043479	36807.284087
474.413965	35998.970356
474.784393	35606.400583
475.154761	36483.760478
475.525070	36493.414287
475.895321	36015.696905
476.265513	36577.914108
476.635645	37493.254056
477.005719	37297.208624
477.375734	37727.196362
477.745691	38389.379646
478.115588	39687.018016
478.485427	41590.083840
478.855207	44838.913409
479.224928	47377.842653
479.594591	48968.455241
479.964194	47952.461095
480.333739	48063.361438
480.703226	48044.777225
481.072653	48584.641952
481.442022	48998.351804
481.811333	49201.366631
482.180584	47865.556644
482.549777	47266.997762
482.918912	46651.435069
483.287988	46307.169632
483.657005	45419.472851
484.025964	44693.841605
484.394864	44628.846008
484.763706	44124.571827
485.132489	43181.460163
485.501213	42926.287037
485.869879	42959.306595
486.238487	42461.280924
486.607036	42540.565671
486.975527	41903.323496
487.343959	41983.505568
487.712333	41939.886985
488.080648	41730.595921
488.448905	42014.102852
488.817104	41694.876826
489.185244	42457.006026
489.553326	43836.898383
489.921350	46244.674447
490.289315	48922.376574
490.657222	49362.635663
491.025070	49480.825515
491.392861	48399.114887
491.760593	46979.931777
492.128267	45175.087795
492.495883	43559.498810
492.863440	42079.161463
493.230939	40651.113483
493.598380	39464.325045
493.965763	38965.223088
494.333088	38038.308651
494.700354	37409.286077
495.067563	36921.130985
495.434713	36607.175485
495.801805	36453.601775
496.168839	35904.461324
496.535815	35412.182569
496.902733	35219.330708
497.269593	34646.358203
497.636395	34357.626117
498.003139	34446.632729
498.369825	33783.443735
498.736453	33795.882782
499.103023	33176.198945
499.469535	32829.359999
499.835989	32661.320697
500.202385	32143.599238
500.568723	31914.811512
500.935003	31782.955092
501.301226	31379.481303
501.667390	31584.313466
502.033497	31539.558102
502.399546	30825.753403
502.765537	30061.189325
503.131470	30088.222513
503.497345	30068.995552
503.863163	28808.785228
504.228923	28982.001795
504.594625	28993.210801
504.960269	28194.739922
505.325856	28407.947962
505.691385	27675.483432
506.056856	27480.720974
506.422270	27491.887130
506.787625	26914.148214
507.152924	26757.131395
507.518164	26537.415225
507.883347	25724.423303
508.248472	25596.383037
508.613540	25599.264056
508.978550	25495.691030
509.343503	25031.501583
509.708398	24855.439285
510.073236	24859.704102
510.438016	24552.533995
510.802738	23925.048973
511.167403	23989.981555
511.532010	23816.185255
511.896561	23669.674201
512.261053	23836.692669
512.625488	23260.440894
512.989866	22884.501887
513.354186	22479.530875
513.718449	22179.962828
514.082655	22215.729815
514.446803	21750.237230
514.810894	21696.188499
515.174927	21352.127229
515.538904	20991.919142
515.902822	21010.589056
516.266684	20459.419541
516.630488	20344.662715
516.994235	19979.630244
517.357925	19939.306055
517.721558	19710.067145
518.085133	19541.165806
518.448651	19309.497061
518.812112	18915.457791
519.175516	18670.944185
519.538863	18524.861629
519.902152	18216.915185
520.265385	18110.070449
520.628560	17826.026636
520.991678	17464.656564
521.354739	17271.600536
521.717743	17108.246987
522.080690	16807.970658
522.443580	16715.427676
522.806413	16482.107953
523.169189	16195.646906
523.531908	15990.698796
523.894569	15684.468865
524.257174	15486.837990
524.619722	15325.972250
524.982213	15073.349949
525.344647	14808.951512
525.707025	14584.728550
526.069345	14455.448160
526.431608	14214.165934
526.793815	14062.154981
527.155964	13708.946537
527.518057	13526.081202
527.880093	13249.100045
528.242072	13168.910410
528.603995	12864.525541
528.965860	12655.083243
529.327669	12464.247843
529.689421	12240.108061
530.051117	12028.177953
530.412755	11861.504804
530.774337	11687.635408
531.135862	11458.618310
531.497331	11313.445682
531.858743	11108.084197
532.220098	11005.037972
532.581396	10768.570048
532.942638	10529.120281
533.303824	10423.969374
533.664953	10252.842365
534.026025	10044.965345
534.387040	9966.598088
534.747999	9800.000556
535.108902	9674.526237
535.469748	9444.997461
535.830537	9320.622114
536.191270	9200.526706
536.551947	9005.965893
536.912567	8920.551103
537.273131	8801.421076
537.633638	8594.814427
537.994089	8513.004062
538.354483	8327.353489
538.714821	8280.909339
539.075103	8203.464613
539.435328	8050.395017
539.795497	7917.792507
540.155609	7794.518651
540.515665	7737.009168
540.875665	7562.257570
541.235609	7479.660785
541.595496	7373.814198
541.955328	7339.615010
542.315102	7167.303331
542.674821	7042.295318
543.034483	6945.409382
543.394090	6845.778538
543.753640	6742.810450
544.113134	6749.172387
544.472571	6563.363018
544.831953	6584.119968
545.191278	6424.116266
545.550548	6306.856507
545.909761	6265.715650
546.268918	6195.535227
546.628019	6135.308562
546.987064	6023.389906
547.346053	5881.476384
547.704986	5870.920208
548.063863	5762.646305
548.422684	5699.591553
548.781449	5617.072906
549.140158	5567.931738
549.498811	5494.504812
549.857408	5385.681423
550.215949	5366.557806
550.574434	5294.181961
550.932864	5214.808993
551.291237	5195.816446
551.649555	5110.535247
552.007817	5064.479265
552.366022	4985.786853
552.724173	4938.132826
553.082267	4897.518770
553.440305	4859.029561
553.798288	4771.694091
554.156215	4729.706320
554.514086	4688.920865
554.871902	4623.416112
555.229661	4576.465326
555.587365	4516.722612
555.945014	4472.204182
556.302606	4421.318775
556.660143	4385.410636
557.017625	4347.763299
557.375050	4289.817756
557.732421	4260.281636
558.089735	4217.953588
558.446994	4174.340045
558.804197	4147.853823
559.161345	4109.178091
559.518437	4041.883728
559.875474	4016.441024
560.232455	3983.373576
560.589381	3954.311324
560.946251	3911.595107
561.303065	3897.318559
561.659825	3856.417157
562.016528	3814.885611
562.373177	3777.129890
562.729770	3759.316973
563.086307	3717.820715
563.442789	3700.118703
563.799216	3679.671783
564.155587	3644.925630
564.511904	3619.664408
564.868164	3596.681788
565.224370	3579.650249
565.580520	3546.287893
565.936615	3533.521171
566.292654	3505.406656
566.648638	3487.712206
567.004567	3465.306798
567.360441	3450.074952
567.716260	3426.830191
568.072023	3413.468613
568.427732	3396.363978
568.783385	3368.645193
569.138982	3360.284440
569.494525	3347.744570
569.850013	3324.822443
570.205445	3313.613437
570.560823	3300.138433
570.916145	3287.278450
571.271412	3276.586162
571.626625	3257.008842
571.981782	3247.002151
572.336884	3230.767115
572.691931	3225.095817
573.046923	3209.916903
573.401860	3194.803524
573.756743	3184.113757
574.111570	3175.344670
574.466342	3164.410407
574.821059	3159.858245
575.175722	3142.373003
575.530330	3133.661889
575.884882	3120.781741
576.239380	3112.325206
576.593823	3105.502004
576.948211	3095.611260
577.302544	3083.908221
577.656823	3077.735328
578.011047	3075.013105
578.365216	3064.277968
578.719330	3056.726320
579.073389	3049.625855
579.427394	3046.326419
579.781344	3035.699667
580.135239	3027.182638
580.489080	3022.244828
580.842866	3011.839886
581.196597	3013.112777
581.550273	3007.433918
581.903895	2998.770695
582.257463	3000.807321
582.610975	2986.578664
582.964434	2986.256030
583.317837	2975.024339
583.671186	2973.648104
584.024481	2967.926395
584.377721	2960.614201
584.730906	2959.827781
585.084037	2953.440639
585.437113	2944.457303
585.790135	2941.220882
586.143103	2933.976744
586.496016	2932.950869
586.848874	2925.280754
587.201679	2922.956782
587.554428	2913.252561
587.907124	2911.785585
588.259765	2903.513052
588.612352	2908.529000
588.964884	2895.225395
589.317362	2895.381670
589.669786	2891.436968
590.022155	2885.621997
590.374470	2887.940927
590.726731	2876.232847
591.078937	2869.855788
591.431090	2866.788246
591.783188	2861.424458
592.135232	2853.587984
592.487222	2851.687469
592.839157	2851.163189
593.191038	2847.868795
593.542866	2840.715398
593.894639	2831.313646
594.246358	2835.631394
594.598022	2826.549756
594.949633	2822.138746
595.301190	2817.150524
595.652692	2812.994093
596.004141	2813.835966
596.355535	2805.487815
596.706876	2797.336269
597.058162	2797.830302
597.409395	2797.933646
597.760573	2794.689663
598.111698	2790.031637
598.462768	2787.238838
598.813785	2784.473765
599.164748	2777.847168
599.515657	2777.280039
599.866511	2770.108997
600.217312	2772.904317
600.568060	2761.334869
600.918753	2767.263266
601.269392	2764.576331
601.619978	2757.024682
601.970510	2759.767070
602.320988	2756.049219
602.671412	2756.069384
603.021783	2752.243148
603.372100	2748.230390
603.722363	2745.276273
604.072572	2743.852147
604.422728	2746.057652
604.772830	2736.313102
605.122878	2733.331259
605.472872	2732.381002
605.822813	2732.849829
606.172701	2733.548029
606.522534	2731.289592
606.872314	2731.806310
607.222041	2727.488562
607.571714	2727.922101
607.921333	2721.918087
608.270899	2722.288612
608.620411	2721.015721
608.969870	2720.625031
609.319276	2718.885833
609.668627	2720.514126
610.017926	2719.699979
610.367171	2716.060266
610.716362	2713.847200
611.065500	2715.034392
611.414585	2712.070193
611.763616	2714.729402
612.112594	2714.237889
612.461518	2709.675645
612.810389	2710.310830
613.159207	2708.143134
613.507971	2708.057435
613.856682	2709.715974
614.205340	2706.230016
614.553945	2709.736139
614.902496	2705.390664
615.250994	2707.487784
615.599439	2703.190201
615.947830	2708.317054
616.296169	2703.490149
616.644454	2703.477546
616.992686	2702.386137
617.340864	2703.946374
617.688990	2701.077957
618.037063	2702.338246
618.385082	2701.103163
618.733048	2702.938143
619.080961	2700.704912
619.428821	2700.087370
619.776628	2698.756506
620.124382	2696.447657
620.472083	2695.426824
620.819731	2696.639221
621.167326	2690.851977
621.514868	2690.468849
621.862357	2687.461801
622.209793	2686.143539
622.557176	2682.045081
622.904506	2678.402847
623.251783	2674.576611
623.599007	2672.802125
623.946179	2671.120900
624.293297	2668.232319
624.640363	2669.651404
624.987376	2665.507576
625.334336	2662.878614
625.681243	2665.084119
626.028097	2660.181597
626.374899	2660.877276
626.721647	2656.375525
627.068343	2659.185969
627.414987	2656.519198
627.761577	2652.566934
628.108115	2652.813950
628.454600	2651.394865
628.801032	2651.732623
629.147412	2651.568785
629.493739	2649.879999
629.840014	2645.789102
630.186236	2646.933444
630.532405	2644.427991
630.878521	2642.535037
631.224585	2644.949750
631.570597	2642.877836
631.916556	2640.291724
632.262462	2641.766262
632.608316	2640.261477
632.954117	2638.348359
633.299866	2639.648977
633.645562	2638.683596
633.991206	2633.690333
634.336797	2631.918367
634.682336	2632.493059
635.027823	2629.518778
635.373257	2626.655403
635.718639	2626.602471
636.063968	2625.773201
636.409245	2621.352109
636.754470	2621.526029
637.099642	2620.182561
637.444762	2616.752056
637.789829	2615.811881
638.134845	2614.072683
638.479808	2615.378342
638.824719	2613.966819
639.169577	2608.613113
