Dividing Wavelength (nm)	Counts (n)	Blue Motor Position (mm): 0.000000	Red Motor Position (mm): 38.800000	
326.493990	1992.899185
326.888308	1992.899185
327.282561	1992.899185
327.676750	1972.185084
328.070874	1971.002934
328.464933	1979.093986
328.858929	1986.670840
329.252859	1998.668786
329.646726	2012.214366
330.040528	2027.791532
330.434265	2047.399100
330.827938	2067.160423
331.221547	2084.771694
331.615091	2105.082503
332.008571	2126.971193
332.401986	2148.660757
332.795338	2169.437873
333.188625	2187.555779
333.581847	2207.246526
333.975006	2224.658672
334.368100	2242.549727
334.761129	2259.034300
335.154095	2277.807557
335.546996	2299.262708
335.939833	2346.828515
336.332606	2359.562469
336.725315	2371.409181
337.117960	2379.228010
337.510540	2387.392159
337.903056	2396.272152
338.295508	2401.963614
338.687896	2411.829152
339.080220	2416.177148
339.472480	2424.616039
339.864676	2426.206523
340.256807	2431.315733
340.648875	2430.236926
341.040879	2434.955446
341.432818	2434.010229
341.824694	2436.828234
342.216506	2434.441248
342.608253	2436.792946
342.999937	2433.617019
343.391557	2435.764551
343.783113	2430.526792
344.174605	2433.364962
344.566033	2428.018818
344.957397	2431.154416
345.348697	2425.730134
345.739934	2424.396749
346.131106	2421.828281
346.522215	2422.370205
346.913260	2419.990780
347.304241	2423.265010
347.695159	2416.151942
348.086012	2418.581778
348.476802	2412.418967
348.867528	2411.249420
349.258191	2411.824111
349.648789	2412.739081
350.039324	2409.527866
350.429796	2410.006775
350.820203	2409.323699
351.210548	2406.828328
351.600828	2409.696744
351.991045	2408.025602
352.381198	2409.464851
352.771288	2407.075344
353.161314	2410.299162
353.551276	2404.940416
353.941175	2411.065418
354.331010	2406.659449
354.720782	2410.069790
355.110490	2409.684141
355.500135	2409.691703
355.889717	2412.020716
356.279235	2408.166754
356.668689	2410.072310
357.058080	2410.616755
357.447408	2409.941240
357.836672	2409.966446
358.225873	2410.773031
358.615010	2411.594739
359.004084	2414.674884
359.393095	2416.908115
359.782043	2415.819226
360.170927	2417.119843
360.559748	2417.684452
360.948505	2420.187385
361.337199	2420.162180
361.725830	2420.298291
362.114398	2421.137643
362.502903	2422.413055
362.891344	2423.489341
363.279722	2421.087231
363.668037	2425.929260
364.056289	2426.995464
364.444478	2427.471853
364.832603	2425.616708
365.220665	2428.185176
365.608665	2429.037131
365.996601	2430.481422
366.384474	2433.133068
366.772284	2432.568459
367.160031	2434.151382
367.547715	2432.482760
367.935336	2435.265477
368.322893	2434.710950
368.710388	2435.275559
369.097820	2440.956939
369.485189	2440.253698
369.872495	2442.870057
370.259738	2443.348967
370.646918	2448.349791
371.034035	2448.168310
371.421090	2452.798610
371.808081	2454.215174
372.195010	2460.751030
372.581875	2464.209261
372.968678	2469.371403
373.355418	2479.471355
373.742096	2485.460245
374.128710	2504.301558
374.515262	2514.497292
374.901751	2527.374919
375.288177	2547.484082
375.674540	2566.345559
376.060841	2587.115113
376.447079	2611.569750
376.833254	2638.968421
377.219367	2663.876762
377.605417	2700.344469
377.991404	2725.235166
378.377329	2764.067174
378.763191	2801.815334
379.148991	2850.908611
379.534727	2902.711508
379.920402	2951.986266
380.306013	3001.550891
380.691563	3068.434400
381.077049	3126.248872
381.462474	3182.487985
381.847835	3259.879779
382.233134	3331.600274
382.618371	3390.614542
383.003545	3482.716423
383.388657	3570.036769
383.773706	3659.086231
384.158693	3737.259404
384.543618	3831.702901
384.928480	3919.545006
385.313280	4023.909494
385.698017	4128.019403
386.082692	4250.806787
386.467305	4318.184329
386.851856	4447.676448
387.236344	4610.273824
387.620770	4670.984440
388.005133	4794.346516
388.389435	4951.582625
388.773674	5036.422723
389.157851	5170.348537
389.541965	5312.927491
389.926018	5332.441798
390.310008	5518.311661
390.693936	5638.989322
391.077802	5763.427684
391.461606	5896.670421
391.845348	6017.322877
392.229027	6138.900384
392.612645	6366.427822
392.996200	6484.174052
393.379694	6665.073338
393.763125	6896.928606
394.146494	6990.086608
394.529801	7131.622044
394.913047	7379.954323
395.296230	7376.869137
395.679351	7437.010103
396.062410	7708.851803
396.445408	7595.294772
396.828343	7756.473063
397.211217	7897.159064
397.594028	7779.269161
397.976778	7988.913105
398.359466	8159.427613
398.742092	8130.103221
399.124656	8285.726161
399.507158	8468.606620
399.889598	8495.871700
400.271977	8713.518477
400.654294	8742.311027
401.036549	8942.999361
401.418742	8969.866191
401.800874	9281.936299
402.182944	9365.390080
402.564952	9735.695598
402.946898	9556.409482
403.328783	9616.668914
403.710606	9817.082506
404.092367	10078.738555
404.474067	10457.402306
404.855705	10232.627338
405.237282	10183.423156
405.618797	10629.504778
406.000250	10884.035156
406.381642	11249.997719
406.762972	11198.451921
407.144240	10995.003555
407.525447	11260.818556
407.906593	11193.251971
408.287677	11458.640995
408.668700	11620.872887
409.049661	11590.449524
409.430560	11752.081519
409.811399	11724.680327
410.192176	11882.473484
410.572891	11970.222328
410.953545	12468.621044
411.334138	11933.542893
411.714669	12550.096173
412.095139	11835.850373
412.475547	12349.203672
412.855894	12192.786750
413.236180	12531.776620
413.616405	12209.709903
413.996568	12490.817245
414.376670	12466.667597
414.756711	12332.136845
415.136691	12632.156075
415.516609	12817.317656
415.896466	12884.485990
416.276262	13187.706352
416.655997	13628.277993
417.035670	13657.045337
417.415283	14323.652234
417.794834	14417.992387
418.174324	14163.812369
418.553753	14057.902768
418.933121	14563.616198
419.312428	14368.016908
419.691674	14285.810812
420.070859	14742.254526
420.449983	14399.874480
420.829045	14943.852789
421.208047	14695.011352
421.586988	15165.434185
421.965867	15420.884574
422.344686	15415.049439
422.723444	16001.103738
423.102141	14657.429551
423.480777	15866.925867
423.859352	15372.023191
424.237866	16506.340779
424.616319	16193.209508
424.994712	16871.647993
425.373044	16658.681928
425.751314	17341.773398
426.129524	16449.932788
426.507673	17573.744612
426.885762	17253.817866
427.263789	17468.470197
427.641756	17637.235424
428.019662	17701.116926
428.397508	17748.864215
428.775292	18066.908090
429.153016	18009.033123
429.530679	18103.395962
429.908282	18122.010422
430.285824	17836.638265
430.663305	18557.798008
431.040726	18152.537129
431.418086	17968.353533
431.795385	18626.597155
432.172624	19057.078926
432.549802	18610.470504
432.926920	18787.261248
433.303977	18673.691614
433.680974	18944.648592
434.057910	19228.006809
434.434786	19258.273896
434.811601	19172.453293
435.188355	20232.915458
435.565050	19867.381392
435.941683	19820.735596
436.318257	20712.969415
436.694770	20519.154693
437.071222	21131.377622
437.447614	20180.568116
437.823946	20214.434588
438.200218	20375.801922
438.576429	20140.032198
438.952580	20409.880122
439.328670	20366.248936
439.704700	20798.202723
440.080670	20356.327945
440.456580	20955.111158
440.832429	21144.877832
441.208218	20108.524986
441.583947	20574.987993
441.959616	20671.770585
442.335224	20923.190571
442.710773	21046.343439
443.086261	21593.389290
443.461689	20953.782813
443.837057	21080.411557
444.212365	21744.124831
444.587612	21734.828943
444.962800	21301.710649
445.337927	21722.047098
445.712995	20429.709501
446.088002	22327.217452
446.462949	22528.157845
446.837837	22696.348381
447.212664	22659.830263
447.587431	25543.839090
447.962139	28539.320432
448.336786	30946.705807
448.711374	29373.018893
449.085901	25618.574196
449.460369	25557.858539
449.834776	25477.537835
450.209124	28001.517537
450.583412	27526.555145
450.957640	28065.729234
451.331808	26693.559924
451.705917	25305.969725
452.079965	25335.573901
452.453954	25709.430912
452.827883	25579.202784
453.201752	25387.712035
453.575562	25551.902416
453.949311	26693.232249
454.323001	26757.753977
454.696632	26508.030339
455.070202	28098.211908
455.443713	28227.630931
455.817164	28846.215796
456.190556	29377.165242
456.563888	28812.881166
456.937160	29251.577497
457.310373	27552.585142
457.683526	28025.014355
458.056619	27998.986877
458.429653	27939.687785
458.802628	28515.841258
459.175542	28641.897830
459.548398	29941.938310
459.921194	31541.977856
460.293930	32222.962123
460.666607	34270.212509
461.039224	36049.611267
461.411782	36467.941337
461.784280	35249.892703
462.156719	34773.536432
462.529099	34217.822318
462.901419	32905.962852
463.273680	31840.265450
463.645882	31917.337130
464.018024	31892.670764
464.390106	32741.485126
464.762130	35455.390299
465.134094	39548.726563
465.505999	44885.022323
465.877845	49520.060815
466.249631	50702.811290
466.621358	49026.362975
466.993026	46897.274498
467.364634	44839.180591
467.736184	42831.689785
468.107674	41586.118973
468.479105	40780.373709
468.850477	40066.163197
469.221790	38611.689489
469.593043	36842.597370
469.964238	35959.278831
470.335373	35868.981684
470.706449	37609.190512
471.077467	40218.199356
471.448425	44813.548844
471.819324	47654.173501
472.190164	45816.178891
472.560945	42232.263826
472.931667	39102.203841
473.302330	37959.333935
473.672934	37131.357183
474.043479	37633.955180
474.413965	36839.549992
474.784393	36446.899561
475.154761	37356.759774
475.525070	37385.885041
475.895321	36917.254338
476.265513	37515.649382
476.635645	38519.559882
477.005719	38336.089608
477.375734	38810.429418
477.745691	39489.954271
478.115588	40862.945289
478.485427	42839.516177
478.855207	46236.762357
479.224928	48844.382362
479.594591	50479.248719
479.964194	49512.241986
480.333739	49674.662922
480.703226	49703.712571
481.072653	50339.107163
481.442022	50813.817497
481.811333	51088.515012
482.180584	49798.909720
482.549777	49278.718096
482.918912	48723.810565
483.287988	48438.342626
483.657005	47608.268754
484.025964	46960.394785
484.394864	46964.278994
484.763706	46543.768626
485.132489	45660.777762
485.501213	45483.659342
485.869879	45646.208828
486.238487	45235.460653
486.607036	45426.734633
486.975527	44889.438374
487.343959	45080.876191
487.712333	45167.175704
488.080648	45069.110138
488.448905	45531.744388
488.817104	45356.208891
489.185244	46280.948070
489.553326	47972.955906
489.921350	50687.750842
490.289315	53536.784144
490.657222	54127.965297
491.025070	54393.399691
491.392861	53512.679867
491.760593	52291.336840
492.128267	50635.315281
492.495883	49110.159555
492.863440	47719.501814
493.230939	46342.694643
493.598380	45242.361993
493.965763	44908.975366
494.333088	44079.788737
494.700354	43596.120272
495.067563	43275.762507
495.434713	43154.800021
495.801805	43220.781163
496.168839	42828.498735
496.535815	42476.285919
496.902733	42511.652133
497.269593	42095.393978
497.636395	42015.801721
498.003139	42432.085082
498.369825	41866.724719
498.736453	42174.149404
499.103023	41710.070863
499.469535	41573.939545
499.835989	41668.685511
500.202385	41327.631288
500.568723	41337.012876
500.935003	41532.687783
501.301226	41318.922695
501.667390	41939.705503
502.033497	42194.792929
502.399546	41621.457461
502.765537	40926.877202
503.131470	41308.046406
503.497345	41672.569720
503.863163	40322.919245
504.228923	40939.122164
504.594625	41357.353932
504.960269	40643.904633
505.325856	41329.965343
505.691385	40677.347648
506.056856	40827.284166
506.422270	41261.352718
506.787625	40844.582886
507.152924	41027.133149
507.518164	41127.391617
507.883347	40321.142238
508.248472	40608.518254
508.613540	41057.105329
508.978550	41378.559545
509.343503	41106.281785
509.708398	41301.863431
510.073236	41843.835360
510.438016	41834.347908
510.802738	41296.991155
511.167403	41925.484408
511.532010	42152.333811
511.896561	42458.591469
512.261053	43318.486286
512.625488	42832.418232
512.989866	42718.878845
513.354186	42546.927608
513.718449	42550.766446
514.082655	43229.313316
514.446803	42908.645519
514.810894	43428.753965
515.174927	43345.033002
515.538904	43227.483377
515.902822	43927.916416
516.266684	43357.192265
516.630488	43805.164319
516.994235	43640.840348
517.357925	44205.802460
517.721558	44380.609510
518.085133	44692.992170
518.448651	44824.868755
518.812112	44593.464670
519.175516	44697.075505
519.538863	45042.099636
519.902152	44987.405637
520.265385	45461.831146
520.628560	45490.502709
520.991678	45281.612417
521.354739	45521.094951
521.717743	45833.422158
522.080690	45728.631693
522.443580	46278.881197
522.806413	46324.181005
523.169189	46264.897036
523.531908	46456.697817
523.894569	46316.117680
524.257174	46488.265522
524.619722	46783.777960
524.982213	46759.058663
525.344647	46678.097732
525.707025	46715.916468
526.069345	47095.807739
526.431608	47020.830658
526.793815	47355.729632
527.155964	46870.304325
527.518057	47033.519243
527.880093	46802.621793
528.242072	47333.387238
528.603995	47031.003707
528.965860	47044.400573
529.327669	47135.272412
529.689421	47044.340079
530.051117	46977.040675
530.412755	47118.213148
530.774337	47174.847991
531.135862	46970.111609
531.497331	47167.440015
531.858743	47091.991586
532.220098	47417.163653
532.581396	47133.891136
532.942638	46789.847510
533.303824	47066.750529
533.664953	47032.294242
534.026025	46751.680934
534.387040	47233.211949
534.747999	47163.356680
535.108902	47333.830859
535.469748	46857.283025
535.830537	46944.900799
536.191270	47129.926269
536.551947	46787.831048
536.912567	47087.320957
537.273131	47208.497692
537.633638	46668.932914
537.994089	47013.326901
538.354483	46610.342103
538.714821	47172.236673
539.075103	47493.494284
539.435328	47254.934281
539.795497	47154.065834
540.155609	47115.009494
540.515665	47567.450532
540.875665	47015.537447
541.235609	47323.067996
541.595496	47303.261302
541.955328	47967.244278
542.315102	47313.560380
542.674821	47109.711242
543.034483	47131.569685
543.394090	47095.134745
543.753640	47048.350317
544.113134	48035.103250
544.472571	47053.404074
544.831953	48252.651724
545.191278	47451.483828
545.550548	47165.728543
545.909761	47606.252293
546.268918	47787.862381
546.628019	48093.530223
546.987064	47620.294427
547.346053	46873.565952
547.704986	47741.398066
548.063863	47273.198382
548.422684	47459.736197
548.781449	47293.133624
549.140158	47658.322371
549.498811	47490.293151
549.857408	46907.692042
550.215949	47703.702838
550.574434	47614.454250
550.932864	47335.872527
551.291237	48053.586641
551.649555	47611.212788
552.007817	47824.471240
552.366022	47441.527550
552.724173	47590.523893
553.082267	47958.820510
553.440305	48214.767453
553.798288	47501.812188
554.156215	47780.315773
554.514086	47947.344324
554.871902	47668.452569
555.229661	47648.272831
555.587365	47430.600849
555.945014	47473.107858
556.302606	47350.897686
556.660143	47526.470992
557.017625	47574.891275
557.375050	47331.365735
557.732421	47622.399108
558.089735	47553.597441
558.446994	47417.231709
558.804197	47847.829426
559.161345	47752.105476
559.518437	46927.526462
559.875474	47183.365020
560.232455	47288.379816
560.589381	47401.102537
560.946251	47066.921928
561.303065	47670.433743
561.659825	47406.564627
562.016528	47021.717901
562.373177	46691.262705
562.729770	47086.826924
563.086307	46547.887248
563.442789	46923.443128
563.799216	46918.845595
564.155587	46634.048129
564.511904	46570.171669
564.868164	46577.778770
565.224370	46767.638706
565.580520	46419.247085
565.936615	46542.231074
566.292654	46181.355035
566.648638	46337.136771
567.004567	46206.336473
567.360441	46158.606828
567.716260	45935.896213
568.072023	46110.284848
568.427732	45991.772362
568.783385	45466.390870
569.138982	45751.480723
569.494525	45609.201717
569.850013	45291.838397
570.205445	45165.318039
570.560823	45016.437642
570.916145	44808.414429
571.271412	44735.536988
571.626625	44378.048604
571.981782	44316.433101
572.336884	43925.768884
572.691931	44106.912665
573.046923	43626.543636
573.401860	43366.755334
573.756743	43243.176489
574.111570	43251.328034
574.466342	42974.843431
574.821059	42949.776294
575.175722	42401.742377
575.530330	42288.157619
575.884882	41909.866914
576.239380	41765.367280
576.593823	41612.090997
576.948211	41411.057343
577.302544	40861.937058
577.656823	40744.760478
578.011047	40808.924284
578.365216	40431.818250
578.719330	40122.278801
579.073389	39847.616575
579.427394	39785.423860
579.781344	39622.466041
580.135239	39180.414822
580.489080	39112.984348
580.842866	38504.073457
581.196597	38769.517934
581.550273	38562.245852
581.903895	38293.877507
582.257463	38497.998867
582.610975	37798.460633
582.964434	37884.659323
583.317837	37431.484798
583.671186	37155.496748
584.024481	37180.112702
584.377721	36640.449621
584.730906	36738.973932
585.084037	36602.033508
585.437113	36228.932671
585.790135	36101.716633
586.143103	35627.132328
586.496016	35564.054890
586.848874	35433.569664
587.201679	35280.391684
587.554428	34713.156012
587.907124	34685.583421
588.259765	34306.322294
588.612352	34365.719689
588.964884	33715.244485
589.317362	33773.696664
589.669786	33565.645724
590.022155	33228.344641
590.374470	33389.739702
590.726731	32873.089488
591.078937	32328.705366
591.431090	32240.659094
591.783188	31832.295385
592.135232	31439.012289
592.487222	31463.330815
592.839157	31359.853570
593.191038	30951.396601
593.542866	30615.275147
593.894639	30011.624701
594.246358	30048.750278
594.598022	29876.446160
594.949633	29441.356775
595.301190	29243.483924
595.652692	28967.619383
596.004141	29018.083854
596.355535	28177.231995
596.706876	27982.494743
597.058162	27712.656901
597.409395	27881.596048
597.760573	27762.980219
598.111698	27311.048338
598.462768	27166.170618
598.813785	27021.239965
599.164748	26492.468297
599.515657	26592.411693
599.866511	26085.783293
600.217312	26319.160990
600.568060	25496.316133
600.918753	25807.773741
601.269392	25602.888646
601.619978	25230.473405
601.970510	25215.329779
602.320988	25147.622042
602.671412	25164.822459
603.021783	24856.480284
603.372100	24481.947759
603.722363	24389.876125
604.072572	24273.475883
604.422728	24120.557522
604.772830	23840.715510
605.122878	23730.331885
605.472872	23529.825032
605.822813	23540.005642
606.172701	23265.605556
606.522534	23234.637748
606.872314	23234.070618
607.222041	22915.537750
607.571714	22973.868942
607.921333	22490.787771
608.270899	22497.815140
608.620411	22511.201924
608.969870	22249.056883
609.319276	22074.005336
609.668627	21946.267539
610.017926	22034.807844
610.367171	21960.879323
610.716362	21841.151919
611.065500	21638.774798
611.414585	21567.260990
611.763616	21549.077548
612.112594	21347.703616
612.461518	21301.690484
612.810389	21278.412957
613.159207	21050.351157
613.507971	20929.665933
613.856682	20985.393369
614.205340	20780.258736
614.553945	20937.275555
614.902496	20516.029178
615.250994	20580.873540
615.599439	20447.494692
615.947830	20386.453880
616.296169	20234.884028
616.644454	20136.049686
616.992686	20044.792199
617.340864	20112.361304
617.688990	19820.954886
618.037063	19927.088818
618.385082	19750.925697
618.733048	19736.691999
619.080961	19585.533001
619.428821	19429.413508
619.776628	19323.856787
620.124382	19100.581563
620.472083	19002.200925
620.819731	18908.889167
621.167326	18634.723495
621.514868	18468.793916
621.862357	18149.542684
622.209793	18011.006735
622.557176	17740.080004
622.904506	17497.741656
623.251783	17234.361533
623.599007	17002.246645
623.946179	16778.038807
624.293297	16625.238913
624.640363	16288.630989
624.987376	16139.463246
625.334336	15923.636327
625.681243	15671.402194
626.028097	15527.535225
626.374899	15352.234141
626.721647	15207.127048
627.068343	15046.369693
627.414987	14859.078225
627.761577	14664.658565
628.108115	14643.352128
628.454600	14347.295245
628.801032	14295.492348
629.147412	14168.034335
629.493739	14052.969999
629.840014	13830.546729
630.186236	13826.518847
630.532405	13602.212707
630.878521	13552.315366
631.224585	13412.771187
631.570597	13223.115417
631.916556	13163.491170
632.262462	13044.151935
632.608316	12939.182509
632.954117	12802.221921
633.299866	12698.182588
633.645562	12565.325499
633.991206	12334.859068
634.336797	12116.519133
634.682336	12013.172959
635.027823	11849.963083
