Dividing Wavelength (nm)	Counts (n)	Blue Motor Position (mm): 0.000000	Red Motor Position (mm): 33.200000	
326.493990	1990.726448
326.888308	1990.726448
327.282561	1990.726448
327.676750	1964.230143
328.070874	1967.874898
328.464933	1974.136011
328.858929	1983.951137
329.252859	1995.397077
329.646726	2007.485764
330.040528	2023.372960
330.434265	2044.931455
330.827938	2063.510627
331.221547	2081.487382
331.615091	2103.348346
332.008571	2123.578496
332.401986	2145.880561
332.795338	2164.270690
333.188625	2184.982270
333.581847	2202.558253
333.975006	2221.563403
334.368100	2240.578636
334.761129	2257.073291
335.154095	2271.596855
335.546996	2295.559980
335.939833	2327.127685
336.332606	2343.269460
336.725315	2352.393948
337.117960	2364.008767
337.510540	2369.796012
337.903056	2382.527446
338.295508	2385.068187
338.687896	2393.368447
339.080220	2400.380692
339.472480	2406.931671
339.864676	2411.642630
340.256807	2411.567012
340.648875	2415.864596
341.040879	2416.126736
341.432818	2415.630182
341.824694	2418.808630
342.216506	2418.554052
342.608253	2418.508681
342.999937	2417.543300
343.391557	2414.576581
343.783113	2414.117836
344.174605	2415.637744
344.566033	2410.016857
344.957397	2413.187743
345.348697	2408.970818
345.739934	2408.275139
346.131106	2403.440672
346.522215	2403.816238
346.913260	2403.861609
347.304241	2401.918244
347.695159	2399.143089
348.086012	2398.308778
348.476802	2394.371637
348.867528	2396.473798
349.258191	2395.586555
349.648789	2395.039589
350.039324	2392.914743
350.429796	2397.718963
350.820203	2391.898951
351.210548	2390.747047
351.600828	2385.791593
351.991045	2392.032541
352.381198	2391.563714
352.771288	2390.404248
353.161314	2388.143291
353.551276	2390.321069
353.941175	2389.912736
354.331010	2390.815103
354.720782	2388.304608
355.110490	2391.268806
355.500135	2390.482386
355.889717	2392.410628
356.279235	2392.057747
356.668689	2393.325597
357.058080	2396.993037
357.447408	2393.315515
357.836672	2390.918446
358.225873	2394.227964
358.615010	2390.651265
359.004084	2398.359189
359.393095	2398.243243
359.782043	2398.293654
360.170927	2402.230795
360.559748	2400.962945
360.948505	2399.019580
361.337199	2402.709705
361.725830	2404.300189
362.114398	2405.837741
362.502903	2404.476629
362.891344	2405.673903
363.279722	2404.650549
363.668037	2409.268246
364.056289	2409.575757
364.444478	2410.490726
364.832603	2409.628689
365.220665	2410.861251
365.608665	2413.250758
365.996601	2409.517783
366.384474	2415.652868
366.772284	2415.214287
367.160031	2416.247724
367.547715	2418.498599
367.935336	2416.928279
368.322893	2416.915677
368.710388	2419.874834
369.097820	2422.574372
369.485189	2423.247366
369.872495	2423.887592
370.259738	2423.207037
370.646918	2429.460588
371.034035	2429.722728
371.421090	2432.702050
371.808081	2436.321598
372.195010	2443.222938
372.581875	2447.253340
372.968678	2452.962447
373.355418	2459.959569
373.742096	2470.089767
374.128710	2484.948568
374.515262	2494.241935
374.901751	2509.927486
375.288177	2525.807120
375.674540	2550.113043
376.060841	2568.273800
376.447079	2597.152050
376.833254	2623.797069
377.219367	2645.784061
377.605417	2682.564320
377.991404	2709.514328
378.377329	2751.809609
378.763191	2783.722633
379.148991	2833.766167
379.534727	2883.441698
379.920402	2931.241918
380.306013	2983.748056
380.691563	3045.275339
381.077049	3103.296499
381.462474	3162.613236
381.847835	3238.306161
382.233134	3312.920279
382.618371	3371.236347
383.003545	3457.372022
383.388657	3540.934188
383.773706	3635.639825
384.158693	3708.353428
384.543618	3806.050989
384.928480	3884.488822
385.313280	3991.643589
385.698017	4100.754322
386.082692	4226.175710
386.467305	4288.708703
386.851856	4411.619595
387.236344	4575.923402
387.620770	4638.761384
388.005133	4763.166979
388.389435	4914.898148
388.773674	4999.390407
389.157851	5134.004338
389.541965	5270.975009
389.926018	5296.155572
390.310008	5481.639787
390.693936	5601.702427
391.077802	5725.077106
391.461606	5856.205079
391.845348	5975.695549
392.229027	6097.809939
392.612645	6324.860988
392.996200	6441.185613
393.379694	6619.103056
393.763125	6851.898499
394.146494	6943.239166
394.529801	7089.256187
394.913047	7331.526479
395.296230	7329.552867
395.679351	7392.799183
396.062410	7664.807242
396.445408	7554.237094
396.828343	7710.764921
397.211217	7856.976027
397.594028	7730.125472
397.976778	7942.998276
398.359466	8110.014223
398.742092	8080.946930
399.124656	8237.741938
399.507158	8422.497706
399.889598	8448.683980
400.271977	8658.206937
400.654294	8693.384108
401.036549	8893.033965
401.418742	8921.652595
401.800874	9229.936797
402.182944	9310.002923
402.564952	9687.025778
402.946898	9504.178087
403.328783	9562.622704
403.710606	9762.653168
404.092367	10025.826605
404.474067	10394.985260
404.855705	10183.811325
405.237282	10127.259661
405.618797	10567.206198
406.000250	10816.760958
406.381642	11193.703154
406.762972	11141.199537
407.144240	10940.768301
407.525447	11198.789679
407.906593	11132.564041
408.287677	11394.726726
408.668700	11555.083309
409.049661	11530.636233
409.430560	11695.938189
409.811399	11657.179277
410.192176	11826.322592
410.572891	11901.498798
410.953545	12396.454407
411.334138	11870.251206
411.714669	12484.551091
412.095139	11770.242276
412.475547	12287.999023
412.855894	12134.115281
413.236180	12464.257926
413.616405	12143.212043
413.996568	12426.550095
414.376670	12398.301989
414.756711	12271.184254
415.136691	12563.334243
415.516609	12745.186306
415.896466	12819.311432
416.276262	13103.385493
416.655997	13548.133729
417.035670	13586.887599
417.415283	14251.651954
417.794834	14343.153937
418.174324	14083.065687
418.553753	13989.078415
418.933121	14487.330937
419.312428	14290.889775
419.691674	14201.772257
420.070859	14668.928423
420.449983	14306.960973
420.829045	14878.075813
421.208047	14610.206542
421.586988	15080.636937
421.965867	15339.369117
422.344686	15334.481718
422.723444	15904.061526
423.102141	14567.238267
423.480777	15785.095337
423.859352	15282.255364
424.237866	16414.367448
424.616319	16107.824965
424.994712	16778.792459
425.373044	16570.131540
425.751314	17253.991786
426.129524	16364.608739
426.507673	17469.919528
426.885762	17173.824837
427.263789	17375.707925
427.641756	17546.212351
428.019662	17605.077904
428.397508	17640.454201
428.775292	17954.583621
429.153016	17920.528106
429.530679	17998.000558
429.908282	18018.056789
430.285824	17731.419302
430.663305	18450.479404
431.040726	18044.308597
431.418086	17867.117081
431.795385	18526.784829
432.172624	18945.306463
432.549802	18497.904059
432.926920	18684.557821
433.303977	18564.175067
433.680974	18832.296396
434.057910	19123.728021
434.434786	19154.809255
434.811601	19064.607889
435.188355	20111.292580
435.565050	19759.064640
435.941683	19699.760506
436.318257	20594.159501
436.694770	20401.342928
437.071222	21009.928664
437.447614	20066.217103
437.823946	20096.693398
438.200218	20244.195039
438.576429	20018.961327
438.952580	20302.858947
439.328670	20263.560632
439.704700	20685.215342
440.080670	20237.507949
440.456580	20843.938592
440.832429	21033.173425
441.208218	20000.561115
441.583947	20451.154569
441.959616	20563.146322
442.335224	20795.188113
442.710773	20929.849936
443.086261	21475.461578
443.461689	20831.547436
443.837057	20965.853856
444.212365	21616.550871
444.587612	21606.718101
444.962800	21180.196156
445.337927	21610.017536
445.712995	20325.027421
446.088002	22203.381508
446.462949	22398.111199
446.837837	22576.066450
447.212664	22535.669164
447.587431	25400.148561
447.962139	28359.439460
448.336786	30787.992640
448.711374	29217.584997
449.085901	25483.882127
449.460369	25425.298878
449.834776	25339.574057
450.209124	27852.561523
450.583412	27370.975055
450.957640	27917.640298
451.331808	26552.263944
451.705917	25159.312477
452.079965	25200.022315
452.453954	25573.811270
452.827883	25442.393431
453.201752	25253.577013
453.575562	25413.031230
453.949311	26553.146146
454.323001	26613.055218
454.696632	26362.159512
455.070202	27930.843080
455.443713	28061.325786
455.817164	28660.885336
456.190556	29211.661641
456.563888	28638.820206
456.937160	29096.010010
457.310373	27403.745075
457.683526	27873.295788
458.056619	27848.611779
458.429653	27774.612681
458.802628	28355.761938
459.175542	28472.073960
459.548398	29781.919484
459.921194	31348.962157
460.293930	32036.197456
460.666607	34073.153805
461.039224	35837.229976
461.411782	36247.728613
461.784280	35056.624947
462.156719	34601.658292
462.529099	34021.280332
462.901419	32723.551221
463.273680	31648.010965
463.645882	31729.171022
464.018024	31712.013455
464.390106	32539.738149
464.762130	35235.810240
465.134094	39304.583483
465.505999	44611.713647
465.877845	49231.732021
466.249631	50437.873449
466.621358	48757.530843
466.993026	46656.758527
467.364634	44585.081231
467.736184	42590.410080
468.107674	41338.474810
468.479105	40518.347135
468.850477	39833.818937
469.221790	38381.472596
469.593043	36617.651003
469.964238	35740.265902
470.335373	35641.280326
470.706449	37369.834007
471.077467	39964.258793
471.448425	44535.090629
471.819324	47357.302472
472.190164	45526.957813
472.560945	41952.399129
472.931667	38826.798044
473.302330	37704.808598
473.672934	36880.053143
474.043479	37383.558548
474.413965	36572.706596
474.784393	36205.483744
475.154761	37108.359439
475.525070	37127.717470
475.895321	36661.070461
476.265513	37251.770184
476.635645	38236.869618
477.005719	38046.583705
477.375734	38513.056794
477.745691	39198.981392
478.115588	40569.003170
478.485427	42527.927499
478.855207	45902.511171
479.224928	48496.061317
479.594591	50160.841881
479.964194	49178.537766
480.333739	49335.637764
480.703226	49362.562566
481.072653	49985.238328
481.442022	50465.002419
481.811333	50735.596434
482.180584	49436.264236
482.549777	48917.930277
482.918912	48374.572030
483.287988	48081.902802
483.657005	47242.648989
484.025964	46605.933614
484.394864	46619.169164
484.763706	46178.050558
485.132489	45315.226831
485.501213	45151.648950
485.869879	45305.482280
486.238487	44865.641607
486.607036	45052.217232
486.975527	44517.098751
487.343959	44703.490373
487.712333	44777.199604
488.080648	44700.614395
488.448905	45154.787068
488.817104	44951.522704
489.185244	45907.968220
489.553326	47548.016883
489.921350	50263.520102
490.289315	53120.490701
490.657222	53695.303227
491.025070	53975.866124
491.392861	53087.584569
491.760593	51851.665045
492.128267	50168.504435
492.495883	48647.772321
492.863440	47244.118486
493.230939	45876.793725
493.598380	44774.847906
493.965763	44421.785655
494.333088	43587.762039
494.700354	43077.551900
495.067563	42773.890436
495.434713	42619.036272
495.801805	42664.603262
496.168839	42259.163423
496.535815	41903.545307
496.902733	41899.257805
497.269593	41468.695376
497.636395	41374.420758
498.003139	41744.396080
498.369825	41192.636750
498.736453	41466.129429
499.103023	40978.339821
499.469535	40800.409775
499.835989	40873.017514
500.202385	40496.234114
500.568723	40490.298155
500.935003	40626.414350
501.301226	40390.485830
501.667390	40949.305295
502.033497	41171.771414
502.399546	40548.067258
502.765537	39837.667858
503.131470	40160.752887
503.497345	40451.602258
503.863163	39080.247095
504.228923	39639.868104
504.594625	39974.414197
504.960269	39217.321109
505.325856	39830.534625
505.691385	39148.511880
506.056856	39217.336233
506.422270	39564.281043
506.787625	39077.476981
507.152924	39190.305566
507.518164	39223.287315
507.883347	38364.224288
508.248472	38539.137203
508.613540	38904.313347
508.978550	39115.956108
509.343503	38764.527192
509.708398	38869.670537
510.073236	39278.200604
510.438016	39170.617340
510.802738	38544.982421
511.167403	39039.648163
511.532010	39146.034153
511.896561	39331.442750
512.261053	40001.049133
512.625488	39464.287236
512.989866	39232.810055
513.354186	38953.313362
513.718449	38815.911673
514.082655	39328.254220
514.446803	38885.156962
514.810894	39238.178883
515.174927	39023.854228
515.538904	38794.532139
515.902822	39261.030434
516.266684	38604.987275
516.630488	38852.505408
516.994235	38570.866225
517.357925	38920.898743
517.721558	38930.154301
518.085133	39047.945902
518.448651	39005.650621
518.812112	38633.258066
519.175516	38558.434740
519.538863	38693.852735
519.902152	38482.938420
520.265385	38726.020338
520.628560	38564.937828
520.991678	38211.837769
521.354739	38255.317721
521.717743	38337.755710
522.080690	38053.245590
522.443580	38337.218827
522.806413	38183.191412
523.169189	37949.367573
523.531908	37914.598735
523.894569	37586.948941
524.257174	37539.141159
524.619722	37590.155115
524.982213	37373.849286
525.344647	37102.118491
525.707025	36939.659746
526.069345	37041.420478
526.431608	36768.694055
526.793815	36832.527665
527.155964	36218.452112
527.518057	36143.719527
527.880093	35756.064879
528.242072	35949.594775
528.603995	35489.508828
528.965860	35286.183970
529.327669	35128.363087
529.689421	34823.320347
530.051117	34562.183537
530.412755	34437.682160
530.774337	34260.213380
531.135862	33885.758993
531.497331	33805.937363
531.858743	33499.626773
532.220098	33517.474978
532.581396	33066.576534
532.942638	32578.113932
533.303824	32555.292629
533.664953	32275.861471
534.026025	31852.132326
534.387040	31930.766764
534.747999	31664.366989
535.108902	31537.191280
535.469748	30960.016974
535.830537	30795.128393
536.191270	30678.448367
536.551947	30205.630986
536.912567	30154.488480
537.273131	29998.744552
537.633638	29410.973740
537.994089	29383.070954
538.354483	28876.467760
538.714821	28984.159409
539.075103	28961.058321
539.435328	28550.254694
539.795497	28228.598832
540.155609	27969.110479
540.515665	27988.400454
540.875665	27408.738338
541.235609	27351.680038
541.595496	27082.031240
541.955328	27219.841262
542.315102	26607.167150
542.674821	26232.211168
543.034483	26003.592321
543.394090	25732.524437
543.753640	25464.120804
544.113134	25764.447544
544.472571	24984.954089
544.831953	25405.943368
545.191278	24721.505910
545.550548	24321.571011
545.909761	24318.818541
546.268918	24168.577033
546.628019	24065.510642
546.987064	23606.122895
547.346053	22992.294359
547.704986	23187.455068
548.063863	22722.143965
548.422684	22579.365886
548.781449	22264.470211
549.140158	22203.227753
549.498811	21894.567985
549.857408	21409.296434
550.215949	21533.233201
550.574434	21271.720825
550.932864	20935.649783
551.291237	21014.087616
551.649555	20596.133113
552.007817	20482.008951
552.366022	20096.063254
552.724173	19949.552200
553.082267	19880.669874
553.440305	19769.769530
553.798288	19275.285270
554.156215	19163.008692
554.514086	19033.551861
554.871902	18713.037820
555.229661	18497.188215
555.587365	18203.694759
555.945014	18033.253347
556.302606	17764.700999
556.660143	17643.433523
557.017625	17461.795709
557.375050	17169.330648
557.732421	17078.554591
558.089735	16876.734517
558.446994	16634.655789
558.804197	16591.828666
559.161345	16367.761981
559.518437	15937.338183
559.875474	15826.992366
560.232455	15685.197312
560.589381	15544.062648
560.946251	15264.371871
561.303065	15272.795639
561.659825	15023.089645
562.016528	14747.036060
562.373177	14485.692563
562.729770	14431.797587
563.086307	14132.789108
563.442789	14074.026898
563.799216	13918.862703
564.155587	13684.149101
564.511904	13518.905119
564.868164	13379.003017
565.224370	13263.311057
565.580520	13036.486861
565.936615	12919.585023
566.292654	12674.141325
566.648638	12576.889906
567.004567	12402.213925
567.360441	12256.506935
567.716260	12077.866086
568.072023	11976.871610
568.427732	11837.955054
568.783385	11597.358425
569.138982	11528.231603
569.494525	11382.653162
569.850013	11203.866121
570.205445	11052.208048
570.560823	10918.887173
570.916145	10763.370098
571.271412	10634.596343
571.626625	10465.150559
571.981782	10350.282828
572.336884	10177.610706
572.691931	10101.537174
573.046923	9916.047918
573.401860	9766.358416
573.756743	9654.890943
574.111570	9557.926869
574.466342	9416.522504
574.821059	9321.988266
575.175722	9137.469433
575.530330	9032.235346
575.884882	8885.517605
576.239380	8779.164382
576.593823	8667.896034
576.948211	8558.041730
577.302544	8394.428562
577.656823	8296.927605
578.011047	8233.754386
578.365216	8103.548943
578.719330	7982.520922
579.073389	7876.744911
579.427394	7792.794576
579.781344	7695.482663
580.135239	7572.307110
580.489080	7493.891962
580.842866	7354.640169
581.196597	7321.973492
581.550273	7232.815645
581.903895	7141.285936
582.257463	7109.045236
582.610975	6968.578525
582.964434	6921.549601
583.317837	6810.921480
583.671186	6721.710701
584.024481	6676.151273
584.377721	6553.918416
584.730906	6513.687487
585.084037	6437.351815
585.437113	6345.285223
585.790135	6281.580162
586.143103	6178.397825
586.496016	6120.520337
586.848874	6055.938115
587.201679	5996.903683
587.554428	5891.067179
587.907124	5845.366599
588.259765	5761.391058
588.612352	5727.995934
588.964884	5624.934585
589.317362	5583.677782
589.669786	5528.590573
590.022155	5456.519717
590.374470	5425.859420
590.726731	5340.197613
591.078937	5253.895580
591.431090	5202.679977
591.783188	5130.503257
592.135232	5056.519283
592.487222	5022.647770
592.839157	4975.180266
593.191038	4906.978495
593.542866	4846.920709
593.894639	4765.332155
594.246358	4738.256117
594.598022	4691.761555
594.949633	4625.190598
595.301190	4577.584462
595.652692	4526.086555
596.004141	4501.941948
596.355535	4412.325357
596.706876	4364.588150
597.058162	4320.049556
597.409395	4303.746464
597.760573	4270.734468
598.111698	4214.570973
598.462768	4175.764171
598.813785	4140.753358
599.164748	4084.678083
599.515657	4068.067481
599.866511	4013.403729
600.217312	4005.642873
600.568060	3936.027059
600.918753	3931.011111
601.269392	3897.631111
601.619978	3857.223742
601.970510	3834.110052
602.320988	3812.264211
602.671412	3798.481697
603.021783	3761.961058
603.372100	3726.791448
603.722363	3700.022921
604.072572	3679.215558
604.422728	3654.952485
604.772830	3622.313534
605.122878	3601.387705
605.472872	3578.657142
605.822813	3563.800862
606.172701	3535.499824
606.522534	3522.208822
606.872314	3508.625433
607.222041	3480.919251
607.571714	3470.405925
607.921333	3438.485339
608.270899	3427.563679
608.620411	3416.717637
608.969870	3391.900036
609.319276	3376.705998
609.668627	3357.126157
610.017926	3354.696321
610.367171	3344.344311
610.716362	3326.647341
611.065500	3310.873570
611.414585	3301.502065
611.763616	3290.976136
612.112594	3273.319495
612.461518	3267.020573
612.810389	3258.553955
613.159207	3243.985021
613.507971	3228.334758
613.856682	3225.526836
614.205340	3210.884804
614.553945	3210.998230
614.902496	3189.744726
615.250994	3181.507480
615.599439	3178.182839
615.947830	3165.204389
616.296169	3157.708193
616.644454	3152.793068
616.992686	3140.706902
617.340864	3139.313023
617.688990	3122.031947
618.037063	3127.100827
618.385082	3117.036164
618.733048	3114.107253
619.080961	3108.347735
619.428821	3096.256528
619.776628	3086.857296
620.124382	3078.027715
620.472083	3070.912127
620.819731	3063.831826
621.167326	3050.775238
621.514868	3043.730225
621.862357	3025.962678
622.209793	3019.348685
622.557176	3007.673372
622.904506	2997.901096
623.251783	2981.320741
623.599007	2979.271512
623.946179	2963.754840
624.293297	2958.126392
624.640363	2946.173816
624.987376	2943.827159
625.334336	2930.962134
625.681243	2925.240425
626.028097	2914.895977
626.374899	2909.658218
626.721647	2903.744945
627.068343	2902.434245
627.414987	2891.028634
627.761577	2884.263406
628.108115	2885.548900
628.454600	2877.659494
628.801032	2870.705222
629.147412	2867.030221
629.493739	2858.888758
629.840014	2854.896164
630.186236	2852.635206
630.532405	2846.540451
630.878521	2843.687158
631.224585	2840.861592
631.570597	2833.982937
631.916556	2827.951197
632.262462	2825.644869
632.608316	2819.708910
632.954117	2819.242603
633.299866	2813.626758
633.645562	2810.907055
633.991206	2804.630819
634.336797	2797.028759
634.682336	2793.570527
635.027823	2788.597429
635.373257	2782.714402
635.718639	2777.506891
636.063968	2772.019595
636.409245	2765.277051
636.754470	2767.162443
637.099642	2760.457708
637.444762	2754.375556
