Dividing Wavelength (nm)	Counts (n)	Blue Motor Position (mm): 0.000000	Red Motor Position (mm): 14.000000	
326.493990	1981.211270
326.888308	1981.211270
327.282561	1981.211270
327.676750	1956.509616
328.070874	1955.524071
328.464933	1962.004474
328.858929	1971.025619
329.252859	1985.803761
329.646726	1998.144506
330.040528	2013.890550
330.434265	2032.837727
330.827938	2051.868083
331.221547	2072.594787
331.615091	2095.143868
332.008571	2113.450818
332.401986	2134.283386
332.795338	2156.650986
333.188625	2173.629592
333.581847	2193.199351
333.975006	2212.794316
334.368100	2230.135885
334.761129	2247.404358
335.154095	2258.862901
335.546996	2276.338060
335.939833	2292.535288
336.332606	2307.134469
336.725315	2314.635706
337.117960	2323.740030
337.510540	2329.272696
337.903056	2340.464058
338.295508	2346.400017
338.687896	2350.816067
339.080220	2360.631194
339.472480	2363.983561
339.864676	2370.779037
340.256807	2374.880015
340.648875	2374.398585
341.040879	2372.598893
341.432818	2376.646940
341.824694	2378.373535
342.216506	2378.723895
342.608253	2375.109388
342.999937	2377.387989
343.391557	2372.762731
343.783113	2375.908411
344.174605	2373.123173
344.566033	2372.193080
344.957397	2371.094109
345.348697	2368.974303
345.739934	2365.495907
346.131106	2365.684951
346.522215	2365.337111
346.913260	2358.453415
347.304241	2361.157994
347.695159	2358.309743
348.086012	2354.455780
348.476802	2354.778414
348.867528	2354.251614
349.258191	2352.938393
349.648789	2351.143742
350.039324	2353.571058
350.429796	2353.364371
350.820203	2350.795903
351.210548	2350.397652
351.600828	2350.460666
351.991045	2348.202229
352.381198	2347.007476
352.771288	2345.079234
353.161314	2347.710717
353.551276	2350.095182
353.941175	2349.102075
354.331010	2349.250789
354.720782	2351.168948
355.110490	2348.182064
355.500135	2349.686849
355.889717	2348.718947
356.279235	2349.545697
356.668689	2352.424195
357.058080	2350.526201
357.447408	2348.451766
357.836672	2349.369256
358.225873	2351.824298
358.615010	2348.965964
359.004084	2356.353775
359.393095	2353.709690
359.782043	2356.348734
360.170927	2354.511233
360.559748	2356.883096
360.948505	2355.804289
361.337199	2360.573221
361.725830	2356.182376
362.114398	2361.057171
362.502903	2361.205885
362.891344	2362.166225
363.279722	2362.587162
363.668037	2363.532378
364.056289	2362.549353
364.444478	2363.403828
364.832603	2364.328880
365.220665	2364.417100
365.608665	2364.928778
365.996601	2365.964735
366.384474	2366.151257
366.772284	2367.827441
367.160031	2369.110415
367.547715	2368.291227
367.935336	2368.742410
368.322893	2369.864067
368.710388	2371.270549
369.097820	2373.312216
369.485189	2372.447658
369.872495	2373.407998
370.259738	2375.915972
370.646918	2381.960316
371.034035	2380.117774
371.421090	2383.129863
371.808081	2385.163969
372.195010	2388.849052
372.581875	2396.251987
372.968678	2402.185425
373.355418	2406.031825
373.742096	2418.400296
374.128710	2428.709456
374.515262	2437.435693
374.901751	2451.634103
375.288177	2469.993985
375.674540	2486.286995
376.060841	2508.178205
376.447079	2529.966072
376.833254	2558.957748
377.219367	2581.867272
377.605417	2615.025461
377.991404	2643.790285
378.377329	2679.403516
378.763191	2712.430636
379.148991	2762.325456
379.534727	2807.831952
379.920402	2854.074456
380.306013	2900.102711
380.691563	2965.141157
381.077049	3018.905063
381.462474	3070.876839
381.847835	3144.129845
382.233134	3212.835731
382.618371	3271.928136
383.003545	3356.967361
383.388657	3434.591047
383.773706	3526.350130
384.158693	3598.660441
384.543618	3692.546890
384.928480	3763.415431
385.313280	3866.164228
385.698017	3970.616936
386.082692	4087.881736
386.467305	4151.238958
386.851856	4271.460395
387.236344	4425.578550
387.620770	4485.056604
388.005133	4602.986836
388.389435	4748.124176
388.773674	4829.523687
389.157851	4960.611331
389.541965	5089.987503
389.926018	5113.711173
390.310008	5289.297083
390.693936	5411.257717
391.077802	5524.504718
391.461606	5652.550026
391.845348	5764.987921
392.229027	5885.153905
392.612645	6103.788748
392.996200	6216.135902
393.379694	6388.785339
393.763125	6606.573268
394.146494	6698.468461
394.529801	6833.024419
394.913047	7064.534368
395.296230	7059.226033
395.679351	7114.590505
396.062410	7361.554112
396.445408	7259.594255
396.828343	7404.494660
397.211217	7534.972325
397.594028	7413.631752
397.976778	7606.387831
398.359466	7765.728621
398.742092	7730.012046
399.124656	7869.490691
399.507158	8040.610138
399.889598	8046.415026
400.271977	8236.012822
400.654294	8256.079135
401.036549	8428.002646
401.418742	8433.860467
401.800874	8696.318060
402.182944	8747.944516
402.564952	9063.525788
402.946898	8865.239563
403.328783	8877.207263
403.710606	9031.925315
404.092367	9218.740394
404.474067	9497.422941
404.855705	9253.146269
405.237282	9151.088110
405.618797	9470.530906
406.000250	9627.908167
406.381642	9876.593327
406.762972	9746.604655
407.144240	9502.547274
407.525447	9634.527202
407.906593	9494.824226
408.287677	9619.151683
408.668700	9644.654880
409.049661	9531.622128
409.430560	9556.729595
409.811399	9423.582640
410.192176	9443.033932
410.572891	9376.415084
410.953545	9616.706723
411.334138	9117.448490
411.714669	9411.957739
412.095139	8807.044483
412.475547	9030.087815
412.855894	8794.900344
413.236180	8883.067604
413.616405	8540.969863
413.996568	8579.663239
414.376670	8419.631810
414.756711	8214.845018
415.136691	8229.204744
415.516609	8189.639248
415.896466	8082.446673
416.276262	8094.928570
416.655997	8180.045933
417.035670	8037.192235
417.415283	8206.320426
417.794834	8085.751150
418.174324	7799.222048
418.553753	7587.118020
418.933121	7644.418295
419.312428	7400.270173
419.691674	7201.724329
420.070859	7224.953966
420.449983	6936.146262
420.829045	6977.997921
421.208047	6729.663121
421.586988	6732.357618
421.965867	6657.322563
422.344686	6501.505539
422.723444	6510.798906
423.102141	5973.623635
423.480777	6161.537686
423.859352	5880.354727
424.237866	6015.177866
424.616319	5796.197705
424.994712	5801.823632
425.373044	5610.007728
425.751314	5603.829794
426.129524	5286.441269
426.507673	5354.035580
426.885762	5164.825953
427.263789	5060.900046
427.641756	4958.368018
428.019662	4841.597251
428.397508	4720.954877
428.775292	4641.208865
429.153016	4516.682282
429.530679	4417.127056
429.908282	4306.118327
430.285824	4169.056916
430.663305	4136.705311
431.040726	3999.202799
431.418086	3885.547465
431.795385	3856.016386
432.172624	3800.518323
432.549802	3680.400230
432.926920	3614.560240
433.303977	3529.074873
433.680974	3467.464412
434.057910	3417.052873
434.434786	3355.094572
434.811601	3285.695527
435.188355	3274.249588
435.565050	3200.038762
435.941683	3141.947026
436.318257	3123.166207
436.694770	3063.912485
437.071222	3038.429452
437.447614	2965.168884
437.823946	2925.736978
438.200218	2890.174158
438.576429	2853.850124
438.952580	2825.397852
439.328670	2797.119500
439.704700	2781.335647
440.080670	2747.325502
440.456580	2732.433934
440.832429	2712.370142
441.208218	2680.356294
441.583947	2669.192659
441.959616	2651.689773
442.335224	2641.791467
442.710773	2626.360495
443.086261	2619.081069
443.461689	2602.558687
443.837057	2593.587954
444.212365	2593.078798
444.587612	2581.358115
444.962800	2567.681465
445.337927	2565.481001
445.712995	2549.107333
446.088002	2557.042109
446.462949	2552.920966
446.837837	2549.760163
447.212664	2541.593493
447.587431	2554.473642
447.962139	2570.340673
448.336786	2585.214598
448.711374	2567.467216
449.085901	2541.475026
449.460369	2537.946219
449.834776	2533.638553
450.209124	2547.133722
450.583412	2539.224151
450.957640	2537.522762
451.331808	2528.564631
451.705917	2518.623476
452.079965	2517.053157
452.453954	2514.956037
452.827883	2514.378824
453.201752	2505.418173
453.575562	2507.966477
453.949311	2511.994359
454.323001	2513.668022
454.696632	2508.858761
455.070202	2515.835718
455.443713	2512.402692
455.817164	2510.534945
456.190556	2510.149296
456.563888	2508.589059
456.937160	2505.350118
457.310373	2502.771568
457.683526	2502.915241
458.056619	2501.554129
458.429653	2499.305774
458.802628	2503.343739
459.175542	2501.619664
459.548398	2504.679644
459.921194	2511.828001
460.293930	2515.639113
460.666607	2521.769156
461.039224	2528.582275
461.411782	2523.601615
461.784280	2522.666481
462.156719	2517.895029
462.529099	2515.014010
462.901419	2508.357166
463.273680	2505.851713
463.645882	2505.428256
464.018024	2508.026971
464.390106	2508.024450
464.762130	2517.665657
465.134094	2533.570497
465.505999	2553.190668
465.877845	2567.855384
466.249631	2573.166240
466.621358	2563.625856
466.993026	2557.740309
467.364634	2550.355019
467.736184	2541.462423
468.107674	2535.377751
468.479105	2533.154602
468.850477	2526.863242
469.221790	2525.529857
469.593043	2518.411748
469.964238	2513.463855
470.335373	2513.806653
470.706449	2520.181192
471.077467	2527.158149
471.448425	2542.480737
471.819324	2553.649413
472.190164	2547.524411
472.560945	2533.094108
472.931667	2524.188910
473.302330	2518.999042
473.672934	2515.881088
474.043479	2517.118692
474.413965	2513.990656
474.784393	2507.001096
475.154761	2515.140039
475.525070	2510.711385
475.895321	2510.809688
476.265513	2510.978566
476.635645	2518.192457
477.005719	2519.644310
477.375734	2520.458456
477.745691	2523.825947
478.115588	2525.416431
478.485427	2530.686957
478.855207	2543.554502
479.224928	2552.479865
479.594591	2561.077553
479.964194	2555.643189
480.333739	2555.118909
480.703226	2555.134033
481.072653	2557.387428
481.442022	2558.136040
481.811333	2558.458674
482.180584	2555.554969
482.549777	2553.578837
482.918912	2550.912066
483.287988	2549.863506
483.657005	2542.271529
484.025964	2547.524411
484.394864	2544.610624
484.763706	2547.410985
485.132489	2540.819676
485.501213	2542.921838
485.869879	2539.297248
486.238487	2538.714995
486.607036	2540.509645
486.975527	2538.581404
487.343959	2539.559388
487.712333	2538.626774
488.080648	2540.681045
488.448905	2540.174409
488.817104	2540.030736
489.185244	2542.062321
489.553326	2549.424926
489.921350	2557.944476
490.289315	2569.231619
490.657222	2569.778585
491.025070	2569.632391
491.392861	2569.531568
491.760593	2565.634756
492.128267	2558.693087
492.495883	2554.181255
492.863440	2548.295708
493.230939	2544.436704
493.598380	2540.605427
493.965763	2531.982534
494.333088	2535.773481
494.700354	2530.939015
495.067563	2531.546474
495.434713	2533.257946
495.801805	2532.738707
496.168839	2532.829447
496.535815	2535.085364
496.902733	2535.385312
497.269593	2536.335570
497.636395	2531.818696
498.003139	2533.993954
498.369825	2534.291382
498.736453	2535.581918
499.103023	2534.740045
499.469535	2534.573687
499.835989	2536.360776
500.202385	2532.216947
500.568723	2533.089067
500.935003	2537.830272
501.301226	2537.676517
501.667390	2541.558205
502.033497	2544.260264
502.399546	2544.136756
502.765537	2541.984183
503.131470	2545.286139
503.497345	2548.192364
503.863163	2544.038453
504.228923	2549.238403
504.594625	2549.944165
504.960269	2546.730429
505.325856	2555.071018
505.691385	2553.979608
506.056856	2555.335679
506.422270	2559.592933
506.787625	2562.088304
507.152924	2565.423028
507.518164	2564.248439
507.883347	2561.483366
508.248472	2569.302196
508.613540	2574.751683
508.978550	2575.401992
509.343503	2575.712023
509.708398	2580.062538
510.073236	2585.302818
510.438016	2585.983374
510.802738	2589.340782
511.167403	2593.751792
511.532010	2596.111052
511.896561	2598.520723
512.261053	2604.108842
512.625488	2600.567432
512.989866	2604.123966
513.354186	2603.065323
513.718449	2604.953236
514.082655	2614.191150
514.446803	2615.511932
514.810894	2618.080400
515.174927	2620.865638
515.538904	2620.182561
515.902822	2623.759260
516.266684	2625.742954
516.630488	2628.681947
516.994235	2625.826133
517.357925	2629.649848
517.721558	2633.828965
518.085133	2635.636218
518.448651	2639.313740
518.812112	2638.098822
519.175516	2638.797022
519.538863	2642.577887
519.902152	2644.745583
520.265385	2646.194915
520.628560	2647.407313
520.991678	2644.808598
521.354739	2647.114926
521.717743	2648.415543
522.080690	2649.766573
522.443580	2649.060811
522.806413	2653.577685
523.169189	2652.579537
523.531908	2653.741522
523.894569	2649.864875
524.257174	2653.832263
524.619722	2655.362253
524.982213	2653.224804
525.344647	2654.338899
525.707025	2652.332520
526.069345	2654.374187
526.431608	2656.617501
526.793815	2655.770587
527.155964	2651.742705
527.518057	2651.382262
527.880093	2649.108702
528.242072	2652.859321
528.603995	2646.681387
528.965860	2646.099133
529.327669	2645.514359
529.689421	2643.460089
530.051117	2644.949750
530.412755	2640.369862
530.774337	2639.401960
531.135862	2637.360293
531.497331	2632.916516
531.858743	2627.078860
532.220098	2630.718573
532.581396	2624.825464
532.942638	2621.614249
533.303824	2623.353447
533.664953	2620.941255
534.026025	2618.718106
534.387040	2616.943620
534.747999	2612.341047
535.108902	2608.661004
535.469748	2606.894080
535.830537	2604.126486
536.191270	2600.264962
536.551947	2600.370827
536.912567	2596.239601
537.273131	2589.681060
537.633638	2585.617890
537.994089	2586.863055
538.354483	2579.127404
538.714821	2581.872313
539.075103	2575.825449
539.435328	2573.345201
539.795497	2570.527196
540.155609	2564.301371
540.515665	2566.365723
540.875665	2560.875907
541.235609	2557.916750
541.595496	2556.094373
541.955328	2555.912891
542.315102	2549.929041
542.674821	2548.237734
543.034483	2546.160779
543.394090	2542.301776
543.753640	2539.811446
544.113134	2537.396733
544.472571	2532.937832
544.831953	2533.504962
545.191278	2528.993129
545.550548	2527.596730
545.909761	2524.856863
546.268918	2525.308046
546.628019	2523.178158
546.987064	2519.571213
547.346053	2513.902435
547.704986	2515.034174
548.063863	2510.913031
548.422684	2512.115346
548.781449	2509.388082
549.140158	2505.834069
549.498811	2508.692403
549.857408	2499.754437
550.215949	2502.824500
550.574434	2499.618326
550.932864	2497.238901
551.291237	2493.752943
551.649555	2498.045486
552.007817	2496.467605
552.366022	2495.414004
552.724173	2495.245125
553.082267	2492.900988
553.440305	2499.850219
553.798288	2493.014414
554.156215	2494.766215
554.514086	2493.997439
554.871902	2490.680360
555.229661	2490.816471
555.587365	2486.440750
555.945014	2491.118941
556.302606	2485.538383
556.660143	2488.605925
557.017625	2484.908239
557.375050	2485.389669
557.732421	2485.157776
558.089735	2485.762715
558.446994	2484.875472
558.804197	2487.643065
559.161345	2487.151553
559.518437	2484.073928
559.875474	2486.125678
560.232455	2485.639206
560.589381	2484.691469
560.946251	2486.682725
561.303065	2483.806747
561.659825	2482.387662
562.016528	2482.642240
562.373177	2481.094606
562.729770	2485.102323
563.086307	2478.763073
563.442789	2483.055615
563.799216	2479.708289
564.155587	2483.625265
564.511904	2480.850110
564.868164	2481.593680
565.224370	2482.463279
565.580520	2482.143166
565.936615	2481.359267
566.292654	2480.182157
566.648638	2480.787096
567.004567	2480.275419
567.360441	2481.659215
567.716260	2484.003352
568.072023	2479.799030
568.427732	2479.725933
568.783385	2477.654019
569.138982	2476.625623
569.494525	2474.314254
569.850013	2475.607310
570.205445	2475.927423
570.560823	2478.011941
570.916145	2476.716364
571.271412	2477.147383
571.626625	2476.945737
571.981782	2475.824080
572.336884	2474.316775
572.691931	2477.475058
573.046923	2477.885912
573.401860	2475.572022
573.756743	2477.437249
574.111570	2475.481281
574.466342	2476.557568
574.821059	2475.816518
575.175722	2475.549337
575.530330	2473.285859
575.884882	2474.367186
576.239380	2473.434573
576.593823	2471.912144
576.948211	2472.426342
577.302544	2474.266363
577.656823	2472.030612
578.011047	2472.275108
578.365216	2470.687144
578.719330	2472.640591
579.073389	2468.784108
579.427394	2472.547330
579.781344	2469.303347
580.135239	2472.179326
580.489080	2471.339973
580.842866	2469.520117
581.196597	2468.491722
581.550273	2470.551033
581.903895	2470.619088
582.257463	2468.448872
582.610975	2469.784778
582.964434	2469.860395
583.317837	2468.461475
583.671186	2470.203193
584.024481	2469.174798
584.377721	2465.333439
584.730906	2465.673717
585.084037	2467.841413
585.437113	2468.222020
585.790135	2465.305712
586.143103	2467.458285
586.496016	2464.322687
586.848874	2461.567697
587.201679	2466.823100
587.554428	2460.052830
587.907124	2464.491566
588.259765	2461.663479
588.612352	2467.226392
588.964884	2463.110290
589.317362	2465.993830
589.669786	2461.292954
590.022155	2467.319653
590.374470	2464.731021
590.726731	2467.430559
591.078937	2464.647842
591.431090	2464.736062
591.783188	2461.766822
592.135232	2461.219857
592.487222	2461.184569
592.839157	2462.676751
593.191038	2461.187090
593.542866	2461.146760
593.894639	2463.581638
594.246358	2460.166256
594.598022	2463.780763
594.949633	2460.017542
595.301190	2460.178859
595.652692	2459.528550
596.004141	2459.203396
596.355535	2460.274641
596.706876	2456.372788
597.058162	2455.329269
597.409395	2458.863118
597.760573	2458.595937
598.111698	2456.148456
598.462768	2459.228601
598.813785	2457.980916
599.164748	2455.939248
599.515657	2456.340020
599.866511	2457.275154
600.217312	2460.413272
600.568060	2454.313476
600.918753	2458.134671
601.269392	2455.719958
601.619978	2455.649382
601.970510	2459.364713
602.320988	2454.968826
602.671412	2457.360854
603.021783	2456.950000
603.372100	2455.911522
603.722363	2454.777262
604.072572	2454.371450
604.422728	2455.435133
604.772830	2453.879937
605.122878	2450.646037
605.472872	2452.702828
605.822813	2449.307611
606.172701	2456.385391
606.522534	2457.562500
606.872314	2458.033848
607.222041	2453.534618
607.571714	2455.132664
607.921333	2455.493106
608.270899	2455.702314
608.620411	2456.546707
608.969870	2454.447067
609.319276	2457.522171
609.668627	2454.048816
610.017926	2458.565690
610.367171	2454.439505
610.716362	2457.723817
611.065500	2455.031841
611.414585	2456.793724
611.763616	2455.170472
612.112594	2454.192489
612.461518	2456.135853
612.810389	2455.777932
613.159207	2454.003445
613.507971	2455.278857
613.856682	2457.191975
614.205340	2456.771039
614.553945	2457.769187
614.902496	2459.112655
615.250994	2456.897068
615.599439	2457.461677
615.947830	2458.202727
616.296169	2455.538477
616.644454	2457.217181
616.992686	2456.140895
617.340864	2456.007304
617.688990	2454.578137
618.037063	2455.740123
618.385082	2456.755915
618.733048	2457.209619
619.080961	2454.482355
619.428821	2455.694753
619.776628	2455.099896
620.124382	2455.936728
620.472083	2453.648044
620.819731	2456.829012
621.167326	2453.872375
621.514868	2456.188786
621.862357	2454.936059
622.209793	2457.532253
622.557176	2453.862293
622.904506	2451.301387
623.251783	2447.223093
623.599007	2451.046809
623.946179	2448.743001
624.293297	2450.971191
624.640363	2449.002621
624.987376	2452.511264
625.334336	2447.260902
625.681243	2448.823660
626.028097	2450.683846
626.374899	2447.994390
626.721647	2450.754422
627.068343	2450.119236
627.414987	2448.349791
627.761577	2452.070163
628.108115	2449.784000
628.454600	2448.977415
628.801032	2450.204936
629.147412	2449.552107
629.493739	2447.845676
629.840014	2449.768876
630.186236	2447.306272
630.532405	2446.209822
630.878521	2447.187805
631.224585	2450.557817
631.570597	2443.737136
631.916556	2445.521704
632.262462	2447.659153
632.608316	2446.015737
632.954117	2447.969184
633.299866	2445.330140
633.645562	2445.037753
633.991206	2445.556992
634.336797	2443.119594
634.682336	2446.003134
635.027823	2443.313679
635.373257	2444.400047
635.718639	2444.805860
636.063968	2443.152362
636.409245	2441.874429
636.754470	2441.929882
637.099642	2442.406271
637.444762	2440.561209
637.789829	2440.984666
638.134845	2441.902156
638.479808	2442.277722
638.824719	2442.227310
639.169577	2440.294028
639.514383	2439.285797
639.859137	2439.182453
640.203839	2440.664552
640.548489	2437.844027
640.893086	2437.261773
641.237632	2433.047369
641.582125	2437.052566
641.926566	2432.697009
642.270955	2441.826538
642.615292	2437.397885
642.959576	2440.725046
643.303809	2439.593307
643.647990	2436.803028
643.992118	2438.627926
644.336195	2436.775302
