Dividing Wavelength (nm)	Counts (n)	Blue Motor Position (mm): 0.000000	Red Motor Position (mm): 5.200000	
326.493990	1975.287914
326.888308	1975.287914
327.282561	1975.287914
327.676750	1952.645572
328.070874	1952.363267
328.464933	1957.250666
328.858929	1967.559826
329.252859	1977.563995
329.646726	1995.606285
330.040528	2010.084479
330.434265	2028.078877
330.827938	2045.596887
331.221547	2068.692933
331.615091	2088.880234
332.008571	2110.476537
332.401986	2129.085957
332.795338	2148.136477
333.188625	2168.860660
333.581847	2189.720955
333.975006	2208.146372
334.368100	2224.159598
334.761129	2243.321023
335.154095	2256.377612
335.546996	2272.312699
335.939833	2283.821653
336.332606	2295.622994
336.725315	2307.323513
337.117960	2315.096972
337.510540	2323.535863
337.903056	2333.550115
338.295508	2336.824345
338.687896	2344.960767
339.080220	2353.681963
339.472480	2358.420648
339.864676	2359.305370
340.256807	2365.591689
340.648875	2366.448685
341.040879	2367.356093
341.432818	2369.178470
341.824694	2368.150075
342.216506	2370.763913
342.608253	2371.777185
342.999937	2367.867770
343.391557	2367.898017
343.783113	2362.992974
344.174605	2365.979858
344.566033	2360.777387
344.957397	2363.292923
345.348697	2357.919053
345.739934	2359.542305
346.131106	2354.581809
346.522215	2351.766325
346.913260	2351.330265
347.304241	2352.388907
347.695159	2349.608711
348.086012	2347.967815
348.476802	2345.454800
348.867528	2347.682990
349.258191	2344.754080
349.648789	2342.820797
350.039324	2343.569409
350.429796	2344.365911
350.820203	2344.071003
351.210548	2340.010354
351.600828	2339.105467
351.991045	2339.869202
352.381198	2339.007164
352.771288	2339.551609
353.161314	2338.654284
353.551276	2339.370128
353.941175	2337.618327
354.331010	2339.952381
354.720782	2338.177895
355.110490	2338.336691
355.500135	2339.337360
355.889717	2338.651763
356.279235	2342.593945
356.668689	2341.641167
357.058080	2340.065807
357.447408	2341.046311
357.836672	2338.926506
358.225873	2340.847186
358.615010	2335.269149
359.004084	2342.200735
359.393095	2343.067814
359.782043	2345.764831
360.170927	2345.671570
360.559748	2344.945644
360.948505	2345.195181
361.337199	2345.147290
361.725830	2346.364728
362.114398	2346.894050
362.502903	2348.177023
362.891344	2348.555110
363.279722	2347.652743
363.668037	2347.819101
364.056289	2349.157528
364.444478	2348.603001
364.832603	2349.628876
365.220665	2351.879751
365.608665	2350.516119
365.996601	2349.732219
366.384474	2352.073835
366.772284	2353.452591
367.160031	2350.790862
367.547715	2351.564679
367.935336	2354.483507
368.322893	2354.425533
368.710388	2352.462004
369.097820	2360.512727
369.485189	2354.899402
369.872495	2359.002901
370.259738	2358.062726
370.646918	2358.997860
371.034035	2362.945083
371.421090	2361.692357
371.808081	2364.626308
372.195010	2369.922040
372.581875	2376.185674
372.968678	2376.946888
373.355418	2387.278733
373.742096	2395.939435
374.128710	2406.099881
374.515262	2418.168403
374.901751	2430.211720
375.288177	2446.257712
375.674540	2464.720938
376.060841	2482.627117
376.447079	2502.693430
376.833254	2523.929290
377.219367	2545.258412
377.605417	2575.656570
377.991404	2598.104828
378.377329	2633.229067
378.763191	2662.490445
379.148991	2696.427493
379.534727	2731.342524
379.920402	2761.357554
380.306013	2798.402473
380.691563	2841.683300
381.077049	2874.990203
381.462474	2904.864081
381.847835	2955.003397
382.233134	2992.355826
382.618371	3020.699714
383.003545	3065.281158
383.388657	3103.508228
383.773706	3146.179074
384.158693	3174.351562
384.543618	3212.598797
384.928480	3238.159967
385.313280	3278.857202
385.698017	3314.871205
386.082692	3359.019110
386.467305	3363.609081
386.851856	3402.403280
387.236344	3455.705920
387.620770	3456.048719
388.005133	3482.204746
388.389435	3516.013244
388.773674	3519.761342
389.157851	3545.433418
389.541965	3561.928073
389.926018	3535.151984
390.310008	3571.405442
390.693936	3576.040783
391.077802	3581.709561
391.461606	3581.979262
391.845348	3579.486412
392.229027	3573.910896
392.612645	3598.234463
392.996200	3593.843618
393.379694	3598.138681
393.763125	3611.863222
394.146494	3584.978749
394.529801	3572.390988
394.913047	3576.623037
395.296230	3524.631096
395.679351	3478.670897
396.062410	3484.339674
396.445408	3407.482243
396.828343	3384.035836
397.211217	3350.141638
397.594028	3280.024229
397.976778	3259.458842
398.359466	3234.575707
398.742092	3180.544620
399.124656	3152.039416
399.507158	3126.763070
399.889598	3079.668611
400.271977	3054.235990
400.654294	3010.597242
401.036549	2983.760659
401.418742	2943.645677
401.800874	2922.457708
402.182944	2887.146946
402.564952	2871.453834
402.946898	2818.945175
403.328783	2785.088786
403.710606	2760.233377
404.092367	2737.109604
404.474067	2720.514126
404.855705	2682.057684
405.237282	2651.417551
405.618797	2636.868781
406.000250	2620.721965
406.381642	2608.056066
406.762972	2580.669997
407.144240	2555.267623
407.525447	2540.895294
407.906593	2522.752181
408.287677	2509.630058
408.668700	2497.276710
409.049661	2484.424288
409.430560	2475.045222
409.811399	2464.108438
410.192176	2456.428240
410.572891	2448.836263
410.953545	2446.792075
411.334138	2436.467792
411.714669	2436.475353
412.095139	2425.251224
412.475547	2423.995977
412.855894	2421.384659
413.236180	2417.644123
413.616405	2412.345871
413.996568	2412.723957
414.376670	2409.706827
414.756711	2407.077865
415.136691	2408.260015
415.516609	2404.645508
415.896466	2406.180539
416.276262	2403.924623
416.655997	2401.091495
417.035670	2398.185269
417.415283	2402.961763
417.794834	2396.224261
418.174324	2402.692061
418.553753	2397.555125
418.933121	2400.113511
419.312428	2399.463202
419.691674	2398.381874
420.070859	2397.789539
420.449983	2398.792728
420.829045	2396.196534
421.208047	2395.710063
421.586988	2397.229971
421.965867	2395.349620
422.344686	2395.082439
422.723444	2396.062944
423.102141	2393.882645
423.480777	2394.812738
423.859352	2393.953221
424.237866	2396.095711
424.616319	2394.664023
424.994712	2393.907850
425.373044	2394.931205
425.751314	2394.795093
426.129524	2394.979096
426.507673	2395.778118
426.885762	2393.577655
427.263789	2397.469426
427.641756	2394.328787
428.019662	2391.644372
428.397508	2395.878942
428.775292	2397.497152
429.153016	2396.158726
429.530679	2394.752244
429.908282	2395.793242
430.285824	2397.255177
430.663305	2397.071174
431.040726	2394.716956
431.418086	2394.069167
431.795385	2394.429610
432.172624	2395.684857
432.549802	2397.345917
432.926920	2398.054199
433.303977	2394.180073
433.680974	2397.890362
434.057910	2397.053530
434.434786	2396.335166
434.811601	2398.807852
435.188355	2400.257184
435.565050	2397.325753
435.941683	2397.413973
436.318257	2397.171997
436.694770	2395.306771
437.071222	2396.188973
437.447614	2394.101935
437.823946	2395.246277
438.200218	2397.597975
438.576429	2397.918088
438.952580	2397.265259
439.328670	2397.388767
439.704700	2399.700136
440.080670	2398.238202
440.456580	2397.507234
440.832429	2401.706515
441.208218	2398.389436
441.583947	2400.252143
441.959616	2399.755589
442.335224	2400.438665
442.710773	2397.736607
443.086261	2399.543860
443.461689	2399.969838
443.837057	2399.163253
444.212365	2400.010167
444.587612	2400.940260
444.962800	2402.127452
445.337927	2402.008985
445.712995	2399.039745
446.088002	2402.104767
446.462949	2399.874056
446.837837	2402.160219
447.212664	2401.814900
447.587431	2405.671383
447.962139	2407.909655
448.336786	2411.531724
448.711374	2407.682803
449.085901	2406.626682
449.460369	2403.975035
449.834776	2406.427556
450.209124	2410.926786
450.583412	2407.934861
450.957640	2406.178019
451.331808	2406.359500
451.705917	2406.193142
452.079965	2406.425035
452.453954	2404.532082
452.827883	2405.121897
453.201752	2405.699109
453.575562	2404.748852
453.949311	2405.260529
454.323001	2404.577453
454.696632	2405.736918
455.070202	2407.463513
455.443713	2407.909655
455.817164	2404.227092
456.190556	2406.427556
456.563888	2405.827659
456.937160	2403.102915
457.310373	2408.605334
457.683526	2406.228430
458.056619	2410.831004
458.429653	2407.660118
458.802628	2410.425191
459.175542	2410.127763
459.548398	2410.533576
459.921194	2410.379821
460.293930	2412.786972
460.666607	2413.490212
461.039224	2414.074986
461.411782	2415.967940
461.784280	2413.996848
462.156719	2416.197312
462.529099	2414.664801
462.901419	2414.354770
463.273680	2410.084913
463.645882	2411.829152
464.018024	2410.067269
464.390106	2412.068607
464.762130	2412.565161
465.134094	2417.011458
465.505999	2421.049423
465.877845	2427.449167
466.249631	2424.709300
466.621358	2425.135278
466.993026	2424.646286
467.364634	2424.242994
467.736184	2421.538415
468.107674	2417.021541
468.479105	2419.358116
468.850477	2418.203691
469.221790	2418.286870
469.593043	2414.107754
469.964238	2413.142373
470.335373	2413.714544
470.706449	2415.259657
471.077467	2418.821233
471.448425	2419.650502
471.819324	2420.966244
472.190164	2423.244845
472.560945	2417.845769
472.931667	2418.322158
473.302330	2412.950809
473.672934	2413.913669
474.043479	2412.517270
474.413965	2412.998700
474.784393	2409.774882
475.154761	2413.578433
475.525070	2412.320665
475.895321	2411.695562
476.265513	2411.448545
476.635645	2414.359812
477.005719	2414.896694
477.375734	2414.173289
477.745691	2416.293094
478.115588	2420.162180
478.485427	2416.406520
478.855207	2420.885585
479.224928	2422.256779
479.594591	2422.085380
479.964194	2423.383477
480.333739	2422.559248
480.703226	2420.802406
481.072653	2422.529001
481.442022	2422.092942
481.811333	2424.830288
482.180584	2420.749474
482.549777	2422.287026
482.918912	2419.511871
483.287988	2423.532191
483.657005	2422.866759
484.025964	2421.624114
484.394864	2420.396593
484.763706	2420.416758
485.132489	2420.086562
485.501213	2418.929617
485.869879	2421.384659
486.238487	2423.864907
486.607036	2417.928948
486.975527	2420.767118
487.343959	2419.857190
487.712333	2418.899371
488.080648	2417.876016
488.448905	2419.763928
488.817104	2416.797209
489.185244	2420.179824
489.553326	2420.068918
489.921350	2426.685433
490.289315	2424.779877
490.657222	2426.687953
491.025070	2425.767943
491.392861	2426.887079
491.760593	2424.416913
492.128267	2422.506316
492.495883	2424.603436
492.863440	2421.659402
493.230939	2420.681418
493.598380	2418.327200
493.965763	2414.324523
494.333088	2415.305028
494.700354	2416.938362
495.067563	2415.834349
495.434713	2416.310738
495.801805	2418.012127
496.168839	2417.099679
496.535815	2419.610173
496.902733	2418.181006
497.269593	2420.938517
497.636395	2417.412230
498.003139	2422.912129
498.369825	2422.372726
498.736453	2422.904567
499.103023	2421.089752
499.469535	2419.118661
499.835989	2421.233425
500.202385	2424.684095
500.568723	2420.757036
500.935003	2423.640576
501.301226	2427.431523
501.667390	2427.940680
502.033497	2431.227512
502.399546	2426.753488
502.765537	2428.109559
503.131470	2427.519744
503.497345	2429.707604
503.863163	2430.909920
504.228923	2430.476380
504.594625	2433.896803
504.960269	2433.070054
505.325856	2436.346804
505.691385	2436.167843
506.056856	2437.092895
506.422270	2436.593821
506.787625	2441.120777
507.152924	2439.361414
507.518164	2443.711930
507.883347	2443.832917
508.248472	2444.631940
508.613540	2444.082455
508.978550	2447.175203
509.343503	2443.996755
509.708398	2446.930707
510.073236	2447.581015
510.438016	2447.573454
510.802738	2446.822322
511.167403	2449.403392
511.532010	2451.291305
511.896561	2448.158228
512.261053	2453.269957
512.625488	2448.458176
512.989866	2444.594132
513.354186	2447.941458
513.718449	2443.772424
514.082655	2449.158897
514.446803	2446.915583
514.810894	2445.698144
515.174927	2452.234000
515.538904	2444.198401
515.902822	2446.139245
516.266684	2448.450614
516.630488	2447.361725
516.994235	2441.405602
517.357925	2445.902311
517.721558	2441.385437
518.085133	2443.434666
518.448651	2441.277053
518.812112	2438.514500
519.175516	2438.292689
519.538863	2436.462751
519.902152	2435.502411
520.265385	2433.652307
520.628560	2430.002512
520.991678	2431.313212
521.354739	2428.958993
521.717743	2425.644434
522.080690	2429.556370
522.443580	2429.435382
522.806413	2427.481935
523.169189	2425.258786
523.531908	2424.880700
523.894569	2422.014804
524.257174	2423.118816
524.619722	2420.890626
524.982213	2421.432550
525.344647	2420.557910
525.707025	2422.503796
526.069345	2417.286201
526.431608	2416.772004
526.793815	2415.294946
527.155964	2418.125553
527.518057	2416.915677
527.880093	2416.555234
528.242072	2415.693197
528.603995	2418.848959
528.965860	2415.640265
529.327669	2416.225038
529.689421	2412.179513
530.051117	2415.960378
530.412755	2414.372414
530.774337	2413.127249
531.135862	2413.591036
531.497331	2409.144738
531.858743	2406.614079
532.220098	2411.841755
532.581396	2409.563154
532.942638	2407.622309
533.303824	2410.120201
533.664953	2410.972156
534.026025	2409.301014
534.387040	2413.175140
534.747999	2410.089954
535.108902	2411.927455
535.469748	2410.833524
535.830537	2411.970305
536.191270	2411.942578
536.551947	2413.601118
536.912567	2410.440314
537.273131	2414.831159
537.633638	2411.849317
537.994089	2410.001734
538.354483	2410.208421
538.714821	2410.775551
539.075103	2408.648184
539.435328	2411.204049
539.795497	2409.767320
540.155609	2408.910324
540.515665	2410.326888
540.875665	2412.459297
541.235609	2408.438976
541.595496	2411.554409
541.955328	2411.808988
542.315102	2406.767834
542.674821	2409.459810
543.034483	2410.226065
543.394090	2409.169944
543.753640	2410.115160
544.113134	2412.318144
544.472571	2409.263205
544.831953	2412.960891
545.191278	2410.049625
545.550548	2410.470561
545.909761	2410.674728
546.268918	2408.381003
546.628019	2409.711868
546.987064	2410.107598
547.346053	2409.593401
547.704986	2409.792526
548.063863	2409.071641
548.422684	2410.301683
548.781449	2411.098185
549.140158	2410.137845
549.498811	2410.178174
549.857408	2411.193967
550.215949	2406.165416
550.574434	2405.106774
550.932864	2404.917730
551.291237	2404.955539
551.649555	2411.360325
552.007817	2409.656415
552.366022	2410.097516
552.724173	2407.955026
553.082267	2409.656415
553.440305	2408.595252
553.798288	2410.430232
554.156215	2412.232445
554.514086	2413.752353
554.871902	2408.620458
555.229661	2407.118194
555.587365	2410.629358
555.945014	2409.225396
556.302606	2407.138359
556.660143	2408.975859
557.017625	2409.240520
557.375050	2409.422001
557.732421	2409.394275
558.089735	2409.752197
558.446994	2409.192629
558.804197	2409.152300
559.161345	2409.026271
559.518437	2408.660787
559.875474	2411.506518
560.232455	2408.285221
560.589381	2408.549882
560.946251	2410.841086
561.303065	2408.012999
561.659825	2408.144069
562.016528	2407.841600
562.373177	2410.896539
562.729770	2409.026271
563.086307	2409.537948
563.442789	2408.232289
563.799216	2410.115160
564.155587	2408.305386
564.511904	2409.772362
564.868164	2407.750859
565.224370	2409.913514
565.580520	2408.169275
565.936615	2406.074675
566.292654	2408.454100
566.648638	2410.271436
567.004567	2410.115160
567.360441	2407.944943
567.716260	2409.202711
568.072023	2407.498801
568.427732	2404.121228
568.783385	2406.772875
569.138982	2405.699109
569.494525	2406.891342
569.850013	2402.432442
570.205445	2408.280180
570.560823	2409.686662
570.916145	2408.837228
571.271412	2406.755231
571.626625	2412.101375
571.981782	2409.603483
572.336884	2406.966959
572.691931	2407.130797
573.046923	2406.349418
573.401860	2406.914027
573.756743	2409.784964
574.111570	2405.051321
574.466342	2409.278328
574.821059	2405.701630
575.175722	2407.650036
575.530330	2406.878739
575.884882	2408.754048
576.239380	2406.740107
576.593823	2406.742628
576.948211	2408.320509
577.302544	2408.590211
577.656823	2409.036353
578.011047	2411.637588
578.365216	2407.798750
578.719330	2406.820766
579.073389	2406.271280
579.427394	2408.300345
579.781344	2405.759603
580.135239	2407.085427
580.489080	2406.112484
580.842866	2406.538461
581.196597	2407.652556
581.550273	2408.156672
581.903895	2407.415622
582.257463	2406.465365
582.610975	2406.606517
582.964434	2408.544841
583.317837	2408.885118
583.671186	2406.866136
584.024481	2408.418812
584.377721	2408.199522
584.730906	2408.139028
585.084037	2407.624830
585.437113	2403.622154
585.790135	2407.478637
586.143103	2406.283883
586.496016	2406.775396
586.848874	2403.554098
587.201679	2406.543502
587.554428	2403.740621
587.907124	2406.730025
588.259765	2404.358162
588.612352	2406.014181
588.964884	2405.656259
589.317362	2405.444531
589.669786	2406.051990
590.022155	2408.000396
590.374470	2408.181878
590.726731	2409.449728
591.078937	2408.270098
591.431090	2407.415622
591.783188	2406.036867
592.135232	2404.045611
592.487222	2406.886301
592.839157	2406.704819
593.191038	2406.505694
593.542866	2407.090468
593.894639	2407.271949
594.246358	2404.496794
594.598022	2403.478481
594.949633	2404.834551
595.301190	2404.892525
595.652692	2404.912689
596.004141	2405.857906
596.355535	2405.109294
596.706876	2404.988307
597.058162	2405.076527
597.409395	2405.857906
597.760573	2405.971332
598.111698	2404.585014
598.462768	2405.623492
598.813785	2401.038562
599.164748	2404.947977
599.515657	2404.020405
599.866511	2405.391599
600.217312	2405.668862
600.568060	2405.252967
600.918753	2408.849830
601.269392	2404.053173
601.619978	2405.182391
601.970510	2404.597617
602.320988	2403.337329
602.671412	2405.429407
603.021783	2404.320354
603.372100	2403.100394
603.722363	2404.796743
604.072572	2405.447052
604.422728	2407.982752
604.772830	2404.559808
605.122878	2402.465209
605.472872	2403.521331
605.822813	2398.583521
606.172701	2404.743811
606.522534	2404.395971
606.872314	2404.917730
607.222041	2405.799932
607.571714	2405.378996
607.921333	2407.090468
608.270899	2408.242371
608.620411	2404.015364
608.969870	2404.839592
609.319276	2406.919068
609.668627	2407.420663
610.017926	2405.557957
610.367171	2403.027298
610.716362	2404.453944
611.065500	2405.794891
611.414585	2407.884449
611.763616	2404.925292
612.112594	2405.086609
612.461518	2403.657442
612.810389	2405.192473
613.159207	2405.628533
613.507971	2404.401012
613.856682	2404.479150
614.205340	2404.663152
614.553945	2406.301527
614.902496	2405.010992
615.250994	2406.883780
615.599439	2403.299520
615.947830	2405.005951
616.296169	2407.067783
616.644454	2405.313461
616.992686	2401.658624
617.340864	2403.680127
617.688990	2407.037536
618.037063	2405.648698
618.385082	2405.338667
618.733048	2405.885632
619.080961	2406.276321
619.428821	2403.523851
619.776628	2406.135169
620.124382	2403.901938
620.472083	2405.769685
620.819731	2403.261711
621.167326	2403.428069
621.514868	2405.202556
621.862357	2404.285066
622.209793	2406.475447
622.557176	2405.399161
622.904506	2400.282389
623.251783	2398.951525
623.599007	2402.709705
623.946179	2399.395146
624.293297	2401.003274
624.640363	2403.990158
624.987376	2404.222051
625.334336	2402.971845
625.681243	2404.995868
626.028097	2407.029974
626.374899	2405.131979
626.721647	2406.069634
627.068343	2402.155178
627.414987	2404.012843
627.761577	2406.147772
628.108115	2404.758934
628.454600	2403.082750
628.801032	2404.474109
629.147412	2404.612741
629.493739	2403.864129
629.840014	2406.089799
630.186236	2405.063924
630.532405	2405.295817
630.878521	2403.281876
631.224585	2402.369427
631.570597	2402.326577
631.916556	2403.506207
632.262462	2401.036042
632.608316	2405.142062
632.954117	2405.494942
633.299866	2405.162226
633.645562	2402.230795
633.991206	2403.594428
634.336797	2403.622154
634.682336	2404.796743
635.027823	2402.215672
635.373257	2401.492266
635.718639	2402.621485
636.063968	2404.738769
636.409245	2402.296330
636.754470	2404.741290
637.099642	2399.977400
637.444762	2402.797925
637.789829	2402.923954
638.134845	2402.634088
638.479808	2399.372461
638.824719	2402.903789
639.169577	2403.909500
639.514383	2401.920764
639.859137	2401.335991
640.203839	2402.833213
640.548489	2401.875394
640.893086	2399.848850
641.237632	2398.638973
641.582125	2400.058058
641.926566	2398.543191
642.270955	2403.203738
642.615292	2400.136196
642.959576	2403.110477
643.303809	2399.001936
643.647990	2403.629716
643.992118	2401.991341
644.336195	2402.823131
