Dividing Wavelength (nm)	Counts (n)	Blue Motor Position (mm): 0.000000	Red Motor Position (mm): 10.800000	
326.493990	1978.254633
326.888308	1978.254633
327.282561	1978.254633
327.676750	1953.328648
328.070874	1955.377877
328.464933	1961.611264
328.858929	1973.082410
329.252859	1985.193782
329.646726	1995.016470
330.040528	2011.312000
330.434265	2033.505680
330.827938	2051.565613
331.221547	2069.796946
331.615091	2092.232601
332.008571	2112.624069
332.401986	2129.373302
332.795338	2155.650317
333.188625	2172.523059
333.581847	2194.938549
333.975006	2210.379603
334.368100	2227.872407
334.761129	2246.275139
335.154095	2258.615884
335.546996	2275.528955
335.939833	2288.603188
336.332606	2305.594397
336.725315	2314.638227
337.117960	2322.978816
337.510540	2328.466112
337.903056	2340.287618
338.295508	2342.399861
338.687896	2350.642148
339.080220	2356.525174
339.472480	2364.344004
339.864676	2367.711494
340.256807	2371.749459
340.648875	2372.493029
341.040879	2375.265663
341.432818	2375.195087
341.824694	2375.371528
342.216506	2373.571836
342.608253	2374.506970
342.999937	2373.705426
343.391557	2373.065200
343.783113	2372.248533
344.174605	2369.687627
344.566033	2366.773840
344.957397	2366.337780
345.348697	2365.682430
345.739934	2364.366689
346.131106	2363.529857
346.522215	2359.628004
346.913260	2355.895030
347.304241	2356.391583
347.695159	2354.496110
348.086012	2354.334793
348.476802	2351.794051
348.867528	2349.979236
349.258191	2350.415296
349.648789	2349.694411
350.039324	2349.462518
350.429796	2348.930676
350.820203	2349.424709
351.210548	2344.779286
351.600828	2346.901611
351.991045	2345.500171
352.381198	2345.981601
352.771288	2345.800119
353.161314	2344.333143
353.551276	2345.207784
353.941175	2346.266426
354.331010	2344.612928
354.720782	2344.262567
355.110490	2347.383042
355.500135	2346.342043
355.889717	2345.356498
356.279235	2346.324399
356.668689	2347.688031
357.058080	2342.896415
357.447408	2346.273988
357.836672	2342.571260
358.225873	2346.916735
358.615010	2347.093175
359.004084	2349.729699
359.393095	2348.620645
359.782043	2353.402179
360.170927	2350.637106
360.559748	2354.286902
360.948505	2353.687004
361.337199	2353.712210
361.725830	2354.664988
362.114398	2359.640607
362.502903	2357.009125
362.891344	2358.143384
363.279722	2356.494927
363.668037	2360.694208
364.056289	2358.463498
364.444478	2362.859384
364.832603	2357.727489
365.220665	2361.538602
365.608665	2363.958355
365.996601	2362.904754
366.384474	2362.829137
366.772284	2364.379292
367.160031	2364.848119
367.547715	2364.205372
367.935336	2363.338293
368.322893	2367.177132
368.710388	2364.543129
369.097820	2369.029756
369.485189	2367.600589
369.872495	2370.073275
370.259738	2372.155272
370.646918	2372.825745
371.034035	2373.954963
371.421090	2379.757332
371.808081	2378.204656
372.195010	2384.193547
372.581875	2386.585574
372.968678	2395.442882
373.355418	2400.489077
373.742096	2410.614234
374.128710	2420.449525
374.515262	2434.141299
374.901751	2444.546241
375.288177	2459.808334
375.674540	2481.137456
376.060841	2497.377533
376.447079	2519.727489
376.833254	2549.094730
377.219367	2570.176836
377.605417	2607.562033
377.991404	2633.967597
378.377329	2670.324398
378.763191	2703.404450
379.148991	2751.045874
379.534727	2796.297792
379.920402	2841.970645
380.306013	2892.341855
380.691563	2951.076338
381.077049	3006.123218
381.462474	3059.801424
381.847835	3134.723052
382.233134	3202.450954
382.618371	3260.888009
383.003545	3347.570650
383.388657	3424.415478
383.773706	3511.735825
384.158693	3588.593256
384.543618	3679.840662
384.928480	3756.395624
385.313280	3860.997046
385.698017	3961.878096
386.082692	4081.174481
386.467305	4139.180518
386.851856	4261.347840
387.236344	4411.140685
387.620770	4474.807938
388.005133	4593.736319
388.389435	4730.432247
388.773674	4808.431499
389.157851	4938.037044
389.541965	5063.725613
389.926018	5079.292696
390.310008	5246.028859
390.693936	5358.449110
391.077802	5459.977949
391.461606	5575.576648
391.845348	5669.949568
392.229027	5766.384321
392.612645	5963.110308
392.996200	6047.005191
393.379694	6190.166398
393.763125	6371.852103
394.146494	6428.161792
394.529801	6516.112282
394.913047	6699.413678
395.296230	6651.419372
395.679351	6653.977758
396.062410	6827.569891
396.445408	6684.514547
396.828343	6764.346260
397.211217	6810.230842
397.594028	6663.624006
397.976778	6759.529437
398.359466	6824.638460
398.742092	6737.721406
399.124656	6777.697756
399.507158	6842.325348
399.889598	6789.262163
400.271977	6849.342634
400.654294	6789.456247
401.036549	6835.194636
401.418742	6767.423884
401.800874	6873.640996
402.182944	6827.113666
402.564952	6963.688606
402.946898	6745.210040
403.328783	6669.126425
403.710606	6678.581109
404.092367	6715.815072
404.474067	6806.147507
404.855705	6569.656898
405.237282	6428.522234
405.618797	6535.102309
406.000250	6534.187340
406.381642	6588.004177
406.762972	6429.633809
407.144240	6209.675664
407.525447	6193.879208
407.906593	6031.465834
408.287677	6017.489235
408.668700	5950.739317
409.049661	5808.288912
409.430560	5737.627059
409.811399	5601.558755
410.192176	5532.250451
410.572891	5431.777734
410.953545	5447.488490
411.334138	5165.103216
411.714669	5209.364547
412.095139	4903.913474
412.475547	4909.705760
412.855894	4762.713275
413.236180	4715.701995
413.616405	4538.472670
413.996568	4488.897963
414.376670	4376.457547
414.756711	4246.904934
415.136691	4199.636555
415.516609	4125.723157
415.896466	4044.177453
416.276262	3989.415399
416.655997	3958.760142
417.035670	3867.381667
417.415283	3861.533928
417.794834	3782.975107
418.174324	3668.321625
418.553753	3573.799990
418.933121	3540.334291
419.312428	3449.694344
419.691674	3366.633773
420.070859	3331.897702
420.449983	3241.837489
420.829045	3216.964436
421.208047	3140.855616
421.586988	3108.027622
421.965867	3067.816858
422.344686	3017.372552
422.723444	2989.540342
423.102141	2891.512585
423.480777	2895.059037
423.859352	2838.731704
424.237866	2837.219358
424.616319	2791.549025
424.994712	2776.949843
425.373044	2739.748648
425.751314	2725.769529
426.129524	2682.337468
426.507673	2681.803105
426.885762	2652.856800
427.263789	2636.029428
427.641756	2619.441512
428.019662	2602.727566
428.397508	2585.189392
428.775292	2578.358628
429.153016	2561.322049
429.530679	2550.009700
429.908282	2542.543751
430.285824	2529.913140
430.663305	2527.967255
431.040726	2512.077538
431.418086	2507.439676
431.795385	2505.498832
432.172624	2500.656804
432.549802	2493.818478
432.926920	2493.299240
433.303977	2486.965030
433.680974	2485.994608
434.057910	2481.540748
434.434786	2481.220635
434.811601	2476.212249
435.188355	2477.049080
435.565050	2473.008595
435.941683	2470.939202
436.318257	2470.840899
436.694770	2463.601802
437.071222	2472.058338
437.447614	2460.151132
437.823946	2457.892696
438.200218	2460.317491
438.576429	2458.583334
438.952580	2458.225412
439.328670	2457.015535
439.704700	2458.444702
440.080670	2452.354988
440.456580	2453.340534
440.832429	2454.084104
441.208218	2450.565378
441.583947	2450.187292
441.959616	2447.555810
442.335224	2451.858434
442.710773	2449.473969
443.086261	2450.099072
443.461689	2448.130501
443.837057	2450.862807
444.212365	2450.913218
444.587612	2448.148145
444.962800	2444.843669
445.337927	2445.196550
445.712995	2442.376024
446.088002	2448.838783
446.462949	2449.910028
446.837837	2448.770728
447.212664	2446.920624
447.587431	2455.006635
447.962139	2463.397636
448.336786	2469.043728
448.711374	2467.034828
449.085901	2454.336162
449.460369	2453.937910
449.834776	2456.803806
450.209124	2459.780608
450.583412	2460.453602
450.957640	2458.588375
451.331808	2457.444033
451.705917	2454.298353
452.079965	2453.169134
452.453954	2453.557303
452.827883	2452.997735
453.201752	2454.094186
453.575562	2453.867334
453.949311	2454.512602
454.323001	2456.879424
454.696632	2454.578137
455.070202	2459.400001
455.443713	2460.055351
455.817164	2458.958900
456.190556	2457.887654
456.563888	2458.169959
456.937160	2457.628035
457.310373	2458.220371
457.683526	2456.133333
458.056619	2459.934363
458.429653	2455.384722
458.802628	2458.477469
459.175542	2455.046964
459.548398	2461.250104
459.921194	2466.913840
460.293930	2469.247895
460.666607	2471.581949
461.039224	2477.933803
461.411782	2476.025726
461.784280	2476.943216
462.156719	2471.665128
462.529099	2470.813173
462.901419	2466.954170
463.273680	2465.162039
463.645882	2469.000878
464.018024	2465.341000
464.390106	2467.755713
464.762130	2472.932978
465.134094	2482.808598
465.505999	2496.742348
465.877845	2507.429594
466.249631	2508.757938
466.621358	2503.615961
466.993026	2502.277535
467.364634	2497.223778
467.736184	2487.212046
468.107674	2484.968733
468.479105	2483.282467
468.850477	2482.801037
469.221790	2478.170737
469.593043	2475.491364
469.964238	2473.026239
470.335373	2474.170581
470.706449	2475.201497
471.077467	2484.222642
471.448425	2492.618684
471.819324	2499.527585
472.190164	2493.989878
472.560945	2486.909577
472.931667	2477.313741
473.302330	2473.734522
473.672934	2473.033801
474.043479	2472.963225
474.413965	2475.854327
474.784393	2467.581793
475.154761	2477.293576
475.525070	2468.103553
475.895321	2470.281331
476.265513	2470.712350
476.635645	2476.993627
477.005719	2475.312403
477.375734	2479.236941
477.745691	2477.805253
478.115588	2481.538228
478.485427	2486.133239
478.855207	2494.677995
479.224928	2499.953563
479.594591	2503.202586
479.964194	2499.850219
480.333739	2501.836434
480.703226	2498.600013
481.072653	2501.498676
481.442022	2505.604696
481.811333	2506.978411
482.180584	2498.269817
482.549777	2497.924498
482.918912	2498.574807
483.287988	2496.228150
483.657005	2496.326453
484.025964	2494.894765
484.394864	2494.047851
484.763706	2494.980464
485.132489	2491.862511
485.501213	2492.275885
485.869879	2492.220433
486.238487	2491.802017
486.607036	2487.537201
486.975527	2488.600884
487.343959	2490.198930
487.712333	2490.304794
488.080648	2491.701194
488.448905	2490.624908
488.817104	2490.571975
489.185244	2491.802017
489.553326	2493.826040
489.921350	2503.149654
490.289315	2508.677279
490.657222	2510.129132
491.025070	2511.936385
491.392861	2509.783813
491.760593	2504.349449
492.128267	2501.183604
492.495883	2498.337873
492.863440	2494.524240
493.230939	2491.996101
493.598380	2489.909064
493.965763	2484.963692
494.333088	2484.618373
494.700354	2482.964874
495.067563	2483.448825
495.434713	2479.153762
495.801805	2485.883702
496.168839	2485.586274
496.535815	2486.637355
496.902733	2483.862200
497.269593	2486.266830
497.636395	2484.809937
498.003139	2488.021152
498.369825	2485.079638
498.736453	2487.169197
499.103023	2485.364463
499.469535	2486.339927
499.835989	2488.951244
500.202385	2488.671460
500.568723	2490.655154
500.935003	2490.647593
501.301226	2490.302274
501.667390	2491.721358
502.033497	2494.446102
502.399546	2492.248159
502.765537	2492.747233
503.131470	2496.623881
503.497345	2499.056237
503.863163	2498.073212
504.228923	2497.191010
504.594625	2502.199397
504.960269	2498.960455
505.325856	2506.315499
505.691385	2504.709891
506.056856	2510.499657
506.422270	2510.971004
506.787625	2511.165089
507.152924	2513.025275
507.518164	2517.668177
507.883347	2517.287570
508.248472	2517.547190
508.613540	2523.974661
508.978550	2524.652696
509.343503	2529.063706
509.708398	2531.473377
510.073236	2537.220293
510.438016	2535.760878
510.802738	2540.895294
511.167403	2539.138452
511.532010	2544.575336
511.896561	2547.111036
512.261053	2554.057746
512.625488	2547.937786
512.989866	2549.039278
513.354186	2552.028682
513.718449	2550.556665
514.082655	2562.352965
514.446803	2558.534291
514.810894	2560.591082
515.174927	2568.034345
515.538904	2563.630897
515.902822	2568.787998
516.266684	2565.241546
516.630488	2568.765313
516.994235	2570.902762
517.357925	2572.563822
517.721558	2575.437280
518.085133	2575.112125
518.448651	2574.509707
518.812112	2573.766137
519.175516	2573.834193
519.538863	2575.845613
519.902152	2577.693196
520.265385	2574.862588
520.628560	2575.772517
520.991678	2571.626168
521.354739	2573.335119
521.717743	2573.330077
522.080690	2574.310582
522.443580	2573.188925
522.806413	2570.103739
523.169189	2569.450910
523.531908	2570.197000
523.894569	2564.344221
524.257174	2565.796073
524.619722	2565.077709
524.982213	2561.871535
525.344647	2560.954045
525.707025	2555.444064
526.069345	2556.918601
526.431608	2551.983312
526.793815	2549.697148
527.155964	2551.421223
527.518057	2548.963660
527.880093	2542.395037
528.242072	2544.552651
528.603995	2538.767927
528.965860	2534.906403
529.327669	2531.889272
529.689421	2530.208047
530.051117	2528.620084
530.412755	2522.684125
530.774337	2524.166225
531.135862	2517.229597
531.497331	2515.200532
531.858743	2509.529234
532.220098	2507.147289
532.581396	2506.186949
532.942638	2504.876249
533.303824	2505.531599
533.664953	2499.701505
534.026025	2496.462564
534.387040	2497.349807
534.747999	2494.246977
535.108902	2489.329331
535.469748	2488.000987
535.830537	2490.171204
536.191270	2484.429329
536.551947	2486.571820
536.912567	2482.352374
537.273131	2478.508494
537.633638	2477.187712
537.994089	2476.386168
538.354483	2473.996662
538.714821	2473.953812
539.075103	2471.518934
539.435328	2473.676548
539.795497	2471.614716
540.155609	2466.399643
540.515665	2467.871660
540.875665	2463.379992
541.235609	2466.170270
541.595496	2465.444344
541.955328	2464.312605
542.315102	2460.592233
542.674821	2460.612398
543.034483	2459.957048
543.394090	2460.438478
543.753640	2459.384877
544.113134	2458.762295
544.472571	2458.230453
544.831953	2461.222378
545.191278	2456.158539
545.550548	2456.612242
545.909761	2456.783642
546.268918	2452.596963
546.628019	2456.531584
546.987064	2455.049485
547.346053	2456.541666
547.704986	2452.052519
548.063863	2450.794751
548.422684	2451.626541
548.781449	2452.473455
549.140158	2452.594443
549.498811	2452.473455
549.857408	2451.230811
550.215949	2448.012034
550.574434	2446.388783
550.932864	2448.432970
551.291237	2448.087651
551.649555	2450.043619
552.007817	2451.261058
552.366022	2450.772066
552.724173	2452.891871
553.082267	2454.373970
553.440305	2450.454473
553.798288	2452.528908
554.156215	2451.571089
554.514086	2451.422375
554.871902	2451.775255
555.229661	2450.139401
555.587365	2448.208639
555.945014	2450.459514
556.302606	2448.175872
556.660143	2447.790223
557.017625	2450.439350
557.375050	2447.137394
557.732421	2451.939093
558.089735	2449.083279
558.446994	2448.533793
558.804197	2449.194185
559.161345	2446.179575
559.518437	2448.029678
559.875474	2448.100254
560.232455	2448.737960
560.589381	2445.932558
560.946251	2449.131170
561.303065	2449.012703
561.659825	2448.332147
562.016528	2448.155707
562.373177	2449.708382
562.729770	2449.206788
563.086307	2450.126798
563.442789	2444.881478
563.799216	2450.010852
564.155587	2448.274174
564.511904	2447.656633
564.868164	2447.071859
565.224370	2449.365584
565.580520	2448.710234
565.936615	2448.034719
566.292654	2446.229986
566.648638	2447.059256
567.004567	2448.432970
567.360441	2446.986159
567.716260	2446.300562
568.072023	2447.512960
568.427732	2442.373503
568.783385	2442.607917
569.138982	2443.787547
569.494525	2445.050356
569.850013	2442.103802
570.205445	2445.383072
570.560823	2444.745366
570.916145	2446.366097
571.271412	2446.792075
571.626625	2447.462548
571.981782	2444.836107
572.336884	2445.007506
572.691931	2446.058587
573.046923	2444.130346
573.401860	2444.697475
573.756743	2443.538010
574.111570	2443.215376
574.466342	2443.671601
574.821059	2441.577001
575.175722	2444.158072
575.530330	2445.667897
575.884882	2443.807712
576.239380	2445.035233
576.593823	2444.936930
576.948211	2443.467434
577.302544	2442.373503
577.656823	2441.067845
578.011047	2440.646908
578.365216	2442.426436
578.719330	2443.061621
579.073389	2444.851231
579.427394	2445.635130
579.781344	2442.255036
580.135239	2440.765375
580.489080	2440.173040
580.842866	2439.948708
581.196597	2443.399378
581.550273	2441.143462
581.903895	2440.349480
582.257463	2440.243616
582.610975	2441.506425
582.964434	2442.428956
583.317837	2441.294697
583.671186	2443.540531
584.024481	2436.792946
584.377721	2441.299738
584.730906	2435.943512
585.084037	2439.595828
585.437113	2442.204625
585.790135	2440.263781
586.143103	2440.727567
586.496016	2438.549788
586.848874	2435.537699
587.201679	2437.405446
587.554428	2434.786567
587.907124	2437.314706
588.259765	2434.703388
588.612352	2440.314192
588.964884	2439.300920
589.317362	2440.601538
589.669786	2440.021805
590.022155	2437.070210
590.374470	2439.787392
590.726731	2435.590631
591.078937	2437.410487
591.431090	2437.561722
591.783188	2438.068358
592.135232	2440.679676
592.487222	2435.885538
592.839157	2435.552822
593.191038	2437.017277
593.542866	2434.736155
593.894639	2440.077258
594.246358	2436.243460
594.598022	2435.303285
594.949633	2437.448296
595.301190	2433.730445
595.652692	2437.975097
596.004141	2437.352514
596.355535	2434.219437
596.706876	2433.778336
597.058162	2434.862184
597.409395	2432.124838
597.760573	2432.944025
598.111698	2432.807914
598.462768	2433.743048
598.813785	2434.698347
599.164748	2433.468305
599.515657	2435.636001
599.866511	2435.267997
600.217312	2433.911927
600.568060	2434.630291
600.918753	2435.681372
601.269392	2435.830086
601.619978	2431.340938
601.970510	2434.511824
602.320988	2435.509972
602.671412	2435.630960
603.021783	2436.553491
603.372100	2434.347987
603.722363	2430.042841
604.072572	2436.278748
604.422728	2438.171702
604.772830	2429.402615
605.122878	2429.047213
605.472872	2432.424786
605.822813	2426.894641
606.172701	2436.324119
606.522534	2432.548295
606.872314	2435.759510
607.222041	2433.125507
607.571714	2433.329673
607.921333	2433.188521
608.270899	2434.526948
608.620411	2432.155085
608.969870	2432.404622
609.319276	2431.517379
609.668627	2433.858995
610.017926	2435.288162
610.367171	2432.361772
610.716362	2431.046031
611.065500	2434.214396
611.414585	2434.189190
611.763616	2436.780343
612.112594	2432.485280
612.461518	2435.114242
612.810389	2433.790939
613.159207	2432.729776
613.507971	2431.376226
613.856682	2434.436207
614.205340	2434.607606
614.553945	2437.566763
614.902496	2435.293203
615.250994	2431.343459
615.599439	2433.143151
615.947830	2432.507965
616.296169	2433.778336
616.644454	2434.153902
616.992686	2434.232040
617.340864	2436.172884
617.688990	2432.064344
618.037063	2432.762544
618.385082	2432.714653
618.733048	2433.934612
619.080961	2432.954108
619.428821	2435.378903
619.776628	2432.195414
620.124382	2432.555856
620.472083	2433.743048
620.819731	2436.200611
621.167326	2433.014601
621.514868	2435.361258
621.862357	2431.416556
622.209793	2433.672472
622.557176	2432.175249
622.904506	2427.691143
623.251783	2426.062850
623.599007	2430.851946
623.946179	2429.599220
624.293297	2429.213571
624.640363	2428.409507
624.987376	2428.540577
625.334336	2428.996802
625.681243	2432.147523
626.028097	2429.689960
626.374899	2430.602409
626.721647	2429.558890
627.068343	2434.234561
627.414987	2429.170722
627.761577	2431.444282
628.108115	2430.393201
628.454600	2429.521082
628.801032	2426.987902
629.147412	2428.258273
629.493739	2428.293561
629.840014	2428.739703
630.186236	2429.039652
630.532405	2427.088725
630.878521	2431.729107
631.224585	2427.948242
631.570597	2427.050916
631.916556	2429.856318
632.262462	2427.363468
632.608316	2429.422779
632.954117	2427.169383
633.299866	2429.566452
633.645562	2428.137285
633.991206	2428.880855
634.336797	2427.862542
634.682336	2428.447316
635.027823	2425.611667
635.373257	2427.139137
635.718639	2425.893972
636.063968	2426.405649
636.409245	2425.621749
636.754470	2429.011925
637.099642	2424.999167
637.444762	2425.956986
637.789829	2424.331214
638.134845	2426.075453
638.479808	2423.116296
638.824719	2422.886923
639.169577	2424.893303
639.514383	2426.662748
639.859137	2423.348189
640.203839	2423.396080
640.548489	2425.213416
640.893086	2422.460946
641.237632	2419.184196
641.582125	2422.473549
641.926566	2421.417427
642.270955	2424.278282
642.615292	2423.023034
642.959576	2423.723755
643.303809	2423.804413
643.647990	2422.791141
643.992118	2423.963210
644.336195	2422.433219
