Dividing Wavelength (nm)	Counts (n)	Blue Motor Position (mm): 28.400000	Red Motor Position (mm): 0.000000	
326.493990	1970.942440
326.888308	1970.942440
327.282561	1970.942440
327.676750	1945.330858
328.070874	1948.819336
328.464933	1955.062805
328.858929	1962.190997
329.252859	1974.403192
329.646726	1989.410707
330.040528	2005.991062
330.434265	2025.820441
330.827938	2043.151927
331.221547	2062.870401
331.615091	2083.889492
332.008571	2106.761207
332.401986	2127.782818
332.795338	2145.883081
333.188625	2167.333191
333.581847	2186.013186
333.975006	2200.584642
334.368100	2220.421582
334.761129	2237.808522
335.154095	2252.236304
335.546996	2293.193158
335.939833	2367.696371
336.332606	2381.635161
336.725315	2391.082284
337.117960	2400.103428
337.510540	2406.714902
337.903056	2416.426685
338.295508	2424.111924
338.687896	2433.997626
339.080220	2439.079109
339.472480	2443.137238
339.864676	2447.263423
340.256807	2451.729885
340.648875	2452.980091
341.040879	2455.432613
341.432818	2454.968826
341.824694	2458.230453
342.216506	2453.706017
342.608253	2454.865483
342.999937	2455.293981
343.391557	2456.561831
343.783113	2451.593774
344.174605	2451.707200
344.566033	2450.290636
344.957397	2445.461210
345.348697	2447.097065
345.739934	2443.883329
346.131106	2442.519697
346.522215	2439.245467
346.913260	2439.815118
347.304241	2436.550971
347.695159	2436.941660
348.086012	2436.656835
348.476802	2431.683737
348.867528	2431.935794
349.258191	2428.855649
349.648789	2429.213571
350.039324	2429.364806
350.429796	2426.163673
350.820203	2425.518406
351.210548	2426.017480
351.600828	2424.888261
351.991045	2422.322314
352.381198	2422.455905
352.771288	2424.767274
353.161314	2423.161666
353.551276	2423.809454
353.941175	2422.740730
354.331010	2423.030596
354.720782	2426.572007
355.110490	2426.083015
355.500135	2423.232242
355.889717	2424.603436
356.279235	2426.887079
356.668689	2427.338262
357.058080	2423.693508
357.447408	2423.585123
357.836672	2424.187541
358.225873	2425.697367
358.615010	2424.190062
359.004084	2428.333890
359.393095	2425.450350
359.782043	2430.652821
360.170927	2429.775660
360.559748	2431.071237
360.948505	2431.885383
361.337199	2434.847061
361.725830	2431.416556
362.114398	2433.629622
362.502903	2432.916299
362.891344	2433.606937
363.279722	2432.991916
363.668037	2434.393357
364.056289	2435.280600
364.444478	2436.785384
364.832603	2435.686413
365.220665	2436.251022
365.608665	2436.089705
365.996601	2437.760848
366.384474	2437.397885
366.772284	2440.157916
367.160031	2437.579366
367.547715	2437.455858
367.935336	2437.397885
368.322893	2438.270004
368.710388	2441.622372
369.097820	2442.383586
369.485189	2441.826538
369.872495	2442.998607
370.259738	2441.151024
370.646918	2441.844182
371.034035	2441.592125
371.421090	2444.599173
371.808081	2443.328802
372.195010	2444.137907
372.581875	2443.976590
372.968678	2444.735284
373.355418	2444.906683
373.742096	2445.733433
374.128710	2445.826694
374.515262	2447.588577
374.901751	2448.390121
375.288177	2447.651592
375.674540	2447.016406
376.060841	2450.315841
376.447079	2450.618311
376.833254	2448.165789
377.219367	2444.165634
377.605417	2449.688218
377.991404	2445.103288
378.377329	2448.024637
378.763191	2448.304421
379.148991	2449.090841
379.534727	2452.652416
379.920402	2453.005297
380.306013	2452.599484
380.691563	2451.629062
381.077049	2450.129319
381.462474	2452.017231
381.847835	2455.704835
382.233134	2452.912036
382.618371	2451.303907
383.003545	2455.077211
383.388657	2454.885647
383.773706	2456.392952
384.158693	2455.851028
384.543618	2457.002932
384.928480	2458.185083
385.313280	2453.217025
385.698017	2459.836060
386.082692	2458.275823
386.467305	2457.701132
386.851856	2458.764815
387.236344	2461.043417
387.620770	2461.676082
388.005133	2458.661472
388.389435	2463.896710
388.773674	2461.005608
389.157851	2462.966617
389.541965	2460.690536
389.926018	2462.636421
390.310008	2463.322018
390.693936	2463.122893
391.077802	2463.992492
391.461606	2465.661114
391.845348	2463.195989
392.229027	2465.852678
392.612645	2465.898048
392.996200	2466.329067
393.379694	2465.313274
393.763125	2468.403501
394.146494	2466.429890
394.529801	2471.960035
394.913047	2469.678913
395.296230	2470.616568
395.679351	2468.859726
396.062410	2469.144551
396.445408	2470.172946
396.828343	2471.092957
397.211217	2467.196145
397.594028	2469.978862
397.976778	2467.644808
398.359466	2471.972638
398.742092	2469.411732
399.124656	2471.488688
399.507158	2474.470530
399.889598	2475.105715
400.271977	2475.667804
400.654294	2474.354583
401.036549	2476.134111
401.418742	2473.177474
401.800874	2478.987404
402.182944	2477.994297
402.564952	2479.879688
402.946898	2479.564616
403.328783	2480.106540
403.710606	2478.979842
404.092367	2477.762403
404.474067	2477.338947
404.855705	2479.849441
405.237282	2481.679380
405.618797	2482.483444
406.000250	2482.407827
406.381642	2482.133084
406.762972	2483.400934
407.144240	2483.521922
407.525447	2485.311531
407.906593	2484.797334
408.287677	2485.326655
408.668700	2486.619711
409.049661	2486.186172
409.430560	2486.609628
409.811399	2487.179279
410.192176	2489.135247
410.572891	2488.217757
410.953545	2492.338900
411.334138	2485.699700
411.714669	2490.551811
412.095139	2488.915956
412.475547	2491.764208
412.855894	2487.522077
413.236180	2490.670278
413.616405	2492.144815
413.996568	2492.278406
414.376670	2492.212871
414.756711	2493.420227
415.136691	2495.300578
415.516609	2495.260248
415.896466	2494.138592
416.276262	2498.521875
416.655997	2496.334014
417.035670	2495.197234
417.415283	2500.621516
417.794834	2496.845691
418.174324	2501.793584
418.553753	2501.803666
418.933121	2505.176198
419.312428	2501.886845
419.691674	2503.389109
420.070859	2505.579490
420.449983	2507.071672
420.829045	2505.045128
421.208047	2508.619306
421.586988	2506.441528
421.965867	2509.070489
422.344686	2512.871519
422.723444	2513.050480
423.102141	2508.891528
423.480777	2514.373783
423.859352	2515.684483
424.237866	2517.242200
424.616319	2518.741943
424.994712	2521.106244
425.373044	2521.519619
425.751314	2522.711852
426.129524	2519.077180
426.507673	2525.711338
426.885762	2528.121010
427.263789	2529.466998
427.641756	2529.870290
428.019662	2531.478418
428.397508	2535.569315
428.775292	2535.546629
429.153016	2539.130890
429.530679	2537.540406
429.908282	2543.998124
430.285824	2542.558874
430.663305	2547.111036
431.040726	2549.472817
431.418086	2554.118240
431.795385	2557.130330
432.172624	2562.012687
432.549802	2563.625856
432.926920	2568.994685
433.303977	2574.615572
433.680974	2580.105388
434.057910	2586.658888
434.434786	2595.712801
434.811601	2605.215376
435.188355	2620.890843
435.565050	2629.057513
435.941683	2637.501445
436.318257	2655.710093
436.694770	2662.815599
437.071222	2687.812161
437.447614	2693.039837
437.823946	2709.917620
438.200218	2733.956362
438.576429	2750.367839
438.952580	2777.819442
439.328670	2802.372382
439.704700	2837.846982
440.080670	2857.646113
440.456580	2900.758061
440.832429	2940.247940
441.208218	2955.777214
441.583947	3001.800428
441.959616	3044.856923
442.335224	3101.564863
442.710773	3152.223418
443.086261	3223.585992
443.461689	3254.747884
443.837057	3318.604180
444.212365	3404.444948
444.587612	3475.885659
444.962800	3526.521529
445.337927	3619.452680
445.712995	3622.668936
446.088002	3808.962256
446.462949	3914.518976
446.837837	4013.020602
447.212664	4110.317391
447.587431	4446.421201
447.962139	4825.503367
448.336786	5162.060880
448.711374	5142.670082
449.085901	4913.143827
449.460369	5023.867730
449.834776	5156.462679
450.209124	5589.515438
450.583412	5694.252971
450.957640	5901.406585
451.331808	5877.072936
451.705917	5836.423592
452.079965	5989.735163
452.453954	6202.769283
452.827883	6343.755232
453.201752	6472.705427
453.575562	6658.998747
453.949311	7030.120932
454.323001	7228.021508
454.696632	7366.882611
455.070202	7870.637553
455.443713	8101.598017
455.817164	8436.507073
456.190556	8764.635777
456.563888	8844.636367
456.937160	9155.970467
457.310373	8966.347465
457.683526	9275.047562
458.056619	9485.934151
458.429653	9694.834525
458.802628	10074.793853
459.175542	10349.582107
459.548398	10977.092335
459.921194	11718.192362
460.293930	12209.596478
460.666607	13195.953680
461.039224	14086.178600
461.411782	14510.973949
461.784280	14357.523747
462.156719	14452.476400
462.529099	14523.412996
462.901419	14312.254185
463.273680	14165.576773
463.645882	14477.246109
464.018024	14753.453449
464.390106	15394.806685
464.762130	16891.850417
465.134094	19142.894488
465.505999	22017.829238
465.877845	24719.633121
466.249631	25734.964356
466.621358	25187.706777
466.993026	24454.271824
467.364634	23742.118102
467.736184	23068.980391
468.107674	22743.289085
468.479105	22675.654445
468.850477	22617.194704
469.221790	22148.702633
469.593043	21465.737192
469.964238	21259.072570
470.335373	21491.283239
470.706449	22801.801758
471.077467	24677.174003
471.448425	27902.022804
471.819324	30110.333013
472.190164	29232.539579
472.560945	27185.505963
472.931667	25463.162984
473.302330	25028.484453
473.672934	24736.543672
474.043479	25350.737692
474.413965	25072.365177
474.784393	25070.182357
475.154761	25936.136641
475.525070	26205.427518
475.895321	26118.041637
476.265513	26797.730327
476.635645	27744.063289
477.005719	27870.006436
477.375734	28452.360528
477.745691	29208.243738
478.115588	30445.599991
478.485427	32204.884546
478.855207	35082.234009
479.224928	37455.810886
479.594591	39074.290972
479.964194	38488.360181
480.333739	38870.726659
480.703226	39144.456272
481.072653	39941.941604
481.442022	40614.257608
481.811333	41094.820722
482.180584	40226.983566
482.549777	40006.634732
482.918912	39778.504876
483.287988	39732.363195
483.657005	39235.645704
484.025964	38875.241012
484.394864	39086.006613
484.763706	38911.890201
485.132489	38335.194804
485.501213	38382.858913
485.869879	38686.064152
486.238487	38495.085080
486.607036	38837.850774
486.975527	38525.916777
487.343959	38863.114517
487.712333	39094.175803
488.080648	39147.866612
488.448905	39689.871309
488.817104	39666.003966
489.185244	40669.750629
489.553326	42326.971983
489.921350	45021.297314
490.289315	47998.438938
490.657222	48778.746539
491.025070	49215.055884
491.392861	48395.714629
491.760593	47233.176661
492.128267	45709.931533
492.495883	44357.702507
492.863440	43124.442192
493.230939	41933.837600
493.598380	41005.786383
493.965763	40779.307505
494.333088	40108.135844
494.700354	39723.337009
495.067563	39545.477540
495.434713	39501.327114
495.801805	39621.566195
496.168839	39317.907252
496.535815	39067.820651
496.902733	39166.292030
497.269593	38824.113630
497.636395	38813.524686
498.003139	39242.363041
498.369825	38766.352089
498.736453	39083.722971
499.103023	38704.030825
499.469535	38630.666913
499.835989	38731.898323
500.202385	38446.022050
500.568723	38509.240640
500.935003	38731.832788
501.301226	38569.784898
501.667390	39189.559475
502.033497	39451.182757
502.399546	38929.793859
502.765537	38304.355545
503.131470	38675.573511
503.497345	39033.240856
503.863163	37793.777401
504.228923	38393.742764
504.594625	38805.715939
504.960269	38123.657906
505.325856	38797.876945
505.691385	38206.229485
506.056856	38349.388172
506.422270	38782.433370
506.787625	38385.611383
507.152924	38576.787061
507.518164	38686.164976
507.883347	37936.696633
508.248472	38186.137967
508.613540	38648.555447
508.978550	38960.693611
509.343503	38709.142555
509.708398	38925.879403
510.073236	39462.245569
510.438016	39453.012696
510.802738	38929.158673
511.167403	39539.460922
511.532010	39771.031366
511.896561	40064.726468
512.261053	40875.984233
512.625488	40428.891860
512.989866	40332.651192
513.354186	40170.257983
513.718449	40175.488180
514.082655	40851.668227
514.446803	40521.417198
514.810894	41027.110464
515.174927	40965.583181
515.538904	40876.022042
515.902822	41509.309432
516.266684	41003.107010
516.630488	41414.679412
516.994235	41267.165169
517.357925	41812.247490
517.721558	41986.268121
518.085133	42291.073926
518.448651	42433.738580
518.812112	42209.513098
519.175516	42312.919767
519.538863	42641.585353
519.902152	42605.818367
520.265385	43053.533322
520.628560	43102.162813
520.991678	42893.360741
521.354739	43137.052638
521.717743	43435.856950
522.080690	43341.748690
522.443580	43887.985436
522.806413	43936.287252
523.169189	43889.132298
523.531908	44056.246548
523.894569	43943.896873
524.257174	44080.728912
524.619722	44394.427313
524.982213	44394.621397
525.344647	44310.794571
525.707025	44337.510166
526.069345	44735.920116
526.431608	44669.797821
526.793815	44973.512217
527.155964	44536.681113
527.518057	44700.531216
527.880093	44483.630530
528.242072	44997.235887
528.603995	44690.622828
528.965860	44719.289349
529.327669	44816.576057
529.689421	44711.712495
530.051117	44686.957909
530.412755	44808.243029
530.774337	44882.542075
531.135862	44709.781733
531.497331	44897.118572
531.858743	44801.402184
532.220098	45134.914840
532.581396	44857.714393
532.942638	44513.922824
533.303824	44813.994986
533.664953	44802.475949
534.026025	44528.080904
534.387040	44977.398947
534.747999	44936.295899
535.108902	45089.786431
535.469748	44613.588956
535.830537	44734.939611
536.191270	44934.682730
536.551947	44581.234831
536.912567	44882.113577
537.273131	45007.361045
537.633638	44511.843348
537.994089	44853.749525
538.354483	44453.227332
538.714821	45010.567218
539.075103	45353.206884
539.435328	45139.131765
539.795497	45004.031363
540.155609	45018.570050
540.515665	45458.647658
540.875665	44926.206029
541.235609	45243.609678
541.595496	45209.574328
541.955328	45885.265384
542.315102	45274.643022
542.674821	45061.898767
543.034483	45106.102125
543.394090	45072.911168
543.753640	45033.754006
544.113134	46024.628082
544.472571	45036.584613
544.831953	46264.758404
545.191278	45502.004101
545.550548	45240.811838
545.909761	45679.228385
546.268918	45878.971503
546.628019	46186.378544
546.987064	45751.737822
547.346053	45052.701182
547.704986	45904.204999
548.063863	45474.116438
548.422684	45679.062027
548.781449	45522.970260
549.140158	45927.923628
549.498811	45768.529905
549.857408	45207.696498
550.215949	46040.616102
550.574434	45967.620194
550.932864	45756.302586
551.291237	46469.159549
551.649555	46077.819817
552.007817	46310.285065
552.366022	45965.961654
552.724173	46130.177241
553.082267	46521.211983
553.440305	46824.510483
553.798288	46151.486198
554.156215	46462.762325
554.514086	46668.474169
554.871902	46413.427073
555.229661	46423.390913
555.587365	46255.394461
555.945014	46348.570108
556.302606	46293.371994
556.660143	46516.967331
557.017625	46584.664986
557.375050	46378.885086
557.732421	46736.214674
558.089735	46716.627271
558.446994	46641.067936
558.804197	47083.729135
559.161345	47032.362298
559.518437	46321.630182
559.875474	46612.227495
560.232455	46770.756660
560.589381	46943.028010
560.946251	46633.854045
561.303065	47304.660223
561.659825	47111.216026
562.016528	46798.752708
562.373177	46525.063424
562.729770	47020.220679
563.086307	46528.025102
563.442789	46982.462436
563.799216	47035.893626
564.155587	46826.983169
564.511904	46863.360136
564.868164	46948.469936
565.224370	47189.933643
565.580520	46933.613656
565.936615	47141.659554
566.292654	46867.256947
566.648638	47098.857637
567.004567	47077.911643
567.360441	47110.580841
567.716260	46968.049778
568.072023	47260.161958
568.427732	47259.052904
568.783385	46800.514591
569.138982	47204.673977
569.494525	47168.186106
569.850013	46924.443797
570.205445	46920.002540
570.560823	46858.520628
570.916145	46743.703308
571.271412	46791.460679
571.626625	46550.569142
571.981782	46602.359436
572.336884	46302.040258
572.691931	46615.650438
573.046923	46219.115797
573.401860	46067.510657
573.756743	46051.270580
574.111570	46168.961358
574.466342	46012.809097
574.821059	46156.635737
575.175722	45692.627772
575.530330	45692.201795
575.884882	45431.858966
576.239380	45401.559111
576.593823	45365.945879
576.948211	45294.580785
577.302544	44823.726933
577.656823	44884.767745
578.011047	45090.582933
578.365216	44816.374411
578.719330	44616.888391
579.073389	44473.142410
579.427394	44561.881841
579.781344	44546.619748
580.135239	44199.712746
580.489080	44269.860402
580.842866	43773.200883
581.196597	44220.648658
581.550273	44165.379967
581.903895	44042.096030
582.257463	44463.037417
582.610975	43860.095252
582.964434	44136.617664
583.317837	43793.128565
583.671186	43619.123057
584.024481	43864.387795
584.377721	43393.377667
584.730906	43679.755535
585.084037	43704.863002
585.437113	43412.970112
585.790135	43458.736227
586.143103	43057.752768
586.496016	43190.869476
586.848874	43217.101120
587.201679	43233.817587
587.554428	42723.143661
587.907124	42898.976586
588.259765	42679.449460
588.612352	42914.042075
588.964884	42313.353306
589.317362	42601.543468
589.669786	42549.697722
590.022155	42318.787670
590.374470	42745.695263
590.726731	42283.746609
591.078937	41791.150261
591.431090	41882.112841
591.783188	41542.351675
592.135232	41218.286141
592.487222	41462.913172
592.839157	41573.818557
593.191038	41239.978226
593.542866	41008.173369
593.894639	40406.307491
594.246358	40681.856960
594.598022	40664.323827
594.949633	40281.070106
595.301190	40229.826777
595.652692	40088.548441
596.004141	40408.097101
596.355535	39424.651164
596.706876	39388.463241
597.058162	39214.883712
597.409395	39680.010812
597.760573	39747.567315
598.111698	39324.846400
598.462768	39332.216567
598.813785	39383.182633
599.164748	38843.726239
599.515657	39240.838092
599.866511	38719.214780
600.217312	39321.940175
600.568060	38282.829818
600.918753	39030.816061
601.269392	38998.424127
601.619978	38662.584978
601.970510	38849.339564
602.320988	39042.050273
602.671412	39321.977984
603.021783	39084.312786
603.372100	38733.236750
603.722363	38862.537305
604.072572	38923.300852
604.422728	38936.082698
604.772830	38745.227134
605.122878	38837.054272
605.472872	38783.439080
605.822813	39057.604753
606.172701	38886.553362
606.522534	39125.599836
606.872314	39380.130214
607.222041	39128.032192
607.571714	39524.070280
607.921333	38971.385898
608.270899	39261.799210
608.620411	39600.463925
608.969870	39410.787991
609.319276	39404.652907
609.668627	39455.104775
610.017926	39934.664699
610.367171	40083.131721
610.716362	40178.832985
611.065500	40128.635696
611.414585	40314.167802
611.763616	40621.529472
612.112594	40525.860975
612.461518	40762.616245
612.810389	41033.366536
613.159207	40913.815572
613.507971	40985.183187
613.856682	41461.428553
614.205340	41333.279901
614.553945	42017.455219
614.902496	41479.100317
615.250994	41943.713221
615.599439	42014.667461
615.947830	42229.488670
616.296169	42264.902776
616.644454	42421.445727
616.992686	42586.082249
617.340864	43085.963065
617.688990	42834.482585
618.037063	43420.370526
618.385082	43377.818146
618.733048	43683.889281
619.080961	43702.261767
619.428821	43710.592273
619.776628	43812.453828
620.124382	43615.868993
620.472083	43751.755815
620.819731	43874.883477
621.167326	43552.569744
621.514868	43539.268660
621.862357	43103.513842
622.209793	43111.715799
622.557176	42795.501862
622.904506	42529.795246
623.251783	42198.404916
623.599007	41981.078253
623.946179	41761.389809
624.293297	41714.486914
624.640363	41126.496812
624.987376	41121.279218
625.334336	40875.021373
625.681243	40531.403724
626.028097	40495.112457
626.374899	40344.225681
626.721647	40327.380666
627.068343	40221.483667
627.414987	39974.515020
627.761577	39762.421075
628.108115	40100.511099
628.454600	39558.680322
628.801032	39747.045556
629.147412	39717.262419
629.493739	39722.853058
629.840014	39367.837360
630.186236	39709.168846
630.532405	39336.814100
630.878521	39550.120442
631.224585	39426.818860
631.570597	39136.929829
631.916556	39308.828134
632.262462	39250.030636
632.608316	39266.565621
632.954117	39160.804734
633.299866	39135.984613
633.645562	39062.887882
633.991206	38564.985719
634.336797	38145.869230
634.682336	38138.269690
635.027823	37895.273472
635.373257	37708.987714
635.718639	37471.521642
636.063968	37343.027671
636.409245	36771.355784
636.754470	36825.366706
637.099642	36588.384584
