Dividing Wavelength (nm)	Counts (n)	Blue Motor Position (mm): 25.200000	Red Motor Position (mm): 0.000000	
326.493990	1971.151648
326.888308	1971.151648
327.282561	1971.151648
327.676750	1948.181630
328.070874	1948.103492
328.464933	1955.352672
328.858929	1962.654783
329.252859	1977.919397
329.646726	1992.016983
330.040528	2007.422750
330.434265	2025.311284
330.827938	2046.471527
331.221547	2064.528940
331.615091	2085.099369
332.008571	2105.879005
332.401986	2126.830040
332.795338	2144.753863
333.188625	2167.169353
333.581847	2186.517302
333.975006	2202.109591
334.368100	2223.398383
334.761129	2239.880436
335.154095	2251.868300
335.546996	2290.365071
335.939833	2358.302181
336.332606	2374.663246
336.725315	2386.099103
337.117960	2394.248128
337.510540	2400.476474
337.903056	2410.536096
338.295508	2418.730492
338.687896	2430.741041
339.080220	2433.642225
339.472480	2438.930395
339.864676	2442.620520
340.256807	2444.889039
340.648875	2447.437343
341.040879	2446.580346
341.432818	2450.769545
341.824694	2448.064966
342.216506	2450.580502
342.608253	2449.524380
342.999937	2447.969184
343.391557	2447.598659
343.783113	2446.267795
344.174605	2445.408278
344.566033	2442.242433
344.957397	2442.582711
345.348697	2438.585076
345.739934	2434.647935
346.131106	2438.227154
346.522215	2431.794642
346.913260	2431.855136
347.304241	2432.208017
347.695159	2427.232398
348.086012	2429.997471
348.476802	2426.022521
348.867528	2426.604774
349.258191	2423.990936
349.648789	2424.268199
350.039324	2421.188054
350.429796	2421.203178
350.820203	2418.758218
351.210548	2420.247879
351.600828	2417.697055
351.991045	2416.676222
352.381198	2417.944072
352.771288	2417.414751
353.161314	2416.787127
353.551276	2419.290060
353.941175	2416.136818
354.331010	2415.990625
354.720782	2419.607653
355.110490	2422.914650
355.500135	2416.517425
355.889717	2418.417940
356.279235	2419.204360
356.668689	2419.186716
357.058080	2418.740574
357.447408	2418.551531
357.836672	2416.817374
358.225873	2419.320307
358.615010	2416.716551
359.004084	2419.698393
359.393095	2421.850966
359.782043	2419.267375
360.170927	2421.898857
360.559748	2423.867428
360.948505	2425.657037
361.337199	2426.488828
361.725830	2425.268868
362.114398	2426.660227
362.502903	2428.013777
362.891344	2427.749116
363.279722	2427.497058
363.668037	2426.002356
364.056289	2427.706266
364.444478	2427.365988
364.832603	2430.340269
365.220665	2428.774991
365.608665	2431.167018
365.996601	2430.297419
366.384474	2431.373706
366.772284	2431.323294
367.160031	2432.674323
367.547715	2429.400094
367.935336	2431.610640
368.322893	2434.897472
368.710388	2431.466967
369.097820	2434.615168
369.485189	2432.323963
369.872495	2436.800508
370.259738	2434.458892
370.646918	2434.559715
371.034035	2432.147523
371.421090	2436.419901
371.808081	2436.223296
372.195010	2436.056938
372.581875	2439.729418
372.968678	2436.460230
373.355418	2437.355035
373.742096	2434.731114
374.128710	2438.184305
374.515262	2439.094233
374.901751	2442.088678
375.288177	2439.363935
375.674540	2440.833431
376.060841	2441.140941
376.447079	2438.653132
376.833254	2437.377720
377.219367	2437.927206
377.605417	2440.846034
377.991404	2436.089705
378.377329	2436.263625
378.763191	2435.436876
379.148991	2445.002465
379.534727	2444.415171
379.920402	2444.379883
380.306013	2442.847372
380.691563	2445.128494
381.077049	2443.550613
381.462474	2446.245110
381.847835	2445.602362
382.233134	2445.098247
382.618371	2445.488937
383.003545	2447.853238
383.388657	2445.824173
383.773706	2445.065480
384.158693	2448.871551
384.543618	2447.943978
384.928480	2447.515480
385.313280	2448.732919
385.698017	2448.632096
386.082692	2447.812908
386.467305	2450.477158
386.851856	2451.513115
387.236344	2449.889864
387.620770	2452.279371
388.005133	2452.975050
388.389435	2453.615277
388.773674	2453.305246
389.157851	2451.384566
389.541965	2452.286932
389.926018	2452.380194
390.310008	2451.986984
390.693936	2452.662498
391.077802	2453.746347
391.461606	2454.041254
391.845348	2453.726182
392.229027	2455.319187
392.612645	2451.538321
392.996200	2456.829012
393.379694	2454.502520
393.763125	2456.733230
394.146494	2457.781790
394.529801	2456.700463
394.913047	2458.167438
395.296230	2458.119547
395.679351	2460.224229
396.062410	2458.784980
396.445408	2458.041410
396.828343	2459.639455
397.211217	2455.800617
397.594028	2457.615432
397.976778	2453.819443
398.359466	2464.113479
398.742092	2454.656275
399.124656	2461.723973
399.507158	2460.521657
399.889598	2463.821092
400.271977	2461.035855
400.654294	2463.470732
401.036549	2463.327059
401.418742	2460.277161
401.800874	2463.203551
402.182944	2461.310598
402.564952	2465.371247
402.946898	2466.576083
403.328783	2464.068109
403.710606	2464.100877
404.092367	2463.894189
404.474067	2468.030456
404.855705	2466.845785
405.237282	2468.274952
405.618797	2466.777729
406.000250	2467.143213
406.381642	2468.005250
406.762972	2470.508183
407.144240	2470.145220
407.525447	2470.704788
407.906593	2468.101032
408.287677	2470.074644
408.668700	2469.245374
409.049661	2472.050776
409.430560	2468.562298
409.811399	2469.840230
410.192176	2468.683285
410.572891	2470.664459
410.953545	2471.241671
411.334138	2471.899542
411.714669	2468.552215
412.095139	2472.716208
412.475547	2472.650673
412.855894	2472.953143
413.236180	2475.309882
413.616405	2475.660242
413.996568	2472.073461
414.376670	2474.198308
414.756711	2475.299800
415.136691	2477.354070
415.516609	2476.141673
415.896466	2475.224182
416.276262	2475.854327
416.655997	2474.581435
417.035670	2473.313585
417.415283	2476.988586
417.794834	2473.734522
418.174324	2480.398927
418.553753	2480.615697
418.933121	2479.647795
419.312428	2482.662405
419.691674	2480.272898
420.070859	2482.692652
420.449983	2484.227683
420.829045	2481.472693
421.208047	2484.845225
421.586988	2483.950420
421.965867	2484.159628
422.344686	2485.099803
422.723444	2486.435709
423.102141	2482.997642
423.480777	2486.733137
423.859352	2486.042499
424.237866	2486.448312
424.616319	2486.208857
424.994712	2487.585092
425.373044	2487.577530
425.751314	2490.698004
426.129524	2486.644917
426.507673	2491.648262
426.885762	2489.127685
427.263789	2492.245638
427.641756	2491.630618
428.019662	2490.672798
428.397508	2493.979795
428.775292	2491.406286
429.153016	2494.166318
429.530679	2497.690085
429.908282	2496.177738
430.285824	2493.944507
430.663305	2495.635814
431.040726	2496.495331
431.418086	2495.066164
431.795385	2499.489777
432.172624	2499.106649
432.549802	2500.142606
432.926920	2497.861484
433.303977	2499.716628
433.680974	2499.323418
434.057910	2501.629746
434.434786	2504.054541
434.811601	2500.777791
435.188355	2505.294665
435.565050	2506.502022
435.941683	2505.123266
436.318257	2507.578308
436.694770	2504.777947
437.071222	2511.399503
437.447614	2504.490601
437.823946	2508.452948
438.200218	2510.557630
438.576429	2513.352950
438.952580	2512.891684
439.328670	2511.427229
439.704700	2514.761952
440.080670	2515.613907
440.456580	2516.397807
440.832429	2519.961902
441.208218	2521.292767
441.583947	2521.736388
441.959616	2519.041892
442.335224	2524.440968
442.710773	2522.792510
443.086261	2525.045906
443.461689	2525.270237
443.837057	2530.530681
444.212365	2527.150588
444.587612	2533.971269
444.962800	2533.920857
445.337927	2534.949253
445.712995	2533.757020
446.088002	2540.781868
446.462949	2544.724050
446.837837	2545.702034
447.212664	2550.891902
447.587431	2559.789538
447.962139	2573.042732
448.336786	2582.971284
448.711374	2582.951120
449.085901	2576.561457
449.460369	2577.967939
449.834776	2582.991449
450.209124	2598.913933
450.583412	2604.423914
450.957640	2610.311982
451.331808	2612.693927
451.705917	2614.102930
452.079965	2621.873868
452.453954	2630.153964
452.827883	2643.732312
453.201752	2648.261788
453.575562	2660.216885
453.949311	2679.269926
454.323001	2695.333562
454.696632	2708.909390
455.070202	2738.437948
455.443713	2753.989908
455.817164	2778.308434
456.190556	2804.502269
456.563888	2821.743016
456.937160	2846.474916
457.310373	2852.002542
457.683526	2884.223076
458.056619	2914.008734
458.429653	2943.711212
458.802628	2987.599498
459.175542	3022.713655
459.548398	3093.400714
459.921194	3176.788960
460.293930	3253.265785
460.666607	3366.595964
461.039224	3474.108653
461.411782	3543.298489
461.784280	3560.635017
462.156719	3599.547684
462.529099	3636.877428
462.901419	3659.857528
463.273680	3688.208977
463.645882	3760.148763
464.018024	3838.594158
464.390106	3961.636120
464.762130	4202.971278
465.134094	4562.834046
465.505999	5025.221279
465.877845	5450.707267
466.249631	5641.532584
466.621358	5624.949708
466.993026	5590.803453
467.364634	5567.145318
467.736184	5563.238424
468.107674	5601.836018
468.479105	5672.170197
468.850477	5751.991827
469.221790	5758.941057
469.593043	5735.431636
469.964238	5785.273524
470.335373	5907.556793
470.706449	6237.933852
471.077467	6696.504932
471.448425	7411.325424
471.819324	7943.819984
472.190164	7888.374853
472.560945	7593.726973
472.931667	7350.907195
473.302330	7369.312447
473.672934	7424.376971
474.043479	7669.470309
474.413965	7727.486428
474.784393	7830.688930
475.154761	8144.455386
475.525070	8332.185435
475.895321	8435.708050
476.265513	8715.683652
476.635645	9081.787368
477.005719	9257.340509
477.375734	9543.647801
477.745691	9880.187670
478.115588	10370.233194
478.485427	11032.880264
478.855207	12037.559541
479.224928	12952.062657
479.594591	13631.751348
479.964194	13645.758194
480.333739	13938.855920
480.703226	14242.517383
481.072653	14730.153236
481.442022	15187.272464
481.811333	15569.061730
482.180584	15480.634850
482.549777	15627.360153
482.918912	15783.772034
483.287988	15991.828015
483.657005	16025.039136
484.025964	16118.918024
484.394864	16419.819456
484.763706	16579.722335
485.132489	16571.749750
485.501213	16822.017833
485.869879	17189.580963
486.238487	17345.866814
486.607036	17738.857524
486.975527	17849.122682
487.343959	18242.047857
487.712333	18581.002439
488.080648	18858.442341
488.448905	19350.889975
488.817104	19591.335369
489.185244	20335.487815
489.553326	21436.185948
489.921350	23068.909815
490.289315	24909.465331
490.657222	25629.589117
491.025070	26153.029765
491.392861	26026.998398
491.760593	25697.052358
492.128267	25144.937627
492.495883	24687.410066
492.863440	24297.650736
493.230939	23919.347428
493.598380	23684.248177
493.965763	23814.400687
494.333088	23687.230019
494.700354	23744.489965
495.067563	23883.714032
495.434713	24102.684111
495.801805	24454.349962
496.168839	24519.839592
496.535815	24622.376661
496.902733	24919.567803
497.269593	24975.466638
497.636395	25205.912904
498.003139	25738.896456
498.369825	25667.697719
498.736453	26121.020958
499.103023	26104.533865
499.469535	26306.006099
499.835989	26627.392259
500.202385	26666.617477
500.568723	26935.704187
500.935003	27350.258433
501.301226	27453.216438
501.667390	28138.079874
502.033497	28576.108252
502.399546	28434.555172
502.765537	28213.629126
503.131470	28731.474093
503.497345	29216.584327
503.863163	28504.740637
504.228923	29186.972590
504.594625	29725.632481
504.960269	29425.593087
505.325856	30168.127322
505.691385	29925.451217
506.056856	30240.263713
506.422270	30790.661931
506.787625	30691.802383
507.152924	31044.289942
507.518164	31340.482937
507.883347	30944.051639
508.248472	31324.076502
508.613540	31924.949272
508.978550	32351.826618
509.343503	32360.036138
509.708398	32703.134548
510.073236	33341.447968
510.438016	33532.230436
510.802738	33266.717904
511.167403	33950.989003
511.532010	34348.058007
511.896561	34762.571923
512.261053	35653.812635
512.625488	35435.986898
512.989866	35495.555692
513.354186	35544.031427
513.718449	35679.686357
514.082655	36432.454134
514.446803	36302.465462
514.810894	36916.621673
515.174927	37006.361773
515.538904	37059.258601
515.902822	37789.623490
516.266684	37444.559030
516.630488	37956.037020
516.994235	37942.599824
517.357925	38588.296015
517.721558	38869.657934
518.085133	39266.195096
518.448651	39526.926093
518.812112	39427.638048
519.175516	39643.255760
519.538863	40056.602649
519.902152	40113.703798
520.265385	40645.389253
520.628560	40777.749789
520.991678	40683.422238
521.354739	40998.983346
521.717743	41386.779147
522.080690	41382.534495
522.443580	41964.931437
522.806413	42098.824483
523.169189	42143.973057
523.531908	42398.916810
523.894569	42329.243023
524.257174	42547.136815
524.619722	42920.865276
524.982213	42961.456647
525.344647	42938.416053
525.707025	43046.304307
526.069345	43496.547402
526.431608	43476.586953
526.793815	43813.555320
527.155964	43438.662352
527.518057	43642.587108
527.880093	43482.699352
528.242072	44045.511411
528.603995	43797.736179
528.965860	43839.837376
529.327669	43966.072909
529.689421	43925.385756
530.051117	43909.569136
530.412755	44080.441566
530.774337	44175.527810
531.135862	44028.805028
531.497331	44239.152213
531.858743	44175.356411
532.220098	44556.200461
532.581396	44279.869612
532.942638	43978.897604
533.303824	44285.921518
533.664953	44280.028409
534.026025	44037.112849
534.387040	44521.290470
534.747999	44479.156506
535.108902	44657.825081
535.469748	44213.172627
535.830537	44332.542108
536.191270	44553.576540
536.551947	44218.357453
536.912567	44532.653231
537.273131	44652.867106
537.633638	44175.971432
537.994089	44535.597265
538.354483	44146.326927
538.714821	44718.760028
539.075103	45070.856898
539.435328	44855.667684
539.795497	44748.548206
540.155609	44760.349547
540.515665	45217.723353
540.875665	44693.342530
541.235609	45024.236307
541.595496	44987.390514
541.955328	45682.658890
542.315102	45047.864195
542.674821	44859.874527
543.034483	44925.442295
543.394090	44889.773611
543.753640	44856.007962
544.113134	45841.089753
544.472571	44880.084513
544.831953	46108.709487
545.191278	45350.628333
545.550548	45076.681951
545.909761	45537.090532
546.268918	45741.509320
546.628019	46044.611216
546.987064	45615.359487
547.346053	44940.601044
547.704986	45794.809440
548.063863	45380.020781
548.422684	45579.395895
548.781449	45430.817968
549.140158	45826.324213
549.498811	45667.492579
549.857408	45134.418286
550.215949	45953.620910
550.574434	45907.998467
550.932864	45691.788420
551.291237	46402.187820
551.649555	46003.508168
552.007817	46251.701816
552.366022	45919.492298
552.724173	46102.087932
553.082267	46491.459093
553.440305	46790.621327
553.798288	46129.378218
554.156215	46428.729495
554.514086	46645.809141
554.871902	46378.353245
555.229661	46409.255518
555.587365	46246.353152
555.945014	46339.155753
556.302606	46278.845909
556.660143	46489.278794
557.017625	46583.765140
557.375050	46398.328817
557.732421	46748.883093
558.089735	46740.209788
558.446994	46647.976838
558.804197	47111.785677
559.161345	47029.509005
559.518437	46323.434915
559.875474	46620.184956
560.232455	46791.027140
560.589381	46955.242726
560.946251	46657.930596
561.303065	47333.619131
561.659825	47139.131416
562.016528	46841.663009
562.373177	46562.804023
562.729770	47040.753298
563.086307	46560.696820
563.442789	47002.715272
563.799216	47058.185608
564.155587	46858.140021
564.511904	46878.050058
564.868164	46969.365519
565.224370	47211.966006
565.580520	46948.679144
565.936615	47159.038932
566.292654	46887.338384
566.648638	47132.635889
567.004567	47089.128211
567.360441	47116.214330
567.716260	46979.155439
568.072023	47283.709187
568.427732	47260.277904
568.783385	46808.905592
569.138982	47203.718679
569.494525	47172.095521
569.850013	46936.648430
570.205445	46890.284938
570.560823	46865.167389
570.916145	46749.833351
571.271412	46770.998635
571.626625	46534.684467
571.981782	46590.111953
572.336884	46284.156764
572.691931	46590.273270
573.046923	46200.534104
573.401860	46052.117494
573.756743	46034.460853
574.111570	46152.229768
574.466342	45988.001579
574.821059	46119.182484
575.175722	45653.417677
575.530330	45666.070974
575.884882	45399.973668
576.239380	45354.694024
576.593823	45336.593761
576.948211	45240.895017
577.302544	44795.665351
577.656823	44810.554398
578.011047	45029.824426
578.365216	44771.654335
578.719330	44555.209874
579.073389	44425.916881
579.427394	44505.433521
579.781344	44477.306403
580.135239	44132.289834
580.489080	44223.012959
580.842866	43709.437849
581.196597	44161.717569
581.550273	44117.390703
581.903895	43960.141992
582.257463	44392.751129
582.610975	43792.750478
582.964434	44061.484307
583.317837	43732.289399
583.671186	43568.285541
584.024481	43792.679902
584.377721	43321.959641
584.730906	43614.757418
585.084037	43634.226354
585.437113	43347.299001
585.790135	43397.254315
586.143103	42990.586955
586.496016	43136.730005
586.848874	43139.863082
587.201679	43176.361036
587.554428	42645.759429
587.907124	42855.257180
588.259765	42609.768111
588.612352	42863.413767
588.964884	42269.517953
589.317362	42543.824777
589.669786	42490.512055
590.022155	42279.106227
590.374470	42686.620501
590.726731	42230.340625
591.078937	41741.817530
591.431090	41843.167407
591.783188	41489.946360
592.135232	41193.042563
592.487222	41418.576224
592.839157	41513.594413
593.191038	41206.530170
593.542866	40945.620212
593.894639	40379.637267
594.246358	40657.893835
594.598022	40634.094548
594.949633	40244.577193
595.301190	40205.341893
595.652692	40045.426411
596.004141	40381.540302
596.355535	39409.933516
596.706876	39355.519301
597.058162	39190.141728
597.409395	39648.773303
597.760573	39729.066280
598.111698	39311.809977
598.462768	39321.909928
598.813785	39374.806756
599.164748	38837.107204
599.515657	39221.522911
599.866511	38689.625728
600.217312	39302.730858
600.568060	38292.297105
600.918753	39019.158393
601.269392	38993.723251
601.619978	38652.608535
601.970510	38863.275834
602.320988	39046.123525
602.671412	39324.995114
603.021783	39086.261192
603.372100	38736.314374
603.722363	38852.076910
604.072572	38916.180223
604.422728	38937.947925
604.772830	38748.715613
605.122878	38853.347281
605.472872	38795.931059
605.822813	39072.874408
606.172701	38904.736803
606.522534	39118.242272
606.872314	39392.844004
607.222041	39178.151344
607.571714	39545.898476
607.921333	39004.423100
608.270899	39290.314497
608.620411	39627.303028
608.969870	39416.413919
609.319276	39417.417108
609.668627	39472.637908
610.017926	39954.080703
610.367171	40110.774888
610.716362	40198.266633
611.065500	40156.848513
611.414585	40330.433084
611.763616	40634.500361
612.112594	40571.158263
612.461518	40768.756370
612.810389	41061.110526
613.159207	40929.559096
613.507971	41001.778666
613.856682	41470.427012
614.205340	41363.625127
614.553945	42046.270454
614.902496	41497.102278
615.250994	41972.520894
615.599439	42059.153123
615.947830	42271.242027
616.296169	42309.133860
616.644454	42436.304527
616.992686	42606.526649
617.340864	43118.997746
617.688990	42843.503729
618.037063	43435.027681
618.385082	43403.901076
618.733048	43704.361407
619.080961	43720.712390
619.428821	43727.984254
619.776628	43822.475642
620.124382	43656.437678
620.472083	43786.481803
620.819731	43907.290535
621.167326	43573.440121
621.514868	43559.803800
621.862357	43121.094866
622.209793	43142.975994
622.557176	42836.194056
622.904506	42568.082810
623.251783	42221.954666
623.599007	42001.028619
623.946179	41779.908488
624.293297	41741.270564
624.640363	41147.962045
624.987376	41141.796714
625.334336	40906.019428
625.681243	40552.097660
626.028097	40511.375219
626.374899	40380.700950
626.721647	40360.770748
627.068343	40257.391806
627.414987	40025.133246
627.761577	39821.636988
628.108115	40130.730295
628.454600	39575.953835
628.801032	39762.559707
629.147412	39724.123429
629.493739	39750.387841
629.840014	39393.658150
630.186236	39724.718285
630.532405	39354.899239
630.878521	39570.993340
631.224585	39447.661511
631.570597	39166.130713
631.916556	39323.293725
632.262462	39276.458885
632.608316	39289.258375
632.954117	39177.027167
633.299866	39169.508286
633.645562	39094.470711
633.991206	38602.570042
634.336797	38178.810650
634.682336	38164.065275
635.027823	37931.557177
635.373257	37745.173116
635.718639	37514.767180
636.063968	37383.863538
636.409245	36817.346230
636.754470	36860.743003
637.099642	36614.742257
637.444762	36158.628740
637.789829	36300.643085
