Dividing Wavelength (nm)	Counts (n)	Blue Motor Position (mm): 28.800000	Red Motor Position (mm): 0.000000	
326.493990	1969.972018
326.888308	1969.972018
327.282561	1969.972018
327.676750	1945.537545
328.070874	1948.405962
328.464933	1952.264965
328.858929	1963.204269
329.252859	1976.195322
329.646726	1992.206027
330.040528	2006.033912
330.434265	2026.783301
330.827938	2043.562782
331.221547	2063.024156
331.615091	2083.143401
332.008571	2104.664087
332.401986	2126.761985
332.795338	2146.200674
333.188625	2165.281441
333.581847	2186.424040
333.975006	2203.286700
334.368100	2220.383773
334.761129	2238.027812
335.154095	2251.389390
335.546996	2293.924126
335.939833	2368.235774
336.332606	2378.739018
336.725315	2393.552449
337.117960	2401.131824
337.510540	2405.832700
337.903056	2421.379618
338.295508	2423.660740
338.687896	2431.429158
339.080220	2438.668255
339.472480	2443.469954
339.864676	2448.059925
340.256807	2451.669391
340.648875	2455.160390
341.040879	2454.898250
341.432818	2458.164918
341.824694	2457.605350
342.216506	2457.743982
342.608253	2454.401697
342.999937	2455.654423
343.391557	2454.217694
343.783113	2454.426902
344.174605	2451.210646
344.566033	2449.965481
344.957397	2446.411468
345.348697	2448.407765
345.739934	2443.938782
346.131106	2442.991045
346.522215	2442.141610
346.913260	2441.884512
347.304241	2440.878801
347.695159	2434.189190
348.086012	2436.634150
348.476802	2430.400763
348.867528	2431.535023
349.258191	2428.878335
349.648789	2430.604930
350.039324	2429.379929
350.429796	2430.541915
350.820203	2429.440423
351.210548	2422.120668
351.600828	2426.887079
351.991045	2423.043199
352.381198	2426.398087
352.771288	2423.310380
353.161314	2425.992274
353.551276	2427.986050
353.941175	2424.477407
354.331010	2422.942376
354.720782	2427.358427
355.110490	2428.515372
355.500135	2424.459763
355.889717	2422.355082
356.279235	2426.234249
356.668689	2426.042686
357.058080	2423.638055
357.447408	2423.396080
357.836672	2421.707293
358.225873	2423.028076
358.615010	2424.782397
359.004084	2428.515372
359.393095	2432.265990
359.782043	2429.558890
360.170927	2430.869590
360.559748	2429.311874
360.948505	2429.722728
361.337199	2433.785898
361.725830	2436.677000
362.114398	2433.979982
362.502903	2434.844540
362.891344	2434.307657
363.279722	2435.928388
363.668037	2436.934098
364.056289	2434.942843
364.444478	2435.555343
364.832603	2435.867894
365.220665	2439.132042
365.608665	2439.794953
365.996601	2436.717329
366.384474	2438.365786
366.772284	2441.264450
367.160031	2440.291507
367.547715	2439.174891
367.935336	2438.968204
368.322893	2440.888884
368.710388	2440.296548
369.097820	2442.681014
369.485189	2442.461724
369.872495	2446.051025
370.259738	2442.615479
370.646918	2442.174378
371.034035	2442.428956
371.421090	2443.870726
371.808081	2441.196394
372.195010	2446.212342
372.581875	2443.381734
372.968678	2448.392641
373.355418	2445.360387
373.742096	2449.113526
374.128710	2447.873402
374.515262	2448.047322
374.901751	2447.268464
375.288177	2448.979936
375.674540	2449.138732
376.060841	2448.929524
376.447079	2450.935903
376.833254	2447.613783
377.219367	2446.081272
377.605417	2448.586726
377.991404	2445.262085
378.377329	2448.954730
378.763191	2446.295521
379.148991	2454.033692
379.534727	2451.137549
379.920402	2453.700976
380.306013	2452.773404
380.691563	2454.373970
381.077049	2454.840277
381.462474	2455.190637
381.847835	2456.846656
382.233134	2454.300873
382.618371	2456.382870
383.003545	2455.480503
383.388657	2454.573096
383.773706	2456.823971
384.158693	2458.674074
384.543618	2457.580144
384.928480	2459.447892
385.313280	2459.737758
385.698017	2458.222891
386.082692	2460.496452
386.467305	2460.821606
386.851856	2463.884107
387.236344	2459.727676
387.620770	2464.342852
388.005133	2460.229270
388.389435	2461.575258
388.773674	2462.336473
389.157851	2464.519292
389.541965	2465.461988
389.926018	2462.041565
390.310008	2462.979220
390.693936	2465.446865
391.077802	2460.609877
391.461606	2465.663634
391.845348	2463.173304
392.229027	2466.240846
392.612645	2465.464509
392.996200	2467.541464
393.379694	2466.689509
393.763125	2467.296968
394.146494	2467.813686
394.529801	2471.350056
394.913047	2470.417442
395.296230	2470.160343
395.679351	2470.364510
396.062410	2472.441466
396.445408	2471.294603
396.828343	2472.995993
397.211217	2467.680096
397.594028	2471.108080
397.976778	2467.458285
398.359466	2473.414408
398.742092	2470.808132
399.124656	2475.564460
399.507158	2478.029585
399.889598	2476.640747
400.271977	2479.521766
400.654294	2477.248206
401.036549	2476.963381
401.418742	2475.778709
401.800874	2480.560244
402.182944	2478.198463
402.564952	2478.654688
402.946898	2480.537559
403.328783	2483.857158
403.710606	2481.076962
404.092367	2482.014617
404.474067	2485.608959
404.855705	2486.206336
405.237282	2483.176603
405.618797	2485.835811
406.000250	2483.317755
406.381642	2486.254227
406.762972	2488.764722
407.144240	2488.396718
407.525447	2485.873620
407.906593	2489.833446
408.287677	2489.941831
408.668700	2487.320431
409.049661	2489.926708
409.430560	2488.948724
409.811399	2492.031389
410.192176	2492.331338
410.572891	2491.010556
410.953545	2491.013076
411.334138	2493.024497
411.714669	2493.079949
412.095139	2490.524084
412.475547	2493.596668
412.855894	2492.797645
413.236180	2495.323263
413.616405	2496.447440
413.996568	2493.884013
414.376670	2494.231853
414.756711	2495.963489
415.136691	2496.142450
415.516609	2497.995074
415.896466	2498.473984
416.276262	2502.096053
416.655997	2500.530775
417.035670	2498.542040
417.415283	2506.469254
417.794834	2501.486073
418.174324	2505.602176
418.553753	2502.620333
418.933121	2504.677124
419.312428	2506.013030
419.691674	2507.351456
420.070859	2508.243740
420.449983	2510.287928
420.829045	2510.043432
421.208047	2508.604183
421.586988	2513.524349
421.965867	2515.840759
422.344686	2515.840759
422.723444	2519.036851
423.102141	2517.577437
423.480777	2518.227745
423.859352	2518.951151
424.237866	2523.208405
424.616319	2522.432068
424.994712	2527.195958
425.373044	2529.608150
425.751314	2530.933974
426.129524	2525.817203
426.507673	2533.827596
426.885762	2535.027391
427.263789	2537.116949
427.641756	2542.967208
428.019662	2541.898483
428.397508	2543.148689
428.775292	2546.261602
429.153016	2550.289484
429.530679	2553.135215
429.908282	2558.632593
430.285824	2558.753581
430.663305	2564.356824
431.040726	2570.265056
431.418086	2574.333267
431.795385	2580.554051
432.172624	2590.003694
432.549802	2595.624580
432.926920	2604.118925
433.303977	2612.686366
433.680974	2624.034003
434.057910	2637.559419
434.434786	2649.088537
434.811601	2664.390960
435.188355	2688.815350
435.565050	2701.627443
435.941683	2720.307438
436.318257	2747.116295
436.694770	2768.095056
437.071222	2802.500931
437.447614	2816.621203
437.823946	2842.051304
438.200218	2877.243599
438.576429	2908.034967
438.952580	2952.366873
439.328670	2991.266937
439.704700	3042.802653
440.080670	3077.090061
440.456580	3141.599186
440.832429	3202.859287
441.208218	3221.037688
441.583947	3290.328348
441.959616	3355.944006
442.335224	3434.999381
442.710773	3508.698530
443.086261	3611.898511
443.461689	3654.002227
443.837057	3735.837798
444.212365	3862.194320
444.587612	3954.865851
444.962800	4016.493957
445.337927	4141.259994
445.712995	4131.016369
446.088002	4386.537334
446.462949	4519.371738
446.837837	4651.807891
447.212664	4766.708390
447.587431	5215.766812
447.962139	5718.521086
448.336786	6163.924672
448.711374	6121.337004
449.085901	5781.759840
449.460369	5915.221867
449.834776	6070.436474
450.209124	6629.596217
450.583412	6738.636375
450.957640	6987.656772
451.331808	6933.139214
451.705917	6857.935281
452.079965	7024.963831
452.453954	7280.215094
452.827883	7441.083355
453.201752	7575.528407
453.575562	7800.875546
453.949311	8252.179803
454.323001	8480.816294
454.696632	8622.051781
455.070202	9221.142504
455.443713	9482.407864
455.817164	9864.474393
456.190556	10242.359286
456.563888	10316.192025
456.937160	10661.624489
457.310373	10399.454242
457.683526	10750.101781
458.056619	10978.902110
458.429653	11201.146418
458.802628	11624.000923
459.175542	11912.627146
459.548398	12639.700162
459.921194	13518.065767
460.293930	14069.217637
460.666607	15157.990922
461.039224	16178.809452
461.411782	16656.209242
461.784280	16426.085610
462.156719	16499.605798
462.529099	16544.323353
462.901419	16244.258753
463.273680	16043.782146
463.645882	16366.438678
464.018024	16642.220040
464.390106	17345.324890
464.762130	19051.248831
465.134094	21512.703102
465.505999	24772.156903
465.877845	27773.922043
466.249631	28882.633091
466.621358	28213.566111
466.993026	27320.568557
467.364634	26443.949712
467.736184	25641.390458
468.107674	25231.148920
468.479105	25075.379787
468.850477	24967.809125
469.221790	24384.144333
469.593043	23579.465274
469.964238	23299.741729
470.335373	23501.907122
470.706449	24908.943572
471.077467	26915.020333
471.448425	30418.536557
471.819324	32755.776797
472.190164	31760.557246
472.560945	29490.807973
472.931667	27538.923616
473.302330	27014.628492
473.672934	26662.125809
474.043479	27280.839224
474.413965	26938.413808
474.784393	26886.510088
475.154761	27778.902703
475.525070	28048.964877
475.895321	27908.556139
476.265513	28580.582276
476.635645	29552.310050
477.005719	29634.561516
477.375734	30220.396525
477.745691	30967.321606
478.115588	32257.380601
478.485427	34094.518215
478.855207	37073.194870
479.224928	39530.989263
479.594591	41197.836700
479.964194	40535.907995
480.333739	40864.576102
480.703226	41116.180090
481.072653	41892.240519
481.442022	42550.630335
481.811333	43006.738812
482.180584	42050.474777
482.549777	41771.179730
482.918912	41481.953611
483.287988	41397.363049
483.657005	40824.055307
484.025964	40432.375298
484.394864	40597.203384
484.763706	40362.232683
485.132489	39719.659487
485.501213	39714.913241
485.869879	40001.439823
486.238487	39779.550916
486.607036	40096.556313
486.975527	39720.347605
487.343959	40045.191997
487.712333	40236.695349
488.080648	40283.840220
488.448905	40773.744592
488.817104	40718.740562
489.185244	41697.697351
489.553326	43373.296231
489.921350	46072.919815
490.289315	49082.778528
490.657222	49819.775056
491.025070	50223.379915
491.392861	49373.751407
491.760593	48170.798509
492.128267	46570.910198
492.495883	45168.463719
492.863440	43891.519285
493.230939	42651.345027
493.598380	41679.415607
493.965763	41439.955758
494.333088	40721.188043
494.700354	40325.573412
495.067563	40109.191966
495.434713	40043.334332
495.801805	40162.353453
496.168839	39845.095998
496.535815	39558.135877
496.902733	39627.577771
497.269593	39272.257083
497.636395	39240.613761
498.003139	39656.786217
498.369825	39161.565948
498.736453	39483.040329
499.103023	39057.037623
499.469535	38963.917429
499.835989	39076.897248
500.202385	38785.944534
500.568723	38821.499792
500.935003	39032.404025
501.301226	38866.764312
501.667390	39475.607147
502.033497	39737.898382
502.399546	39188.730205
502.765537	38558.606139
503.131470	38941.391033
503.497345	39290.848859
503.863163	38010.695731
504.228923	38613.942885
504.594625	39016.698310
504.960269	38336.598765
505.325856	39007.014253
505.691385	38397.077488
506.056856	38546.870333
506.422270	38978.037701
506.787625	38556.985408
507.152924	38760.325390
507.518164	38868.001915
507.883347	38122.886609
508.248472	38352.427988
508.613540	38837.719704
508.978550	39129.748705
509.343503	38885.151921
509.708398	39080.574770
510.073236	39604.035583
510.438016	39608.378537
510.802738	39071.825848
511.167403	39684.441987
511.532010	39919.601731
511.896561	40218.161547
512.261053	41023.160720
512.625488	40598.451070
512.989866	40463.322941
513.354186	40314.639149
513.718449	40308.478859
514.082655	40972.078708
514.446803	40655.106077
514.810894	41168.403924
515.174927	41088.506676
515.538904	41007.298729
515.902822	41643.540235
516.266684	41121.213683
516.630488	41524.327029
516.994235	41384.750082
517.357925	41936.592591
517.721558	42106.542490
518.085133	42407.375866
518.448651	42537.979559
518.812112	42308.833911
519.175516	42430.852520
519.538863	42743.739295
519.902152	42715.362640
520.265385	43161.189683
520.628560	43206.774317
520.991678	43010.756611
521.354739	43219.271337
521.717743	43540.440728
522.080690	43431.519037
522.443580	43978.464065
522.806413	44021.366805
523.169189	43977.405423
523.531908	44153.240869
523.894569	44021.021486
524.257174	44183.298749
524.619722	44470.954549
524.982213	44465.126975
525.344647	44386.484975
525.707025	44429.264207
526.069345	44838.605899
526.431608	44735.473974
526.793815	45057.288632
527.155964	44609.004027
527.518057	44751.673722
527.880093	44552.603597
528.242072	45078.693372
528.603995	44767.003870
528.965860	44774.406805
529.327669	44877.513524
529.689421	44776.882011
530.051117	44749.538793
530.412755	44882.824380
530.774337	44938.176249
531.135862	44747.993679
531.497331	44951.565554
531.858743	44863.151277
532.220098	45191.128746
532.581396	44913.151962
532.942638	44578.994038
533.303824	44874.498914
533.664953	44852.713568
534.026025	44575.228296
534.387040	45036.766095
534.747999	44972.957690
535.108902	45137.143030
535.469748	44676.215210
535.830537	44789.991532
536.191270	44995.998284
536.551947	44645.254964
536.912567	44938.682885
537.273131	45055.995576
537.633638	44554.632662
537.994089	44899.752575
538.354483	44519.112692
538.714821	45080.268732
539.075103	45401.460808
539.435328	45195.688470
539.795497	45077.244040
540.155609	45051.423250
540.515665	45518.024888
540.875665	44962.769518
541.235609	45302.409697
541.595496	45284.175843
541.955328	45915.635815
542.315102	45314.884032
542.674821	45095.820692
543.034483	45139.411549
543.394090	45121.177696
543.753640	45068.719449
544.113134	46047.736731
544.472571	45097.464108
544.831953	46319.580952
545.191278	45536.795624
545.550548	45271.963648
545.909761	45722.305045
546.268918	45914.804025
546.628019	46228.136942
546.987064	45795.235418
547.346053	45087.170072
547.704986	45942.106914
548.063863	45515.907603
548.422684	45712.452110
548.781449	45571.163691
549.140158	45952.615199
549.498811	45796.341951
549.857408	45249.565802
550.215949	46077.091370
550.574434	45996.458114
550.932864	45796.586447
551.291237	46500.404620
551.649555	46097.248424
552.007817	46350.848709
552.366022	45997.897364
552.724173	46167.446491
553.082267	46564.447439
553.440305	46831.305959
553.798288	46198.646192
554.156215	46490.990266
554.514086	46701.982719
554.871902	46454.026005
555.229661	46455.001468
555.587365	46295.542210
555.945014	46390.288176
556.302606	46334.664085
556.660143	46549.772640
557.017625	46630.050494
557.375050	46424.867971
557.732421	46765.591998
558.089735	46764.540917
558.446994	46680.653597
558.804197	47132.434243
559.161345	47068.807319
559.518437	46338.112234
559.875474	46659.642067
560.232455	46833.952565
560.589381	46984.390678
560.946251	46683.035542
561.303065	47357.935137
561.659825	47169.632917
562.016528	46855.253960
562.373177	46567.837615
562.729770	47060.597800
563.086307	46573.093018
563.442789	47038.106692
563.799216	47080.759895
564.155587	46886.864515
564.511904	46918.941377
564.868164	47017.011984
565.224370	47240.685460
565.580520	46996.305445
565.936615	47203.375880
566.292654	46931.042667
566.648638	47160.727719
567.004567	47125.656411
567.360441	47159.243099
567.716260	47044.483752
568.072023	47334.269440
568.427732	47304.793813
568.783385	46869.172586
569.138982	47260.625744
569.494525	47230.025940
569.850013	46986.404619
570.205445	46983.299268
570.560823	46923.624609
570.916145	46802.054664
571.271412	46842.235180
571.626625	46605.600898
571.981782	46678.140582
572.336884	46361.326748
572.691931	46686.254319
573.046923	46289.641540
573.401860	46134.636141
573.756743	46130.799823
574.111570	46238.551966
574.466342	46113.410363
574.821059	46225.308855
575.175722	45754.961639
575.530330	45767.637621
575.884882	45510.947108
576.239380	45467.101673
576.593823	45459.935672
576.948211	45355.540938
577.302544	44906.041414
577.656823	44955.946317
578.011047	45161.723696
578.365216	44889.282098
578.719330	44705.108583
579.073389	44551.703751
579.427394	44635.593593
579.781344	44614.103154
580.135239	44281.024037
580.489080	44341.908572
580.842866	43843.955998
581.196597	44298.902489
581.550273	44260.040234
581.903895	44113.934993
582.257463	44541.460127
582.610975	43937.681131
582.964434	44219.521960
583.317837	43877.714085
583.671186	43716.639137
584.024481	43942.059373
584.377721	43476.755832
584.730906	43763.640335
585.084037	43796.879183
585.437113	43514.751008
585.790135	43549.686204
586.143103	43173.069162
586.496016	43275.492805
586.848874	43307.524297
587.201679	43324.097090
587.554428	42795.174187
587.907124	43000.744880
588.259765	42756.014504
588.612352	43014.350954
588.964884	42418.383226
589.317362	42701.658263
589.669786	42647.627176
590.022155	42411.134046
590.374470	42825.779033
590.726731	42373.973181
591.078937	41892.716908
591.431090	41977.085659
591.783188	41652.677327
592.135232	41317.644763
592.487222	41560.731722
592.839157	41660.765858
593.191038	41329.642709
593.542866	41113.788063
593.894639	40498.863076
594.246358	40784.809925
594.598022	40749.990675
594.949633	40365.300225
595.301190	40333.699752
595.652692	40165.478969
596.004141	40492.927117
596.355535	39507.101756
596.706876	39474.924071
597.058162	39287.927510
597.409395	39751.983366
597.760573	39849.776709
598.111698	39401.499665
598.462768	39428.331207
598.813785	39475.234102
599.164748	38923.232797
599.515657	39330.792441
599.866511	38803.417173
600.217312	39405.908154
600.568060	38390.345027
600.918753	39112.240778
601.269392	39077.003113
601.619978	38745.867361
601.970510	38946.296076
602.320988	39129.579827
602.671412	39424.300804
603.021783	39170.740848
603.372100	38824.108589
603.722363	38936.349879
604.072572	38996.022017
604.422728	39007.856126
604.772830	38822.583640
605.122878	38924.934186
605.472872	38860.109989
605.822813	39135.702308
606.172701	38967.040424
606.522534	39195.439981
606.872314	39466.142381
607.222041	39210.782733
607.571714	39599.591806
607.921333	39062.151873
608.270899	39352.134166
608.620411	39675.244401
608.969870	39483.345318
609.319276	39474.261159
609.668627	39542.079802
610.017926	40010.889466
610.367171	40158.441518
610.716362	40257.810222
611.065500	40200.330986
611.414585	40394.183516
611.763616	40686.565398
612.112594	40601.506009
612.461518	40826.971615
612.810389	41106.478390
613.159207	40987.479433
613.507971	41048.474874
613.856682	41518.214630
614.205340	41406.790007
614.553945	42096.248454
614.902496	41552.469271
615.250994	42014.092769
615.599439	42085.415014
615.947830	42288.200469
616.296169	42348.081815
616.644454	42478.325065
616.992686	42663.486646
617.340864	43163.440558
617.688990	42887.170204
618.037063	43488.940300
618.385082	43450.987974
618.733048	43732.780912
619.080961	43763.640335
619.428821	43755.955096
619.776628	43863.210685
620.124382	43684.239642
620.472083	43820.038244
620.819731	43932.771047
621.167326	43605.355666
621.514868	43597.078092
621.862357	43147.172755
622.209793	43161.240095
622.557176	42855.786501
622.904506	42596.862757
623.251783	42245.333017
623.599007	42029.309492
623.946179	41817.311329
624.293297	41774.103599
624.640363	41174.700325
624.987376	41170.385097
625.334336	40922.108270
625.681243	40563.074773
626.028097	40543.449561
626.374899	40390.145552
626.721647	40369.234846
627.068343	40253.293348
627.414987	40023.071414
627.761577	39804.857508
628.108115	40144.568263
628.454600	39588.007234
628.801032	39777.158888
629.147412	39742.773178
629.493739	39757.251372
629.840014	39392.448273
630.186236	39739.718238
630.532405	39356.522491
630.878521	39577.231768
631.224585	39457.650557
631.570597	39168.270683
631.916556	39336.191517
632.262462	39291.007655
632.608316	39296.671392
632.954117	39179.520017
633.299866	39183.358856
633.645562	39085.873023
633.991206	38599.348745
634.336797	38178.651853
634.682336	38174.003909
635.027823	37928.882845
635.373257	37737.276149
635.718639	37498.050714
636.063968	37372.273925
636.409245	36797.809239
636.754470	36838.241813
