Dividing Wavelength (nm)	Counts (n)	Blue Motor Position (mm): 29.600000	Red Motor Position (mm): 0.000000	
326.493990	1970.763479
326.888308	1970.763479
327.282561	1970.763479
327.676750	1946.891095
328.070874	1949.494851
328.464933	1952.834615
328.858929	1964.598148
329.252859	1974.367904
329.646726	1991.076808
330.040528	2004.982831
330.434265	2024.610564
330.827938	2042.521783
331.221547	2061.332849
331.615091	2084.691035
332.008571	2105.659715
332.401986	2124.682509
332.795338	2145.633544
333.188625	2164.084167
333.581847	2184.989832
333.975006	2204.136134
334.368100	2221.875955
334.761129	2236.303737
335.154095	2251.303690
335.546996	2293.994702
335.939833	2369.140662
336.332606	2382.416540
336.725315	2392.226626
337.117960	2401.303223
337.510540	2410.526014
337.903056	2422.128230
338.295508	2425.818354
338.687896	2433.702719
339.080220	2440.167999
339.472480	2445.962805
339.864676	2446.502208
340.256807	2451.477827
340.648875	2456.077880
341.040879	2453.355657
341.432818	2457.980916
341.824694	2458.669033
342.216506	2458.086780
342.608253	2457.396142
342.999937	2454.915894
343.391557	2456.201388
343.783113	2454.318518
344.174605	2453.529577
344.566033	2451.419854
344.957397	2450.673763
345.348697	2445.811570
345.739934	2445.171344
346.131106	2444.828545
346.522215	2443.051539
346.913260	2443.139759
347.304241	2438.484253
347.695159	2439.139603
348.086012	2435.875456
348.476802	2435.441917
348.867528	2433.034766
349.258191	2429.667275
349.648789	2430.241967
350.039324	2429.821030
350.429796	2428.359096
350.820203	2427.257604
351.210548	2426.982861
351.600828	2427.877666
351.991045	2425.818354
352.381198	2426.284661
352.771288	2425.984712
353.161314	2424.212747
353.551276	2425.757860
353.941175	2421.049423
354.331010	2424.258117
354.720782	2427.948242
355.110490	2430.811617
355.500135	2427.693663
355.889717	2426.955134
356.279235	2426.014959
356.668689	2428.550660
357.058080	2429.006884
357.447408	2423.660740
357.836672	2424.348858
358.225873	2425.901533
358.615010	2425.226019
359.004084	2431.507296
359.393095	2430.042841
359.782043	2427.643252
360.170927	2432.026535
360.559748	2433.105342
360.948505	2432.505445
361.337199	2434.627771
361.725830	2436.684561
362.114398	2434.839499
362.502903	2435.386464
362.891344	2435.300765
363.279722	2433.594334
363.668037	2436.150199
364.056289	2435.746907
364.444478	2438.753955
364.832603	2439.920982
365.220665	2438.083482
365.608665	2439.036260
365.996601	2442.131528
366.384474	2440.672114
366.772284	2442.509615
367.160031	2439.482402
367.547715	2440.896445
367.935336	2440.863678
368.322893	2443.036415
368.710388	2441.844182
369.097820	2444.331992
369.485189	2444.649584
369.872495	2441.995417
370.259738	2444.329471
370.646918	2444.188319
371.034035	2443.021292
371.421090	2448.632096
371.808081	2446.608073
372.195010	2446.933227
372.581875	2444.629420
372.968678	2446.781993
373.355418	2446.482044
373.742096	2450.996397
374.128710	2449.234514
374.515262	2448.153186
374.901751	2447.316355
375.288177	2449.879782
375.674540	2452.901953
376.060841	2452.881789
376.447079	2450.724175
376.833254	2448.276695
377.219367	2445.982970
377.605417	2449.718465
377.991404	2447.429781
378.377329	2450.509926
378.763191	2448.687549
379.148991	2453.627879
379.534727	2452.801130
379.920402	2455.316666
380.306013	2456.251800
380.691563	2455.551080
381.077049	2455.349433
381.462474	2454.873044
381.847835	2455.992181
382.233134	2457.416307
382.618371	2456.491255
383.003545	2459.581482
383.388657	2456.972685
383.773706	2460.829168
384.158693	2459.089970
384.543618	2459.745320
384.928480	2458.522840
385.313280	2458.578292
385.698017	2459.591564
386.082692	2463.538788
386.467305	2461.388736
386.851856	2463.259004
387.236344	2461.955866
387.620770	2463.614405
388.005133	2465.398974
388.389435	2464.610033
388.773674	2464.400825
389.157851	2468.433748
389.541965	2467.168419
389.926018	2467.218830
390.310008	2467.657411
390.693936	2463.581638
391.077802	2467.433079
391.461606	2469.091619
391.845348	2468.511886
392.229027	2470.631691
392.612645	2468.388378
392.996200	2472.096147
393.379694	2469.315950
393.763125	2472.396095
394.146494	2470.576239
394.529801	2473.018678
394.913047	2474.911631
395.296230	2473.439614
395.679351	2475.756024
396.062410	2475.940026
396.445408	2471.322329
396.828343	2476.429018
397.211217	2470.034315
397.594028	2473.482464
397.976778	2471.705457
398.359466	2479.118474
398.742092	2470.412401
399.124656	2478.233751
399.507158	2476.892804
399.889598	2479.322641
400.271977	2479.582260
400.654294	2481.248361
401.036549	2481.470172
401.418742	2482.924545
401.800874	2481.760038
402.182944	2481.044195
402.564952	2481.933958
402.946898	2482.498567
403.328783	2483.413537
403.710606	2484.583085
404.092367	2485.717344
404.474067	2485.732468
404.855705	2485.656850
405.237282	2486.778507
405.618797	2487.207005
406.000250	2488.326141
406.381642	2491.686070
406.762972	2489.089876
407.144240	2489.321769
407.525447	2494.080618
407.906593	2492.152377
408.287677	2490.352685
408.668700	2492.837974
409.049661	2495.063643
409.430560	2493.783190
409.811399	2494.982985
410.192176	2495.091370
410.572891	2494.148674
410.953545	2499.487256
411.334138	2495.726555
411.714669	2499.136896
412.095139	2496.976761
412.475547	2498.373161
412.855894	2499.237719
413.236180	2500.613954
413.616405	2501.332318
413.996568	2499.870384
414.376670	2502.234685
414.756711	2502.436331
415.136691	2503.222751
415.516609	2502.895076
415.896466	2505.130828
416.276262	2506.312978
416.655997	2503.313492
417.035670	2505.410612
417.415283	2511.258350
417.794834	2509.115860
418.174324	2515.492919
418.553753	2511.661642
418.933121	2514.308248
419.312428	2515.755059
419.691674	2514.033505
420.070859	2518.689011
420.449983	2520.067767
420.829045	2520.279495
421.208047	2520.466018
421.586988	2523.815864
421.965867	2527.493386
422.344686	2528.741072
422.723444	2530.082019
423.102141	2526.414579
423.480777	2532.569828
423.859352	2532.050589
424.237866	2538.404964
424.616319	2537.610982
424.994712	2543.604914
425.373044	2549.303938
425.751314	2555.184444
426.129524	2551.534649
426.507673	2556.172510
426.885762	2561.117882
427.263789	2567.646177
427.641756	2571.568194
428.019662	2577.725964
428.397508	2587.599063
428.775292	2594.084508
429.153016	2605.963987
429.530679	2612.424226
429.908282	2624.749847
430.285824	2633.730662
430.663305	2649.017961
431.040726	2661.527585
431.418086	2675.758762
431.795385	2699.701722
432.172624	2724.584857
432.549802	2739.728484
432.926920	2763.328645
433.303977	2786.704476
433.680974	2819.164465
434.057910	2856.988243
434.434786	2890.708521
434.811601	2922.687080
435.188355	2990.553614
435.565050	3022.378418
435.941683	3066.730490
436.318257	3144.533137
436.694770	3188.449149
437.071222	3267.754061
437.447614	3289.849438
437.823946	3353.660364
438.200218	3429.653237
438.576429	3491.372084
438.952580	3578.417687
439.328670	3653.760252
439.704700	3763.286881
440.080670	3818.190088
440.456580	3949.408802
440.832429	4058.559865
441.208218	4073.012853
441.583947	4204.909602
441.959616	4316.853464
442.335224	4445.349955
442.710773	4569.024583
443.086261	4743.103187
443.461689	4790.603459
443.837057	4922.868212
444.212365	5130.324296
444.587612	5263.456128
444.962800	5332.356098
445.337927	5531.443866
445.712995	5472.570751
446.088002	5895.949536
446.462949	6091.188384
446.837837	6280.806344
447.212664	6435.105981
447.587431	7157.962072
447.962139	7972.816701
448.336786	8675.598917
448.711374	8553.542500
449.085901	7930.861698
449.460369	8099.866381
449.834776	8284.370091
450.209124	9138.386923
450.583412	9245.135876
450.957640	9601.550494
451.331808	9446.139283
451.705917	9268.826778
452.079965	9479.874684
452.453954	9806.516248
452.827883	9997.971709
453.201752	10149.173557
453.575562	10421.879815
453.949311	11025.772238
454.323001	11290.901642
454.696632	11445.113058
455.070202	12255.990216
455.443713	12580.375863
455.817164	13073.042788
456.190556	13549.273030
456.563888	13584.364502
456.937160	14012.923072
457.310373	13552.020459
457.683526	13977.332526
458.056619	14230.925250
458.429653	14460.980826
458.802628	14984.653367
459.175542	15291.626869
459.548398	16207.153340
459.921194	17287.313812
460.293930	17950.144885
460.666607	19343.381176
461.039224	20603.843557
461.411782	21131.543980
461.784280	20745.230279
462.156719	20750.644478
462.529099	20719.679191
462.901419	20251.978581
463.273680	19887.956862
463.645882	20207.906293
464.018024	20468.390274
464.390106	21261.484762
464.762130	23266.949023
465.134094	26231.354172
465.505999	30156.666258
465.877845	33727.870055
466.249631	34963.590453
466.621358	34046.223961
466.993026	32841.874663
467.364634	31632.950518
467.736184	30556.054192
468.107674	29929.005230
468.479105	29636.943462
468.850477	29399.762214
469.221790	28604.857952
469.593043	27532.365074
469.964238	27108.749355
470.335373	27264.049661
470.706449	28819.139758
471.077467	31028.256553
471.448425	35003.115620
471.819324	37602.672300
472.190164	36347.419951
472.560945	33635.914367
472.931667	31316.534935
473.302330	30611.481679
473.672934	30119.336514
474.043479	30730.094988
474.413965	30247.638921
474.784393	30121.186618
475.154761	31023.933763
475.525070	31233.401267
475.895321	30997.250936
476.265513	31677.486592
476.635645	32671.241688
477.005719	32670.727490
477.375734	33237.922833
477.745691	33999.847866
478.115588	35310.258000
478.485427	37215.836839
478.855207	40397.745091
479.224928	42976.547341
479.594591	44657.401624
479.964194	43848.750136
480.333739	44098.214154
480.703226	44264.073157
481.072653	45000.646228
481.442022	45610.502335
481.811333	45988.419995
482.180584	44870.168563
482.549777	44510.996434
482.918912	44098.672899
483.287988	43921.819140
483.657005	43235.355138
484.025964	42722.556366
484.394864	42817.753516
484.763706	42502.852799
485.132489	41751.804055
485.501213	41676.491738
485.869879	41885.656772
486.238487	41580.785432
486.607036	41830.677948
486.975527	41383.121789
487.343959	41639.900522
487.712333	41776.062088
488.080648	41743.120668
488.448905	42204.550082
488.817104	42086.655138
489.185244	43044.353381
489.553326	44696.289085
489.921350	47406.380625
490.289315	50371.942719
490.657222	51077.530337
491.025070	51405.149885
491.392861	50520.203053
491.760593	49242.356253
492.128267	47569.434226
492.495883	46101.908971
492.863440	44751.550213
493.230939	43464.513389
493.598380	42434.971142
493.965763	42134.107519
494.333088	41373.175593
494.700354	40936.278954
495.067563	40680.516013
495.434713	40582.778122
495.801805	40668.843222
496.168839	40309.741668
496.535815	39993.716775
496.902733	40048.793901
497.269593	39667.090335
497.636395	39606.674627
498.003139	39994.667032
498.369825	39483.975463
498.736453	39787.808326
499.103023	39347.990338
499.469535	39235.678471
499.835989	39332.072894
500.202385	39015.438021
500.568723	39048.984380
500.935003	39243.436807
501.301226	39060.634486
501.667390	39668.756436
502.033497	39906.313250
502.399546	39366.940035
502.765537	38703.385557
503.131470	39079.251467
503.497345	39418.742932
503.863163	38133.155440
504.228923	38733.224147
504.594625	39124.735278
504.960269	38445.822925
505.325856	39108.843040
505.691385	38498.150102
506.056856	38632.091039
506.422270	39057.423271
506.787625	38664.258642
507.152924	38837.480249
507.518164	38931.712018
507.883347	38193.661889
508.248472	38421.201929
508.613540	38875.104901
508.978550	39189.534269
509.343503	38934.804766
509.708398	39144.118514
510.073236	39665.961117
510.438016	39650.671297
510.802738	39120.467941
511.167403	39725.371115
511.532010	39955.247730
511.896561	40259.748546
512.261053	41083.687333
512.625488	40646.952011
512.989866	40508.267348
513.354186	40360.251509
513.718449	40342.862049
514.082655	41023.440504
514.446803	40683.724708
514.810894	41204.886754
515.174927	41133.781279
515.538904	41041.828112
515.902822	41670.162569
516.266684	41144.294605
516.630488	41556.645867
516.994235	41420.068406
517.357925	41956.656383
517.721558	42130.170378
518.085133	42434.242696
518.448651	42574.144797
518.812112	42352.807896
519.175516	42446.021352
519.538863	42784.897795
519.902152	42741.196033
520.265385	43191.081205
520.628560	43232.393461
520.991678	43031.758058
521.354739	43252.253086
521.717743	43574.637395
522.080690	43464.861229
522.443580	44006.376934
522.806413	44057.952979
523.169189	43992.617105
523.531908	44173.009754
523.894569	44062.217795
524.257174	44210.528541
524.619722	44509.708419
524.982213	44508.627092
525.344647	44419.870017
525.707025	44460.504237
526.069345	44853.479823
526.431608	44771.795487
526.793815	45073.425366
527.155964	44617.989883
527.518057	44795.982943
527.880093	44571.318881
528.242072	45105.212361
528.603995	44811.978524
528.965860	44806.339994
529.327669	44900.017235
529.689421	44806.440817
530.051117	44772.541578
530.412755	44903.535961
530.774337	44971.372247
531.135862	44789.031192
531.497331	44979.894318
531.858743	44888.147838
532.220098	45230.091824
532.581396	44939.199603
532.942638	44609.866064
533.303824	44906.434624
533.664953	44881.924534
534.026025	44611.597700
534.387040	45055.138580
534.747999	45010.282393
535.108902	45164.511454
535.469748	44692.782962
535.830537	44806.468543
536.191270	45013.183577
536.551947	44675.456517
536.912567	44968.692874
537.273131	45077.523824
537.633638	44596.665803
537.994089	44932.522595
538.354483	44543.252257
538.714821	45105.411487
539.075103	45415.160144
539.435328	45192.885588
539.795497	45089.935145
540.155609	45089.718375
540.515665	45541.993054
540.875665	45001.130178
541.235609	45327.257544
541.595496	45300.728472
541.955328	45949.913141
542.315102	45350.552716
542.674821	45129.578778
543.034483	45168.562021
543.394090	45141.937167
543.753640	45102.074243
544.113134	46097.593743
544.472571	45118.745339
544.831953	46336.370515
545.191278	45560.249593
545.550548	45294.185054
545.909761	45745.668272
546.268918	45967.242107
546.628019	46239.572800
546.987064	45823.435632
547.346053	45118.775586
547.704986	45975.529764
548.063863	45538.799483
548.422684	45749.063489
548.781449	45596.258555
549.140158	45991.716909
549.498811	45847.852461
549.857408	45283.119722
550.215949	46105.677233
550.574434	46042.015022
550.932864	45822.044274
551.291237	46532.473921
551.649555	46137.078580
552.007817	46386.729122
552.366022	46055.666466
552.724173	46215.740745
553.082267	46602.374560
553.440305	46903.538132
553.798288	46241.702687
554.156215	46535.486010
554.514086	46751.338135
554.871902	46501.818664
555.229661	46518.194852
555.587365	46339.246494
555.945014	46431.308045
556.302606	46372.956689
556.660143	46600.562265
557.017625	46672.590271
557.375050	46476.053327
557.732421	46822.052921
558.089735	46810.763257
558.446994	46716.934781
558.804197	47182.744958
559.161345	47122.364538
559.518437	46388.624596
559.875474	46697.871658
560.232455	46865.484982
560.589381	47033.688121
560.946251	46747.743793
561.303065	47415.127027
561.659825	47207.290336
562.016528	46919.332067
562.373177	46638.040723
562.729770	47098.943337
563.086307	46639.328738
563.442789	47084.893641
563.799216	47129.021382
564.155587	46938.674974
564.511904	46962.559961
564.868164	47048.612457
565.224370	47300.052608
565.580520	47028.503294
565.936615	47260.736649
566.292654	46964.100033
566.648638	47211.618167
567.004567	47179.939556
567.360441	47204.704224
567.716260	47062.281546
568.072023	47367.510808
568.427732	47360.795991
568.783385	46901.196516
569.138982	47299.745098
569.494525	47271.267620
569.850013	47036.876651
570.205445	47007.416148
570.560823	46961.970146
570.916145	46852.370420
571.271412	46866.780558
571.626625	46645.063051
571.981782	46692.454938
572.336884	46391.636685
572.691931	46706.605457
573.046923	46316.304202
573.401860	46163.983218
573.756743	46149.931002
574.111570	46255.349091
574.466342	46124.067362
574.821059	46236.285968
575.175722	45770.470749
575.530330	45787.265353
575.884882	45524.023861
576.239380	45474.053424
576.593823	45449.152644
576.948211	45366.510489
577.302544	44914.918886
577.656823	44943.189677
578.011047	45165.474314
578.365216	44886.612807
578.719330	44680.074213
579.073389	44530.878745
579.427394	44636.150640
579.781344	44607.844561
580.135239	44260.130975
580.489080	44347.756311
580.842866	43841.236296
581.196597	44291.633145
581.550273	44221.762753
581.903895	44088.366260
582.257463	44527.760791
582.610975	43919.716979
582.964434	44195.982292
583.317837	43841.198487
583.671186	43685.744426
584.024481	43904.611161
584.377721	43449.127788
584.730906	43719.182399
585.084037	43749.986370
585.437113	43463.565652
585.790135	43491.118079
586.143103	43106.851086
586.496016	43229.207451
586.848874	43249.369546
587.201679	43270.333184
587.554428	42756.022066
587.907124	42935.605610
588.259765	42706.709499
588.612352	42966.817914
588.964884	42358.360727
589.317362	42625.088177
589.669786	42593.538116
590.022155	42349.826054
590.374470	42770.011268
590.726731	42292.853454
591.078937	41821.409787
591.431090	41921.885024
591.783188	41568.021230
592.135232	41265.257092
592.487222	41495.718481
592.839157	41583.381626
593.191038	41274.794955
593.542866	41026.510566
593.894639	40442.747472
594.246358	40711.314943
594.598022	40679.051558
594.949633	40306.890896
595.301190	40255.516497
595.652692	40105.884969
596.004141	40422.413977
596.355535	39445.682858
596.706876	39405.320860
597.058162	39241.354810
597.409395	39688.744611
597.760573	39770.630594
598.111698	39351.851862
598.462768	39369.495900
598.813785	39399.150488
599.164748	38876.125735
599.515657	39260.077656
599.866511	38741.158923
600.217312	39339.806024
600.568060	38339.336112
600.918753	39066.295702
601.269392	39014.485243
601.619978	38674.096453
601.970510	38896.292871
602.320988	39068.828882
602.671412	39372.018997
603.021783	39115.499884
603.372100	38767.372923
603.722363	38883.523628
604.072572	38957.192530
604.422728	38957.810071
604.772830	38786.322620
605.122878	38877.259994
605.472872	38826.172941
605.822813	39091.451060
606.172701	38935.596227
606.522534	39154.664608
606.872314	39408.794215
607.222041	39176.107156
607.571714	39551.748735
607.921333	39015.672435
608.270899	39317.148558
608.620411	39644.735338
608.969870	39447.371645
609.319276	39439.217578
609.668627	39500.893575
610.017926	39979.682203
610.367171	40115.576587
610.716362	40214.148789
611.065500	40164.107775
611.414585	40355.739677
611.763616	40641.474797
612.112594	40571.168345
612.461518	40792.671604
612.810389	41075.276168
613.159207	40935.951279
613.507971	41021.358507
613.856682	41489.487615
614.205340	41377.815975
614.553945	42077.288674
614.902496	41514.368230
615.250994	41992.839265
615.599439	42049.693398
615.947830	42272.726647
616.296169	42322.006446
616.644454	42455.468474
616.992686	42630.010864
617.340864	43143.981704
617.688990	42864.174981
618.037063	43462.658245
618.385082	43433.439717
618.733048	43721.881937
619.080961	43746.157614
619.428821	43738.616048
619.776628	43843.875340
620.124382	43662.461857
620.472083	43790.834840
620.819731	43922.918112
621.167326	43601.635295
621.514868	43573.843413
621.862357	43147.152590
622.209793	43143.505315
622.557176	42835.997451
622.904506	42582.850870
623.251783	42231.217786
623.599007	42014.571679
623.946179	41802.175265
624.293297	41756.620878
624.640363	41176.026148
624.987376	41157.935968
625.334336	40909.381877
625.681243	40582.689902
626.028097	40533.468076
626.374899	40380.302699
626.721647	40364.019772
627.068343	40261.860789
627.414987	40029.783710
627.761577	39813.911420
628.108115	40129.795161
628.454600	39595.826064
628.801032	39781.509404
629.147412	39747.471533
629.493739	39759.174572
629.840014	39413.611037
630.186236	39751.310372
630.532405	39368.412052
630.878521	39581.869629
631.224585	39464.456115
631.570597	39171.749079
631.916556	39343.032363
632.262462	39286.891553
632.608316	39309.092795
632.954117	39189.105771
633.299866	39189.045278
633.645562	39112.235737
633.991206	38609.143707
634.336797	38187.884727
634.682336	38187.466311
635.027823	37945.417829
635.373257	37761.138451
635.718639	37516.471090
636.063968	37378.305666
636.409245	36808.758625
636.754470	36866.595783
