Dividing Wavelength (nm)	Counts (n)	Blue Motor Position (mm): 3.800000	Red Motor Position (mm): 0.000000	
326.493990	1978.804119
326.888308	1978.804119
327.282561	1978.804119
327.676750	1954.314194
328.070874	1957.457353
328.464933	1961.792746
328.858929	1972.006123
329.252859	1985.329893
329.646726	1996.110400
330.040528	2015.367608
330.434265	2030.743127
330.827938	2050.083514
331.221547	2072.322564
331.615091	2091.471387
332.008571	2112.281270
332.401986	2133.212141
332.795338	2153.142343
333.188625	2172.117246
333.581847	2190.222550
333.975006	2209.353729
334.368100	2228.827706
334.761129	2243.467217
335.154095	2258.673857
335.546996	2275.753287
335.939833	2287.784000
336.332606	2298.256997
336.725315	2314.055973
337.117960	2321.708445
337.510540	2327.160453
337.903056	2336.766372
338.295508	2342.304079
338.687896	2350.228773
339.080220	2356.822602
339.472480	2361.641945
339.864676	2363.862573
340.256807	2366.995651
340.648875	2369.175950
341.040879	2371.446989
341.432818	2371.729294
341.824694	2373.781044
342.216506	2371.787267
342.608253	2373.266846
342.999937	2372.152751
343.391557	2372.296424
343.783113	2368.543285
344.174605	2368.205528
344.566033	2364.583458
344.957397	2363.388705
345.348697	2363.015660
345.739934	2361.430217
346.131106	2359.353261
346.522215	2360.001050
346.913260	2356.298322
347.304241	2351.925121
347.695159	2353.722293
348.086012	2352.822447
348.476802	2349.089472
348.867528	2349.681808
349.258191	2348.897908
349.648789	2348.066118
350.039324	2345.860613
350.429796	2344.678463
350.820203	2346.624348
351.210548	2343.823987
351.600828	2341.137052
351.991045	2343.380365
352.381198	2342.341888
352.771288	2340.849706
353.161314	2342.175530
353.551276	2339.672597
353.941175	2344.698627
354.331010	2340.237206
354.720782	2342.223421
355.110490	2341.368945
355.500135	2343.017402
355.889717	2342.873729
356.279235	2341.497494
356.668689	2344.794409
357.058080	2340.504387
357.447408	2341.477330
357.836672	2337.852740
358.225873	2342.770386
358.615010	2340.955570
359.004084	2347.952692
359.393095	2345.386745
359.782043	2345.215345
360.170927	2346.236179
360.559748	2345.389265
360.948505	2346.581498
361.337199	2349.374297
361.725830	2346.823473
362.114398	2350.652230
362.502903	2349.850686
362.891344	2348.166941
363.279722	2349.787672
363.668037	2349.306242
364.056289	2352.033506
364.444478	2350.881602
364.832603	2352.371263
365.220665	2351.418485
365.608665	2351.209277
365.996601	2352.635924
366.384474	2353.376973
366.772284	2355.617766
367.160031	2355.416120
367.547715	2352.441839
367.935336	2353.079545
368.322893	2353.553414
368.710388	2354.372601
369.097820	2357.634228
369.485189	2353.382015
369.872495	2357.351923
370.259738	2356.076511
370.646918	2356.273116
371.034035	2356.318487
371.421090	2357.039372
371.808081	2356.414269
372.195010	2357.571213
372.581875	2356.028620
372.968678	2358.060205
373.355418	2356.709176
373.742096	2357.409897
374.128710	2358.110617
374.515262	2357.074660
374.901751	2355.844618
375.288177	2358.718076
375.674540	2356.711697
376.060841	2358.587006
376.447079	2360.558097
376.833254	2360.653879
377.219367	2355.045595
377.605417	2358.466018
377.991404	2353.704648
378.377329	2356.336131
378.763191	2354.743126
379.148991	2361.384846
379.534727	2358.811337
379.920402	2362.506503
380.306013	2361.911647
380.691563	2361.868797
381.077049	2361.082377
381.462474	2361.399970
381.847835	2362.541791
382.233134	2361.972141
382.618371	2360.530371
383.003545	2360.537933
383.388657	2361.828468
383.773706	2364.485156
384.158693	2363.721421
384.543618	2365.833665
384.928480	2362.743437
385.313280	2364.669158
385.698017	2363.759230
386.082692	2365.153109
386.467305	2364.359127
386.851856	2365.299302
387.236344	2367.222503
387.620770	2366.733511
388.005133	2366.186545
388.389435	2367.351052
388.773674	2366.178984
389.157851	2367.046062
389.541965	2362.438448
389.926018	2368.220651
390.310008	2365.846268
390.693936	2365.044724
391.077802	2364.288551
391.461606	2364.354086
391.845348	2366.889786
392.229027	2368.634026
392.612645	2368.215610
392.996200	2370.368183
393.379694	2367.938346
393.763125	2366.297451
394.146494	2367.973634
394.529801	2369.916999
394.913047	2368.649149
395.296230	2369.919520
395.679351	2368.931454
396.062410	2370.335415
396.445408	2369.382637
396.828343	2369.299458
397.211217	2367.340970
397.594028	2366.486494
397.976778	2366.783922
398.359466	2365.011957
398.742092	2365.344673
399.124656	2372.195601
399.507158	2369.906917
399.889598	2374.096116
400.271977	2371.555374
400.654294	2370.461444
401.036549	2372.669469
401.418742	2371.580580
401.800874	2369.186032
402.182944	2372.177957
402.564952	2372.261136
402.946898	2372.384644
403.328783	2372.671990
403.710606	2374.459079
404.092367	2374.103678
404.474067	2374.290200
404.855705	2374.063348
405.237282	2377.019985
405.618797	2371.822555
406.000250	2374.486805
406.381642	2372.513193
406.762972	2375.885725
407.144240	2374.164171
407.525447	2372.666949
407.906593	2372.528317
408.287677	2374.569984
408.668700	2375.905890
409.049661	2374.806918
409.430560	2374.857330
409.811399	2373.985210
410.192176	2375.547968
410.572891	2377.007382
410.953545	2375.865561
411.334138	2376.614172
411.714669	2376.838503
412.095139	2376.465458
412.475547	2373.914634
412.855894	2375.185005
413.236180	2378.005531
413.616405	2377.319934
413.996568	2377.456045
414.376670	2377.055273
414.756711	2376.495705
415.136691	2378.360932
415.516609	2376.692310
415.896466	2378.842362
416.276262	2378.497043
416.655997	2375.782382
417.035670	2374.753986
417.415283	2376.369676
417.794834	2373.193749
418.174324	2378.275232
418.553753	2379.843031
418.933121	2376.770448
419.312428	2377.090561
419.691674	2379.583412
420.070859	2381.035264
420.449983	2380.241282
420.829045	2378.549975
421.208047	2378.910418
421.586988	2381.781355
421.965867	2380.334544
422.344686	2378.580222
422.723444	2381.388145
423.102141	2377.819008
423.480777	2380.828577
423.859352	2380.241282
424.237866	2379.326313
424.616319	2379.238093
424.994712	2382.729092
425.373044	2381.516694
425.751314	2379.313710
426.129524	2379.704399
426.507673	2379.749770
426.885762	2381.632641
427.263789	2380.193391
427.641756	2381.173896
428.019662	2380.798330
428.397508	2380.155583
428.775292	2381.809081
429.153016	2381.148690
429.530679	2381.952754
429.908282	2384.780841
430.285824	2383.059287
430.663305	2384.286808
431.040726	2384.037271
431.418086	2385.443753
431.795385	2381.899822
432.172624	2384.937117
432.549802	2382.973588
432.926920	2382.063659
433.303977	2382.789586
433.680974	2383.409647
434.057910	2383.119781
434.434786	2385.756305
434.811601	2382.280429
435.188355	2383.089534
435.565050	2385.383259
435.941683	2382.532487
436.318257	2382.794627
436.694770	2379.890922
437.071222	2381.441077
437.447614	2378.837321
437.823946	2379.618700
438.200218	2384.473331
438.576429	2384.274205
438.952580	2385.413506
439.328670	2385.264792
439.704700	2383.795296
440.080670	2386.746891
440.456580	2385.758825
440.832429	2386.446943
441.208218	2387.306459
441.583947	2386.578013
441.959616	2385.315204
442.335224	2385.012734
442.710773	2386.167159
443.086261	2383.134905
443.461689	2386.860317
443.837057	2384.783362
444.212365	2385.479041
444.587612	2386.257899
444.962800	2385.789072
445.337927	2385.416027
445.712995	2383.820502
446.088002	2386.885523
446.462949	2385.960471
446.837837	2386.399052
447.212664	2386.328476
447.587431	2388.236552
447.962139	2387.016593
448.336786	2388.390307
448.711374	2385.302601
449.085901	2387.838301
449.460369	2387.097252
449.834776	2386.499875
450.209124	2387.160266
450.583412	2386.542725
450.957640	2386.958620
451.331808	2388.188661
451.705917	2388.980122
452.079965	2389.297715
452.453954	2389.189330
452.827883	2386.711603
453.201752	2388.501213
453.575562	2388.486089
453.949311	2386.908208
454.323001	2390.699156
454.696632	2386.875441
455.070202	2390.663868
455.443713	2390.764691
455.817164	2386.555328
456.190556	2384.604401
456.563888	2385.922663
456.937160	2382.761859
457.310373	2388.806203
457.683526	2387.472817
458.056619	2388.516336
458.429653	2388.697818
458.802628	2389.199413
459.175542	2389.920298
459.548398	2392.188817
459.921194	2389.428785
460.293930	2390.908364
460.666607	2388.521378
461.039224	2390.101779
461.411782	2388.120606
461.784280	2390.351316
462.156719	2390.318549
462.529099	2389.874927
462.901419	2390.552962
463.273680	2392.657644
463.645882	2390.752088
464.018024	2389.736296
464.390106	2389.118754
464.762130	2388.612118
465.134094	2389.948024
465.505999	2388.995246
465.877845	2391.193189
466.249631	2389.549773
466.621358	2392.599671
466.993026	2392.801317
467.364634	2394.832902
467.736184	2390.936090
468.107674	2391.798127
468.479105	2391.558673
468.850477	2391.319218
469.221790	2392.534136
469.593043	2389.537170
469.964238	2392.143447
470.335373	2393.081101
470.706449	2388.564227
471.077467	2391.750237
471.448425	2391.730072
471.819324	2391.916595
472.190164	2393.207130
472.560945	2389.975750
472.931667	2389.892571
473.302330	2392.501368
473.672934	2390.885679
474.043479	2390.056409
474.413965	2393.247459
474.784393	2387.777807
475.154761	2392.158570
475.525070	2387.117416
475.895321	2391.110010
476.265513	2388.160935
476.635645	2391.233518
477.005719	2393.449105
477.375734	2392.269475
477.745691	2391.155380
478.115588	2393.093704
478.485427	2392.700494
478.855207	2393.439023
479.224928	2391.336862
479.594591	2394.679147
479.964194	2393.686040
480.333739	2392.430792
480.703226	2391.099928
481.072653	2395.059754
481.442022	2394.396842
481.811333	2392.287119
482.180584	2393.058416
482.549777	2392.692932
482.918912	2391.057078
483.287988	2391.205792
483.657005	2392.198899
484.025964	2395.092522
484.394864	2394.038920
484.763706	2395.563869
485.132489	2394.270813
485.501213	2395.137892
485.869879	2390.063971
486.238487	2396.758623
486.607036	2392.932387
486.975527	2391.447767
487.343959	2396.491442
487.712333	2394.112017
488.080648	2393.761657
488.448905	2393.882645
488.817104	2395.768036
489.185244	2394.343910
489.553326	2393.433982
489.921350	2393.623025
490.289315	2393.161760
490.657222	2393.307953
491.025070	2392.395504
491.392861	2395.810886
491.760593	2395.581513
492.128267	2394.469939
492.495883	2397.179559
492.863440	2393.512120
493.230939	2391.452808
493.598380	2392.067829
493.965763	2389.476676
494.333088	2390.870555
494.700354	2391.707387
495.067563	2394.086811
495.434713	2389.789228
495.801805	2393.524723
496.168839	2393.197048
496.535815	2391.379712
496.902733	2395.901627
497.269593	2394.631256
497.636395	2394.064126
498.003139	2393.401214
498.369825	2395.936915
498.736453	2397.103942
499.103023	2394.631256
499.469535	2393.421379
499.835989	2393.877603
500.202385	2394.263252
500.568723	2395.019425
500.935003	2394.550598
501.301226	2395.145454
501.667390	2396.660320
502.033497	2396.304919
502.399546	2396.536812
502.765537	2393.063457
503.131470	2396.909857
503.497345	2394.953890
503.863163	2396.723335
504.228923	2396.017573
504.594625	2395.367264
504.960269	2393.365926
505.325856	2396.451113
505.691385	2397.721483
506.056856	2395.803324
506.422270	2397.255177
506.787625	2398.429765
507.152924	2393.736451
507.518164	2394.643859
507.883347	2395.803324
508.248472	2397.194683
508.613540	2396.781308
508.978550	2395.856256
509.343503	2395.142933
509.708398	2400.176525
510.073236	2394.870711
510.438016	2397.542522
510.802738	2397.378685
511.167403	2396.614950
511.532010	2395.531102
511.896561	2396.504045
512.261053	2399.443037
512.625488	2396.962790
512.989866	2389.385935
513.354186	2393.948180
513.718449	2392.405587
514.082655	2394.106976
514.446803	2394.848026
514.810894	2397.277862
515.174927	2397.315670
515.538904	2399.856412
515.902822	2395.964641
516.266684	2397.497152
516.630488	2396.998078
516.994235	2397.580331
517.357925	2396.846843
517.721558	2397.696277
518.085133	2398.427245
518.448651	2396.574621
518.812112	2395.168139
519.175516	2397.018242
519.538863	2397.149312
519.902152	2398.699467
520.265385	2397.446740
520.628560	2396.514127
520.991678	2396.342728
521.354739	2397.018242
521.717743	2396.322563
522.080690	2394.848026
522.443580	2395.281565
522.806413	2396.330125
523.169189	2394.656462
523.531908	2394.389281
523.894569	2398.366751
524.257174	2396.685526
524.619722	2396.700650
524.982213	2398.124776
525.344647	2395.919271
525.707025	2398.679303
526.069345	2399.115362
526.431608	2398.419683
526.793815	2399.087636
527.155964	2397.353479
527.518057	2397.275341
527.880093	2397.066133
528.242072	2398.263407
528.603995	2397.169477
528.965860	2396.562018
529.327669	2396.589744
529.689421	2398.278531
530.051117	2397.499673
530.412755	2399.369941
530.774337	2398.114693
531.135862	2399.483367
531.497331	2394.175032
531.858743	2392.566903
532.220098	2394.590927
532.581396	2393.360885
532.942638	2395.571431
533.303824	2396.952707
533.664953	2399.501011
534.026025	2396.914899
534.387040	2396.110835
534.747999	2398.742317
535.108902	2397.847512
535.469748	2398.273490
535.830537	2397.597975
536.191270	2396.642676
536.551947	2397.925650
536.912567	2396.342728
537.273131	2397.124107
537.633638	2397.305588
537.994089	2396.136040
538.354483	2396.113355
538.714821	2396.652759
539.075103	2396.587224
539.435328	2399.627039
539.795497	2399.969838
540.155609	2398.417163
540.515665	2396.798952
540.875665	2396.715773
541.235609	2399.027142
541.595496	2396.811555
541.955328	2395.311812
542.315102	2397.517317
542.674821	2400.635270
543.034483	2397.981103
543.394090	2396.786349
543.753640	2398.994375
544.113134	2398.036555
544.472571	2397.940773
544.831953	2399.216185
545.191278	2395.725186
545.550548	2397.512275
545.909761	2397.955897
546.268918	2397.141751
546.628019	2396.410783
546.987064	2399.929509
547.346053	2399.180897
547.704986	2400.244581
548.063863	2397.023283
548.422684	2399.049827
548.781449	2395.014384
549.140158	2397.628222
549.498811	2402.379509
549.857408	2399.339694
550.215949	2398.311298
550.574434	2390.845349
550.932864	2394.727038
551.291237	2392.471122
551.649555	2395.841133
552.007817	2398.777605
552.366022	2399.080074
552.724173	2396.922460
553.082267	2396.924981
553.440305	2398.374313
553.798288	2398.081926
554.156215	2399.841288
554.514086	2398.749879
554.871902	2396.859446
555.229661	2399.329611
555.587365	2398.477656
555.945014	2395.982285
556.302606	2398.727193
556.660143	2400.378171
557.017625	2397.920609
557.375050	2399.682492
557.732421	2399.513613
558.089735	2400.262225
558.446994	2397.028325
558.804197	2399.059910
559.161345	2399.107801
559.518437	2397.134189
559.875474	2398.684344
560.232455	2396.796432
560.589381	2398.175187
560.946251	2397.822306
561.303065	2400.703326
561.659825	2400.466392
562.016528	2399.566546
562.373177	2401.144427
562.729770	2397.580331
563.086307	2400.917575
563.442789	2400.552091
563.799216	2397.915568
564.155587	2397.666031
564.511904	2397.184600
564.868164	2398.331463
565.224370	2397.262738
565.580520	2395.367264
565.936615	2398.860784
566.292654	2397.177039
566.648638	2399.770712
567.004567	2399.322050
567.360441	2397.421535
567.716260	2398.079405
568.072023	2398.885990
568.427732	2395.674775
568.783385	2397.698798
569.138982	2393.640669
569.494525	2396.637635
569.850013	2393.388612
570.205445	2399.511093
570.560823	2400.161402
570.916145	2398.041597
571.271412	2399.869015
571.626625	2397.807183
571.981782	2397.945815
572.336884	2397.073695
572.691931	2401.774571
573.046923	2398.036555
573.401860	2397.449261
573.756743	2398.792728
574.111570	2398.701988
574.466342	2398.326422
574.821059	2398.341545
575.175722	2399.732904
575.530330	2399.173336
575.884882	2400.751217
576.239380	2401.804818
576.593823	2401.577966
576.948211	2399.052348
577.302544	2400.375651
577.656823	2399.513613
578.011047	2399.143089
578.365216	2402.412277
578.719330	2396.226781
579.073389	2398.757440
579.427394	2400.476474
579.781344	2401.691392
580.135239	2400.287431
580.489080	2398.752399
580.842866	2398.086967
581.196597	2403.110477
581.550273	2397.570249
581.903895	2400.189128
582.257463	2398.868346
582.610975	2398.865825
582.964434	2396.083108
583.317837	2398.409601
583.671186	2400.269787
584.024481	2398.233160
584.377721	2399.644683
584.730906	2400.380692
585.084037	2402.308933
585.437113	2398.472615
585.790135	2400.642832
586.143103	2400.219375
586.496016	2399.397667
586.848874	2392.574465
587.201679	2395.697460
587.554428	2393.131513
587.907124	2396.672923
588.259765	2396.519168
588.612352	2398.389436
588.964884	2400.143758
589.317362	2396.521689
589.669786	2399.695095
590.022155	2401.013357
590.374470	2398.071843
590.726731	2397.277862
591.078937	2400.587379
591.431090	2398.371792
591.783188	2399.395146
592.135232	2400.799108
592.487222	2398.409601
592.839157	2397.787018
593.191038	2399.410270
593.542866	2400.184087
593.894639	2397.958417
594.246358	2397.706360
594.598022	2399.793398
594.949633	2398.137378
595.301190	2398.369272
595.652692	2396.998078
596.004141	2396.635115
596.355535	2398.954045
596.706876	2399.521175
597.058162	2400.665517
597.409395	2399.211144
597.760573	2400.176525
598.111698	2398.916237
598.462768	2396.753582
598.813785	2399.208624
599.164748	2396.642676
599.515657	2399.584190
599.866511	2397.875238
600.217312	2399.133006
600.568060	2398.651576
600.918753	2401.119221
601.269392	2399.165774
601.619978	2398.913716
601.970510	2400.058058
602.320988	2400.579817
602.671412	2397.091339
603.021783	2398.765002
603.372100	2398.104611
603.722363	2398.888510
604.072572	2398.207955
604.422728	2399.541340
604.772830	2398.220558
605.122878	2397.154353
605.472872	2395.808365
605.822813	2394.976575
606.172701	2396.688047
606.522534	2397.809703
606.872314	2398.853222
607.222041	2398.941442
607.571714	2397.242574
607.921333	2399.977400
608.270899	2401.661145
608.620411	2397.514796
608.969870	2398.003788
609.319276	2398.560835
609.668627	2396.637635
610.017926	2397.832389
610.367171	2396.587224
610.716362	2400.846999
611.065500	2400.108470
611.414585	2402.964283
611.763616	2396.904816
612.112594	2398.933881
612.461518	2399.334652
612.810389	2397.235012
613.159207	2398.321381
613.507971	2396.441030
613.856682	2398.916237
614.205340	2397.688716
614.553945	2400.904972
614.902496	2399.856412
615.250994	2399.359858
615.599439	2400.990672
615.947830	2399.848850
616.296169	2397.154353
616.644454	2400.085784
616.992686	2399.957235
617.340864	2397.366082
617.688990	2399.533778
618.037063	2398.149981
618.385082	2399.866494
618.733048	2400.226937
619.080961	2398.596123
619.428821	2399.090157
619.776628	2398.626370
620.124382	2400.426062
620.472083	2400.710888
620.819731	2399.440517
621.167326	2399.155692
621.514868	2400.494118
621.862357	2397.832389
622.209793	2399.067471
622.557176	2396.506565
622.904506	2394.172511
623.251783	2394.724517
623.599007	2397.600496
623.946179	2393.708725
624.293297	2397.494631
624.640363	2398.694426
624.987376	2395.571431
625.334336	2398.220557
625.681243	2400.358007
626.028097	2397.935732
626.374899	2398.709549
626.721647	2397.923129
627.068343	2400.441186
627.414987	2398.059241
627.761577	2397.799621
628.108115	2400.468912
628.454600	2399.374982
628.801032	2398.928840
629.147412	2396.171328
629.493739	2398.313819
629.840014	2398.517986
630.186236	2398.031514
630.532405	2400.405898
630.878521	2399.450599
631.224585	2400.174005
631.570597	2397.976062
631.916556	2399.122924
632.262462	2400.189128
632.608316	2399.833727
632.954117	2399.110321
633.299866	2398.828017
633.645562	2398.565877
633.991206	2397.789539
634.336797	2398.742317
634.682336	2399.861453
635.027823	2400.189128
635.373257	2400.398336
635.718639	2398.679303
636.063968	2397.623181
636.409245	2399.332132
636.754470	2402.061917
637.099642	2400.857081
637.444762	2400.156361
637.789829	2402.029149
638.134845	2397.149312
638.479808	2401.615775
638.824719	2399.826165
639.169577	2399.750548
639.514383	2400.249622
639.859137	2397.729045
640.203839	2399.072513
640.548489	2396.642676
640.893086	2397.582852
641.237632	2395.694939
641.582125	2398.767523
641.926566	2393.323077
642.270955	2398.187790
642.615292	2398.182749
642.959576	2399.737945
643.303809	2395.831051
643.647990	2398.364230
643.992118	2397.736607
644.336195	2397.613098
