Dividing Wavelength (nm)	Counts (n)	Blue Motor Position (mm): 27.400000	Red Motor Position (mm): 0.000000	
326.493990	1972.227934
326.888308	1972.227934
327.282561	1972.227934
327.676750	1949.701538
328.070874	1950.056939
328.464933	1954.498196
328.858929	1965.329115
329.252859	1977.193471
329.646726	1991.283496
330.040528	2006.532986
330.434265	2027.627694
330.827938	2045.470858
331.221547	2064.118086
331.615091	2084.751529
332.008571	2105.049735
332.401986	2125.143774
332.795338	2147.889460
333.188625	2166.577018
333.581847	2185.229287
333.975006	2205.217462
334.368100	2221.112220
334.761129	2240.208111
335.154095	2256.077663
335.546996	2294.478653
335.939833	2365.463140
336.332606	2378.706251
336.725315	2390.263096
337.117960	2399.178377
337.510540	2406.268760
337.903056	2418.135636
338.295508	2420.721748
338.687896	2430.095773
339.080220	2438.574994
339.472480	2442.711261
339.864676	2445.655295
340.256807	2447.512960
340.648875	2452.670060
341.040879	2452.110492
341.432818	2453.380863
341.824694	2456.478652
342.216506	2455.672067
342.608253	2455.092335
342.999937	2454.265585
343.391557	2452.833898
343.783113	2452.944803
344.174605	2447.850717
344.566033	2447.160079
344.957397	2448.490944
345.348697	2443.606066
345.739934	2442.640685
346.131106	2443.389296
346.522215	2441.834100
346.913260	2437.365117
347.304241	2438.494336
347.695159	2435.963676
348.086012	2433.566608
348.476802	2432.460074
348.867528	2428.268355
349.258191	2429.178283
349.648789	2427.968406
350.039324	2425.531008
350.429796	2426.219126
350.820203	2425.478076
351.210548	2425.609146
351.600828	2424.860535
351.991045	2426.251893
352.381198	2421.528332
352.771288	2422.987746
353.161314	2422.619742
353.551276	2422.977664
353.941175	2423.136460
354.331010	2422.972623
354.720782	2425.863725
355.110490	2425.972109
355.500135	2425.110072
355.889717	2423.847263
356.279235	2424.419434
356.668689	2424.943714
357.058080	2426.130906
357.447408	2422.660071
357.836672	2422.050092
358.225873	2424.477407
358.615010	2423.464135
359.004084	2427.073602
359.393095	2428.651483
359.782043	2427.091246
360.170927	2431.608119
360.559748	2428.815320
360.948505	2431.093922
361.337199	2432.858326
361.725830	2430.892276
362.114398	2433.569128
362.502903	2433.070054
362.891344	2432.139961
363.279722	2431.441761
363.668037	2432.944025
364.056289	2433.909406
364.444478	2434.907555
364.832603	2436.364448
365.220665	2436.475353
365.608665	2435.673810
365.996601	2436.233378
366.384474	2435.678851
366.772284	2438.164140
367.160031	2435.625919
367.547715	2436.412339
367.935336	2438.940478
368.322893	2438.524582
368.710388	2439.094233
369.097820	2441.962649
369.485189	2438.275045
369.872495	2440.992227
370.259738	2441.168668
370.646918	2440.503235
371.034035	2440.825869
371.421090	2442.018102
371.808081	2441.516507
372.195010	2443.689245
372.581875	2443.598504
372.968678	2444.251333
373.355418	2441.332505
373.742096	2444.742846
374.128710	2442.378545
374.515262	2441.723195
374.901751	2445.730912
375.288177	2446.920624
375.674540	2446.509770
376.060841	2445.703186
376.447079	2444.662187
376.833254	2446.855089
377.219367	2440.730087
377.605417	2445.985490
377.991404	2445.047836
378.377329	2447.018927
378.763191	2444.689914
379.148991	2450.343568
379.534727	2450.525049
379.920402	2450.945986
380.306013	2448.216201
380.691563	2451.482868
381.077049	2450.522529
381.462474	2450.310800
381.847835	2449.428598
382.233134	2455.384722
382.618371	2452.448249
383.003545	2453.395986
383.388657	2454.033692
383.773706	2455.818261
384.158693	2455.649382
384.543618	2455.604012
384.928480	2455.258693
385.313280	2454.898250
385.698017	2456.471090
386.082692	2454.323559
386.467305	2456.087962
386.851856	2459.324383
387.236344	2457.144084
387.620770	2461.300516
388.005133	2456.284567
388.389435	2462.911164
388.773674	2459.034517
389.157851	2461.978551
389.541965	2460.320011
389.926018	2461.562656
390.310008	2458.175000
390.693936	2459.843622
391.077802	2462.079374
391.461606	2459.997377
391.845348	2459.977213
392.229027	2460.771194
392.612645	2461.948304
392.996200	2461.325721
393.379694	2468.935343
393.763125	2464.292440
394.146494	2469.071454
394.529801	2463.901751
394.913047	2467.543985
395.296230	2466.984417
395.679351	2465.782101
396.062410	2466.833182
396.445408	2465.698922
396.828343	2467.796042
397.211217	2465.167081
397.594028	2466.634056
397.976778	2465.709005
398.359466	2468.242184
398.742092	2465.640949
399.124656	2471.730663
399.507158	2470.067082
399.889598	2470.989613
400.271977	2471.705457
400.654294	2470.924078
401.036549	2472.297793
401.418742	2473.338791
401.800874	2471.236630
402.182944	2473.401805
402.564952	2475.052783
402.946898	2476.605459
403.328783	2473.789974
403.710606	2477.238123
404.092367	2473.547999
404.474067	2479.436067
404.855705	2476.043370
405.237282	2478.132928
405.618797	2479.665439
406.000250	2478.657208
406.381642	2479.945223
406.762972	2480.393886
407.144240	2479.098309
407.525447	2481.142497
407.906593	2482.969915
408.287677	2481.608804
408.668700	2484.235245
409.049661	2481.084524
409.430560	2481.984370
409.811399	2482.395224
410.192176	2486.347488
410.572891	2481.679380
410.953545	2485.344299
411.334138	2486.775987
411.714669	2485.520739
412.095139	2486.914618
412.475547	2486.849083
412.855894	2487.305308
413.236180	2486.710452
413.616405	2487.499392
413.996568	2486.067704
414.376670	2490.372850
414.756711	2489.838488
415.136691	2489.838487
415.516609	2486.143322
415.896466	2491.290340
416.276262	2493.677326
416.655997	2489.382263
417.035670	2489.399907
417.415283	2495.870228
417.794834	2490.665237
418.174324	2494.468787
418.553753	2494.327635
418.933121	2495.807214
419.312428	2497.382574
419.691674	2495.930722
420.070859	2497.438027
420.449983	2500.631598
420.829045	2497.803511
421.208047	2501.667555
421.586988	2501.352483
421.965867	2500.896258
422.344686	2501.917092
422.723444	2504.432628
423.102141	2502.917761
423.480777	2504.984634
423.859352	2502.499345
424.237866	2506.305417
424.616319	2508.163082
424.994712	2506.776764
425.373044	2509.924965
425.751314	2509.622496
426.129524	2508.984790
426.507673	2513.466376
426.885762	2512.788340
427.263789	2515.137518
427.641756	2515.384535
428.019662	2512.969822
428.397508	2517.892509
428.775292	2519.651871
429.153016	2521.728827
429.530679	2523.430216
429.908282	2522.759743
430.285824	2521.648168
430.663305	2525.378622
431.040726	2525.643283
431.418086	2526.535567
431.795385	2531.317101
432.172624	2528.166380
432.549802	2532.141330
432.926920	2531.412883
433.303977	2534.896321
433.680974	2539.758513
434.057910	2538.137783
434.434786	2541.185160
434.811601	2546.077600
435.188355	2549.034237
435.565050	2555.338199
435.941683	2550.760832
436.318257	2557.538663
436.694770	2558.927501
437.071222	2567.169787
437.447614	2564.946639
437.823946	2569.554253
438.200218	2575.623803
438.576429	2584.992787
438.952580	2588.766091
439.328670	2598.311515
439.704700	2605.860643
440.080670	2610.067486
440.456580	2622.713221
440.832429	2637.975314
441.208218	2641.902373
441.583947	2655.740340
441.959616	2667.662669
442.335224	2684.439629
442.710773	2702.807073
443.086261	2727.317163
443.461689	2739.012640
443.837057	2758.889909
444.212365	2790.823098
444.587612	2813.704896
444.962800	2836.284224
445.337927	2870.110366
445.712995	2879.156717
446.088002	2947.098868
446.462949	2992.736433
446.837837	3035.185469
447.212664	3077.200966
447.587431	3212.724826
447.962139	3368.768702
448.336786	3505.913292
448.711374	3518.647247
449.085901	3445.172429
449.460369	3503.188548
449.834776	3580.119077
450.209124	3782.327319
450.583412	3849.772917
450.957640	3959.390286
451.331808	3975.264880
451.705917	3984.843072
452.079965	4075.389757
452.453954	4198.351061
452.827883	4298.680105
453.201752	4382.333012
453.575562	4503.368595
453.949311	4712.639494
454.323001	4845.587324
454.696632	4951.663283
455.070202	5235.792796
455.443713	5393.414553
455.817164	5593.581129
456.190556	5804.767666
456.563888	5894.588425
456.937160	6088.715698
457.310373	6031.422984
457.683526	6234.336988
458.056619	6393.408077
458.429653	6555.609723
458.802628	6812.741337
459.175542	7013.958992
459.548398	7419.310611
459.921194	7917.613546
460.293930	8269.768389
460.666607	8897.051765
461.039224	9484.734357
461.411782	9799.541811
461.784280	9761.541594
462.156719	9865.386842
462.529099	9961.872006
462.901419	9892.548579
463.273680	9860.217139
463.645882	10112.922620
464.018024	10351.013795
464.390106	10815.089815
464.762130	11855.087416
465.134094	13388.843350
465.505999	15370.901534
465.877845	17239.995022
466.249631	18009.995984
466.621358	17718.403043
466.993026	17305.734189
467.364634	16929.520439
467.736184	16574.250163
468.107674	16452.982686
468.479105	16481.268601
468.850477	16538.394956
469.221790	16302.821837
469.593043	15908.948925
469.964238	15850.912641
470.335373	16091.549600
470.706449	17135.824619
471.077467	18610.178117
471.448425	21065.734237
471.819324	22778.259569
472.190164	22227.024520
472.560945	20827.791776
472.931667	19651.720831
473.302330	19406.919879
473.672934	19295.515420
474.043479	19851.905050
474.413965	19728.386698
474.784393	19813.068001
475.154761	20571.917930
475.525070	20883.730940
475.895321	20913.758573
476.265513	21520.156448
476.635645	22344.569104
477.005719	22546.779867
477.375734	23105.896761
477.745691	23800.550117
478.115588	24891.599482
478.485427	26432.516375
478.855207	28871.923160
479.224928	30913.434192
479.594591	32360.298277
479.964194	32004.745697
480.333739	32409.517583
480.703226	32785.209573
481.072653	33575.501180
481.442022	34259.396713
481.811333	34788.808608
482.180584	34152.546937
482.549777	34094.792958
482.918912	34011.865977
483.287988	34098.777990
483.657005	33768.952938
484.025964	33571.286775
484.394864	33871.439596
484.763706	33806.196983
485.132489	33418.585184
485.501213	33552.135432
485.869879	33932.576189
486.238487	33874.827251
486.607036	34280.115856
486.975527	34087.437914
487.343959	34488.791898
487.712333	34793.181809
488.080648	34952.953618
488.448905	35528.378645
488.817104	35603.262464
489.185244	36603.341688
489.553326	38212.246103
489.921350	40781.787753
490.289315	43637.493022
490.657222	44462.553466
491.025070	44982.770296
491.392861	44330.933980
491.760593	43351.921739
492.128267	42028.233206
492.495883	40866.484179
492.863440	39824.117236
493.230939	38810.628543
493.598380	38050.929179
493.965763	37928.192207
494.333088	37379.780203
494.700354	37129.008005
495.067563	37019.252004
495.434713	37044.871147
495.801805	37243.245593
496.168839	37048.089924
496.535815	36902.052738
496.902733	37058.220123
497.269593	36812.577299
497.636395	36851.885696
498.003139	37329.204827
498.369825	36966.471123
498.736453	37341.835438
499.103023	37036.412091
499.469535	37022.687550
499.835989	37196.602317
500.202385	36992.997674
500.568723	37107.194933
500.935003	37365.249077
501.301226	37278.584081
501.667390	37924.796990
502.033497	38244.580063
502.399546	37779.836090
502.765537	37222.090390
503.131470	37641.917683
503.497345	38036.282107
503.863163	36866.568057
504.228923	37500.520879
504.594625	37931.852084
504.960269	37323.684764
505.325856	38022.439098
505.691385	37471.095664
506.056856	37648.393045
506.422270	38112.138869
506.787625	37758.050744
507.152924	37970.285841
507.518164	38102.238043
507.883347	37386.641214
508.248472	37668.676127
508.613540	38160.775922
508.978550	38485.766507
509.343503	38266.335163
509.708398	38476.271494
510.073236	39025.031337
510.438016	39038.140858
510.802738	38540.155516
511.167403	39164.872945
511.532010	39410.457796
511.896561	39726.323893
512.261053	40544.702287
512.625488	40133.455039
512.989866	40014.687975
513.354186	39879.779136
513.718449	39892.999562
514.082655	40566.888406
514.446803	40255.163616
514.810894	40773.167380
515.174927	40710.100025
515.538904	40639.906998
515.902822	41277.882662
516.266684	40774.699891
516.630488	41180.928670
516.994235	41067.122102
517.357925	41599.041970
517.721558	41777.387911
518.085133	42093.284255
518.448651	42237.100813
518.812112	42018.045034
519.175516	42130.772796
519.538863	42448.065539
519.902152	42437.204373
520.265385	42895.480546
520.628560	42931.020681
520.991678	42728.497366
521.354739	42977.636230
521.717743	43274.895429
522.080690	43177.575954
522.443580	43724.604160
522.806413	43796.841374
523.169189	43751.067697
523.531908	43925.592444
523.894569	43792.639573
524.257174	43950.531032
524.619722	44252.579326
524.982213	44258.840439
525.344647	44164.507848
525.707025	44226.768618
526.069345	44627.731913
526.431608	44535.529209
526.793815	44855.065266
527.155964	44407.572122
527.518057	44571.954066
527.880093	44376.316968
528.242072	44894.252676
528.603995	44591.453249
528.965860	44618.138597
529.327669	44706.918358
529.689421	44613.649450
530.051117	44562.264969
530.412755	44725.802520
530.774337	44781.592970
531.135862	44595.675216
531.497331	44797.878417
531.858743	44705.554726
532.220098	45035.168049
532.581396	44756.687149
532.942638	44436.435248
533.303824	44738.208800
533.664953	44700.379981
534.026025	44432.109938
534.387040	44895.787707
534.747999	44839.069685
535.108902	45005.357186
535.469748	44533.606009
535.830537	44645.038194
536.191270	44857.832860
536.551947	44512.465930
536.912567	44800.867821
537.273131	44928.245176
537.633638	44434.595227
537.994089	44766.477070
538.354483	44378.769489
538.714821	44947.610769
539.075103	45277.191325
539.435328	45065.568728
539.795497	44944.787723
540.155609	44930.231391
540.515665	45387.615279
540.875665	44843.324419
541.235609	45167.770560
541.595496	45150.098795
541.955328	45801.226829
542.315102	45198.977823
542.674821	44992.159445
543.034483	45027.003901
543.394090	45005.147978
543.753640	44943.461899
544.113134	45934.686336
544.472571	44982.671994
544.831953	46201.905298
545.191278	45434.087156
545.550548	45151.190205
545.909761	45602.912878
546.268918	45808.168498
546.628019	46095.325224
546.987064	45682.613520
547.346053	44976.325181
547.704986	45833.747312
548.063863	45420.450835
548.422684	45601.398011
548.781449	45447.015195
549.140158	45846.193921
549.498811	45687.339602
549.857408	45138.151261
550.215949	45974.236708
550.574434	45884.194139
550.932864	45691.251537
551.291237	46384.344656
551.649555	45986.564850
552.007817	46230.755822
552.366022	45884.998203
552.724173	46065.297591
553.082267	46454.895604
553.440305	46748.139523
553.798288	46082.475323
554.156215	46393.322951
554.514086	46590.230420
554.871902	46335.110227
555.229661	46350.649584
555.587365	46180.969386
555.945014	46289.243289
556.302606	46213.391567
556.660143	46433.362315
557.017625	46505.831423
557.375050	46312.772874
557.732421	46663.695155
558.089735	46638.474262
558.446994	46566.143787
558.804197	47016.956532
559.161345	46966.161865
559.518437	46235.723879
559.875474	46525.307920
560.232455	46716.342445
560.589381	46871.095786
560.946251	46563.293015
561.303065	47232.486023
561.659825	47046.772436
562.016528	46739.219202
562.373177	46451.510469
562.729770	46928.698531
563.086307	46457.842158
563.442789	46908.334790
563.799216	46966.219839
564.155587	46759.920700
564.511904	46799.302194
564.868164	46869.255765
565.224370	47116.408415
565.580520	46865.734519
565.936615	47062.992348
566.292654	46804.812175
566.648638	47032.944551
567.004567	46983.843713
567.360441	47020.734876
567.716260	46883.421407
568.072023	47193.875826
568.427732	47167.823143
568.783385	46728.743684
569.138982	47121.842778
569.494525	47094.754138
569.850013	46846.963783
570.205445	46835.999273
570.560823	46786.525389
570.916145	46650.504976
571.271412	46694.398303
571.626625	46450.880325
571.981782	46505.176073
572.336884	46206.442337
572.691931	46528.995524
573.046923	46153.636250
573.401860	45985.032339
573.756743	45960.224821
574.111570	46091.887157
574.466342	45963.234390
574.821059	46071.848570
575.175722	45592.507936
575.530330	45624.063039
575.884882	45350.156986
576.239380	45316.754300
576.593823	45283.097037
576.948211	45205.594337
577.302544	44761.294764
577.656823	44787.551613
578.011047	45019.555596
578.365216	44734.208644
578.719330	44542.344849
579.073389	44390.807765
579.427394	44485.969626
579.781344	44454.540552
580.135239	44119.853307
580.489080	44192.118247
580.842866	43706.445924
581.196597	44148.431608
581.550273	44090.856590
581.903895	43939.639619
582.257463	44386.270726
582.610975	43775.774392
582.964434	44061.854832
583.317837	43718.002769
583.671186	43538.071386
584.024481	43785.826453
584.377721	43322.735979
584.730906	43608.292138
585.084037	43618.674395
585.437113	43347.566182
585.790135	43382.768559
586.143103	42999.519879
586.496016	43114.942138
586.848874	43134.416115
587.201679	43164.872246
587.554428	42655.574555
587.907124	42837.676156
588.259765	42604.986576
588.612352	42847.506406
588.964884	42253.923143
589.317362	42527.420863
589.669786	42479.635765
590.022155	42257.918258
590.374470	42669.974611
590.726731	42213.596433
591.078937	41745.747109
591.431090	41820.129334
591.783188	41476.385656
592.135232	41181.699967
592.487222	41412.920050
592.839157	41486.485608
593.191038	41174.176045
593.542866	40948.932250
593.894639	40357.945182
594.246358	40626.326130
594.598022	40599.401327
594.949633	40203.562366
595.301190	40176.839209
595.652692	40025.433194
596.004141	40330.738074
596.355535	39359.327893
596.706876	39314.983383
597.058162	39158.193416
597.409395	39604.390984
597.760573	39689.309221
598.111698	39270.482597
598.462768	39294.012183
598.813785	39325.138787
599.164748	38779.759038
599.515657	39161.767594
599.866511	38651.794389
600.217312	39256.604301
600.568060	38243.178623
600.918753	38963.408273
601.269392	38935.442472
601.619978	38590.972868
601.970510	38796.152870
602.320988	38966.357347
602.671412	39265.459087
603.021783	39023.065287
603.372100	38667.532871
603.722363	38783.055953
604.072572	38857.095379
604.422728	38861.831543
604.772830	38685.832259
605.122878	38779.174264
605.472872	38714.624810
605.822813	38990.786779
606.172701	38820.418464
606.522534	39059.548118
606.872314	39298.750867
607.222041	39063.936442
607.571714	39459.553593
607.921333	38909.326774
608.270899	39194.971154
608.620411	39527.677225
608.969870	39327.291360
609.319276	39315.268208
609.668627	39390.401565
610.017926	39862.246003
610.367171	40025.647443
610.716362	40106.840267
611.065500	40064.771838
611.414585	40245.497204
611.763616	40525.603876
612.112594	40454.032094
612.461518	40690.817611
612.810389	40956.723353
613.159207	40828.007572
613.507971	40905.061608
613.856682	41374.294729
614.205340	41265.168872
614.553945	41945.994343
614.902496	41404.055181
615.250994	41870.099772
615.599439	41943.050309
615.947830	42153.659634
616.296169	42195.715460
616.644454	42338.954806
616.992686	42498.560257
617.340864	43007.777289
617.688990	42743.078904
618.037063	43348.347561
618.385082	43308.184688
618.733048	43596.884007
619.080961	43617.570382
619.428821	43617.172131
619.776628	43737.128907
620.124382	43550.442377
620.472083	43679.238817
620.819731	43790.010611
621.167326	43460.341835
621.514868	43444.137046
621.862357	43021.849670
622.209793	43045.520408
622.557176	42720.494534
622.904506	42456.751447
623.251783	42102.718775
623.599007	41905.972622
623.946179	41670.709534
624.293297	41626.629685
624.640363	41043.214430
624.987376	41027.927131
625.334336	40790.662704
625.681243	40442.545825
626.028097	40411.078943
626.374899	40269.493096
626.721647	40233.952962
627.068343	40115.163212
627.414987	39895.701621
627.761577	39681.997027
628.108115	40013.760403
628.454600	39460.876896
628.801032	39637.992795
629.147412	39625.180703
629.493739	39631.792176
629.840014	39281.789905
630.186236	39624.976536
630.532405	39243.830017
630.878521	39458.885640
631.224585	39327.314045
631.570597	39044.911127
631.916556	39232.842822
632.262462	39163.887399
632.608316	39179.333495
632.954117	39080.720964
633.299866	39059.616173
633.645562	38978.400664
633.991206	38487.183072
634.336797	38064.401663
634.682336	38061.689522
635.027823	37814.683066
635.373257	37633.483832
635.718639	37399.478512
636.063968	37260.846781
636.409245	36687.551642
636.754470	36738.394199
637.099642	36508.056318
