Dividing Wavelength (nm)	Counts (n)	Blue Motor Position (mm): 38.800000	Red Motor Position (mm): 0.000000	
326.493990	1970.118211
326.888308	1970.118211
327.282561	1970.118211
327.676750	1947.122988
328.070874	1944.524273
328.464933	1954.840994
328.858929	1963.829372
329.252859	1974.695579
329.646726	1989.307363
330.040528	2005.265136
330.434265	2025.626356
330.827938	2043.857689
331.221547	2064.511296
331.615091	2085.399317
332.008571	2105.584097
332.401986	2126.951028
332.795338	2145.547844
333.188625	2166.571977
333.581847	2184.911694
333.975006	2203.410208
334.368100	2221.548280
334.761129	2235.378685
335.154095	2250.164390
335.546996	2293.682150
335.939833	2375.825232
336.332606	2390.437016
336.725315	2402.729870
337.117960	2410.490726
337.510540	2413.674215
337.903056	2427.799528
338.295508	2434.690785
338.687896	2443.273349
339.080220	2446.734102
339.472480	2452.390276
339.864676	2454.893209
340.256807	2458.132150
340.648875	2462.238170
341.040879	2461.560135
341.432818	2464.007615
341.824694	2464.922585
342.216506	2464.980558
342.608253	2463.042234
342.999937	2463.775722
343.391557	2463.506020
343.783113	2460.695577
344.174605	2459.503344
344.566033	2456.639969
344.957397	2459.389918
345.348697	2454.167283
345.739934	2455.629217
346.131106	2452.634772
346.522215	2450.419185
346.913260	2446.933227
347.304241	2449.448763
347.695159	2443.306117
348.086012	2444.752928
348.476802	2442.771755
348.867528	2439.676486
349.258191	2438.065838
349.648789	2442.239913
350.039324	2436.498039
350.429796	2439.709254
350.820203	2436.069541
351.210548	2433.962338
351.600828	2434.698347
351.991045	2436.482915
352.381198	2436.372010
352.771288	2434.446289
353.161314	2432.921340
353.551276	2433.072575
353.941175	2434.209355
354.331010	2435.202462
354.720782	2433.294385
355.110490	2436.835796
355.500135	2433.213727
355.889717	2433.233892
356.279235	2434.922678
356.668689	2436.815631
357.058080	2436.160281
357.447408	2432.573500
357.836672	2435.439396
358.225873	2433.004519
358.615010	2431.260280
359.004084	2438.562391
359.393095	2438.587597
359.782043	2442.433997
360.170927	2438.713626
360.559748	2441.380396
360.948505	2440.236054
361.337199	2444.324430
361.725830	2443.293514
362.114398	2446.156889
362.502903	2444.379883
362.891344	2446.282918
363.279722	2445.004986
363.668037	2445.564554
364.056289	2444.372321
364.444478	2447.903649
364.832603	2449.025306
365.220665	2446.106478
365.608665	2448.556479
365.996601	2452.208795
366.384474	2448.422888
366.772284	2450.721654
367.160031	2450.865327
367.547715	2451.117385
367.935336	2449.111006
368.322893	2453.884978
368.710388	2453.070832
369.097820	2454.144598
369.485189	2455.641820
369.872495	2457.244907
370.259738	2454.651234
370.646918	2459.218519
371.034035	2456.967644
371.421090	2457.098714
371.808081	2456.728189
372.195010	2458.535443
372.581875	2457.648200
372.968678	2460.410752
373.355418	2459.319342
373.742096	2462.654065
374.128710	2463.044755
374.515262	2462.253294
374.901751	2461.567697
375.288177	2464.284879
375.674540	2462.349076
376.060841	2464.310084
376.447079	2465.187245
376.833254	2465.668675
377.219367	2462.732203
377.605417	2467.969962
377.991404	2464.128603
378.377329	2465.487194
378.763191	2465.479632
379.148991	2468.675724
379.534727	2471.208903
379.920402	2470.309058
380.306013	2471.430714
380.691563	2474.576394
381.077049	2474.742752
381.462474	2477.154944
381.847835	2473.842906
382.233134	2476.149234
382.618371	2480.411530
383.003545	2479.531848
383.388657	2478.364821
383.773706	2481.573516
384.158693	2480.968577
384.543618	2484.608290
384.928480	2483.010245
385.313280	2485.402272
385.698017	2485.016624
386.082692	2487.154073
386.467305	2485.382108
386.851856	2488.961327
387.236344	2490.340082
387.620770	2491.212202
388.005133	2491.005515
388.389435	2494.493993
388.773674	2493.906699
389.157851	2496.036586
389.541965	2498.771412
389.926018	2500.293841
390.310008	2501.720487
390.693936	2503.900786
391.077802	2503.058913
391.461606	2505.516476
391.845348	2507.719460
392.229027	2509.221724
392.612645	2513.599966
392.996200	2516.208763
393.379694	2523.052130
393.763125	2522.706811
394.146494	2526.999353
394.529801	2533.159643
394.913047	2539.370345
395.296230	2544.298072
395.679351	2553.334341
396.062410	2562.486556
396.445408	2569.246743
396.828343	2581.494226
397.211217	2593.595516
397.594028	2607.940119
397.976778	2622.763632
398.359466	2647.982004
398.742092	2665.220230
399.124656	2694.277441
399.507158	2724.373129
399.889598	2757.233890
400.271977	2794.631690
400.654294	2833.050324
401.036549	2879.373486
401.418742	2925.003490
401.800874	2993.837926
402.182944	3049.915721
402.564952	3133.714821
402.946898	3177.968590
403.328783	3245.628437
403.710606	3332.306036
404.092367	3429.098710
404.474067	3550.376269
404.855705	3600.195472
405.237282	3675.570804
405.618797	3824.743588
406.000250	3957.641006
406.381642	4118.705871
406.762972	4208.695509
407.144240	4269.718676
407.525447	4433.231022
407.906593	4521.403323
408.287677	4690.211401
408.668700	4848.425493
409.049661	4960.954130
409.430560	5129.300942
409.811399	5242.500051
410.192176	5411.189662
410.572891	5561.405964
410.953545	5857.641808
411.334138	5815.331404
411.714669	6156.186501
412.095139	6049.409821
412.475547	6368.640888
412.855894	6445.553773
413.236180	6717.521502
413.616405	6729.804273
413.996568	6985.171483
414.376670	7114.441791
414.756711	7194.858277
415.136691	7470.543858
415.516609	7704.768468
415.896466	7889.302426
416.276262	8185.623969
416.655997	8562.949293
417.035670	8741.799350
417.415283	9250.519828
417.794834	9458.782497
418.174324	9459.117733
418.553753	9544.875322
418.933121	9995.209157
419.312428	10041.439058
419.691674	10120.058373
420.070859	10563.596732
420.449983	10479.396860
420.829045	10995.868113
421.208047	10957.704058
421.586988	11411.833881
421.965867	11731.672408
422.344686	11866.747604
422.723444	12426.711412
423.102141	11569.274157
423.480777	12592.474633
423.859352	12335.731188
424.237866	13342.638654
424.616319	13234.826017
424.994712	13871.223800
425.373044	13824.494824
425.751314	14490.385877
426.129524	13886.271644
426.507673	14884.523449
426.885762	14758.272792
427.263789	15013.072872
427.641756	15259.726448
428.019662	15405.446041
428.397508	15530.446491
428.775292	15864.367481
429.153016	15925.171358
429.530679	16059.508026
429.908282	16164.646330
430.285824	15998.084087
430.663305	16672.010739
431.040726	16395.387504
431.418086	16301.919470
431.795385	16923.871826
432.172624	17377.605919
432.549802	17022.350766
432.926920	17249.439624
433.303977	17179.483532
433.680974	17467.121688
434.057910	17776.797248
434.434786	17838.627000
434.811601	17797.344991
435.188355	18814.342327
435.565050	18524.034880
435.941683	18506.282457
436.318257	19363.434886
436.694770	19216.475169
437.071222	19792.840371
437.447614	18926.248381
437.823946	18963.094174
438.200218	19136.908118
438.576429	18931.718032
438.952580	19229.892200
439.328670	19202.120484
439.704700	19604.114694
440.080670	19199.496563
440.456580	19776.295304
440.832429	19955.478076
441.208218	19007.867182
441.583947	19422.587785
441.959616	19540.036588
442.335224	19769.139386
442.710773	19897.164529
443.086261	20419.337327
443.461689	19803.613317
443.837057	19936.334294
444.212365	20557.820343
444.587612	20558.742875
444.962800	20158.729838
445.337927	20574.456151
445.712995	19350.970633
446.088002	21140.852471
446.462949	21318.023823
446.837837	21486.219400
447.212664	21454.737395
447.587431	24184.819630
447.962139	27025.940841
448.336786	29351.183135
448.711374	27838.484101
449.085901	24293.375837
449.460369	24219.623757
449.834776	24123.715805
450.209124	26542.234568
450.583412	26111.268846
450.957640	26634.026418
451.331808	25329.022922
451.705917	24000.855324
452.079965	24015.265462
452.453954	24362.573236
452.827883	24254.367389
453.201752	24078.526902
453.575562	24221.438572
453.949311	25296.835154
454.323001	25374.753749
454.696632	25138.880681
455.070202	26640.837017
455.443713	26788.255479
455.817164	27343.160488
456.190556	27875.435758
456.563888	27336.445671
456.937160	27755.053004
457.310373	26143.249926
457.683526	26554.759315
458.056619	26531.514554
458.429653	26470.932488
458.802628	27029.877983
459.175542	27148.375345
459.548398	28427.588298
459.921194	29968.243051
460.293930	30650.817802
460.666607	32630.834319
461.039224	34363.526787
461.411782	34728.110595
461.784280	33506.601209
462.156719	33007.562267
462.529099	32443.212655
462.901419	31166.174960
463.273680	30144.900205
463.645882	30237.584339
464.018024	30225.936753
464.390106	31037.189477
464.762130	33699.594223
465.134094	37717.706390
465.505999	42961.479332
465.877845	47484.246287
466.249631	48594.943550
466.621358	46785.560008
466.993026	44627.247962
467.364634	42554.532188
467.736184	40619.109718
468.107674	39392.692769
468.479105	38636.068509
468.850477	37958.076167
469.221790	36562.437766
469.593043	34887.771499
469.964238	34016.443345
470.335373	33931.094090
470.706449	35566.000776
471.077467	38055.030158
471.448425	42577.713934
471.819324	45418.716678
472.190164	43633.387002
472.560945	40114.795208
472.931667	37059.636687
473.302330	35977.313559
473.672934	35169.574520
474.043479	35668.144635
474.413965	34905.896968
474.784393	34545.199889
475.154761	35416.177683
475.525070	35453.139423
475.895321	34992.720760
476.265513	35589.424497
476.635645	36521.763216
477.005719	36347.157811
477.375734	36806.825342
477.745691	37483.562437
478.115588	38770.717728
478.485427	40716.015819
478.855207	44010.203170
479.224928	46619.665717
479.594591	48233.500381
479.964194	47192.532358
480.333739	47290.315619
480.703226	47305.786921
481.072653	47951.772977
481.442022	48446.045509
481.811333	48712.896467
482.180584	47426.673790
482.549777	46914.036335
482.918912	46401.968530
483.287988	46106.670340
483.657005	45286.232634
484.025964	44661.187531
484.394864	44652.864586
484.763706	44217.775200
485.132489	43352.728323
485.501213	43210.086355
485.869879	43354.333931
486.238487	42945.902167
486.607036	43159.019466
486.975527	42634.893222
487.343959	42835.155579
487.712333	42925.152778
488.080648	42819.626304
488.448905	43254.259465
488.817104	43079.734719
489.185244	44008.988252
489.553326	45660.533266
489.921350	48379.426661
490.289315	51336.688495
490.657222	51959.185295
491.025070	52246.510900
491.392861	51331.763288
491.760593	50021.464059
492.128267	48335.198098
492.495883	46782.787374
492.863440	45423.699858
493.230939	44074.049383
493.598380	43016.740461
493.965763	42688.926829
494.333088	41900.558423
494.700354	41449.541512
495.067563	41174.856601
495.434713	41063.421895
495.801805	41130.761628
496.168839	40760.814032
496.535815	40433.307911
496.902733	40464.111882
497.269593	40070.233929
497.636395	40012.111945
498.003139	40383.224047
498.369825	39873.938960
498.736453	40173.315442
499.103023	39721.519673
499.469535	39589.910270
499.835989	39697.516219
500.202385	39351.335143
500.568723	39389.262264
500.935003	39579.923744
501.301226	39386.310669
501.667390	39997.742136
502.033497	40238.976471
502.399546	39682.831338
502.765537	39013.635809
503.131470	39371.446827
503.497345	39722.777441
503.863163	38418.157073
504.228923	39027.809013
504.594625	39435.550139
504.960269	38723.827436
505.325856	39387.757480
505.691385	38779.885067
506.056856	38912.664018
506.422270	39340.048000
506.787625	38916.707023
507.152924	39099.161504
507.518164	39204.312412
507.883347	38449.823080
508.248472	38675.160137
508.613540	39135.848502
508.978550	39425.636710
509.343503	39196.231442
509.708398	39377.211386
510.073236	39908.332232
510.438016	39903.686808
510.802738	39366.483811
511.167403	39963.507661
511.532010	40206.503879
511.896561	40502.008756
512.261053	41296.262709
512.625488	40859.955884
512.989866	40728.071738
513.354186	40581.696795
513.718449	40574.515671
514.082655	41230.931875
514.446803	40905.152349
514.810894	41432.083996
515.174927	41347.564011
515.538904	41253.412901
515.902822	41882.458160
516.266684	41362.052287
516.630488	41758.564243
516.994235	41634.982877
517.357925	42175.419775
517.721558	42345.760363
518.085133	42636.496308
518.448651	42771.705096
518.812112	42565.300093
519.175516	42649.633555
519.538863	42989.447654
519.902152	42947.429637
520.265385	43401.592228
520.628560	43442.050008
520.991678	43229.484715
521.354739	43473.239627
521.717743	43772.419505
522.080690	43660.722659
522.443580	44221.641765
522.806413	44269.741934
523.169189	44199.687540
523.531908	44390.437240
523.894569	44245.246968
524.257174	44416.961271
524.619722	44716.332712
524.982213	44687.076376
525.344647	44626.156553
525.707025	44660.083518
526.069345	45044.093412
526.431608	44974.671683
526.793815	45295.652030
527.155964	44848.050501
527.518057	44994.102810
527.880093	44806.576928
528.242072	45306.634184
528.603995	45008.210479
528.965860	45020.435277
529.327669	45098.921001
529.689421	45015.978897
530.051117	44964.417976
530.412755	45130.468542
530.774337	45177.850347
531.135862	44997.616494
531.497331	45208.485439
531.858743	45117.217869
532.220098	45438.651921
532.581396	45160.344940
532.942638	44822.398589
533.303824	45122.241379
533.664953	45100.466115
534.026025	44816.676880
534.387040	45285.279856
534.747999	45236.693215
535.108902	45401.964924
535.469748	44932.557883
535.830537	45049.613476
536.191270	45244.456592
536.551947	44892.500875
536.912567	45215.134721
537.273131	45317.243292
537.633638	44818.489175
537.994089	45176.038052
538.354483	44783.538855
538.714821	45336.750037
539.075103	45682.525300
539.435328	45449.611389
539.795497	45329.866341
540.155609	45333.664851
540.515665	45779.738911
540.875665	45252.837511
541.235609	45580.492346
541.595496	45539.984154
541.955328	46207.226236
542.315102	45597.047495
542.674821	45389.460342
543.034483	45406.045738
543.394090	45379.763682
543.753640	45351.513056
544.113134	46342.573655
544.472571	45381.505401
544.831953	46612.056096
545.191278	45834.032138
545.550548	45548.259208
545.909761	46006.288364
546.268918	46215.728142
546.628019	46516.647218
546.987064	46093.026457
547.346053	45388.270629
547.704986	46236.437202
548.063863	45798.739019
548.422684	46010.991761
548.781449	45862.134050
549.140158	46244.871053
549.498811	46115.988913
549.857408	45548.511266
550.215949	46383.802732
550.574434	46319.054152
550.932864	46084.650580
551.291237	46803.776218
551.649555	46399.820998
552.007817	46642.653379
552.366022	46304.664178
552.724173	46480.252608
553.082267	46866.765435
553.440305	47170.436981
553.798288	46500.744898
554.156215	46806.322000
554.514086	47011.706170
554.871902	46754.272087
555.229661	46770.199613
555.587365	46617.452651
555.945014	46704.304170
556.302606	46629.763149
556.660143	46848.584514
557.017625	46947.454143
557.375050	46734.551093
557.732421	47072.376456
558.089735	47056.698468
558.446994	46990.346801
558.804197	47447.115669
559.161345	47383.211482
559.518437	46651.258629
559.875474	46949.659648
560.232455	47101.368132
560.589381	47298.288204
560.946251	46992.212028
561.303065	47659.093667
561.659825	47456.666135
562.016528	47148.076943
562.373177	46877.361940
562.729770	47364.430663
563.086307	46864.544807
563.442789	47322.768047
563.799216	47362.497381
564.155587	47173.343206
564.511904	47190.286524
564.868164	47279.767005
565.224370	47525.470323
565.580520	47273.853732
565.936615	47472.608784
566.292654	47191.503963
566.648638	47429.096064
567.004567	47379.796100
567.360441	47426.328471
567.716260	47288.669683
568.072023	47567.135459
568.427732	47559.246054
568.783385	47124.388561
569.138982	47520.671144
569.494525	47476.321593
569.850013	47243.881551
570.205445	47212.190338
570.560823	47171.389759
570.916145	47054.878611
571.271412	47068.033502
571.626625	46845.025459
571.981782	46885.904176
572.336884	46576.117710
572.691931	46897.637461
573.046923	46498.889754
573.401860	46350.642022
573.756743	46340.652976
574.111570	46460.387941
574.466342	46305.281720
574.821059	46423.355625
575.175722	45945.371061
575.530330	45964.736654
575.884882	45689.671135
576.239380	45653.856258
576.593823	45618.696730
576.948211	45556.902267
577.302544	45075.464512
577.656823	45117.865658
578.011047	45330.088152
578.365216	45047.959977
578.719330	44865.366864
579.073389	44719.657353
579.427394	44808.437114
579.781344	44757.032468
580.135239	44422.723310
580.489080	44517.958267
580.842866	43996.927291
581.196597	44450.610973
581.550273	44403.544240
581.903895	44261.116520
582.257463	44682.609914
582.610975	44068.977983
582.964434	44364.520668
583.317837	44011.702913
583.671186	43854.489489
584.024481	44076.829580
584.377721	43618.109785
584.730906	43884.449067
585.084037	43910.234568
585.437113	43631.637722
585.790135	43666.824976
586.143103	43281.602684
586.496016	43399.608534
586.848874	43425.066361
587.201679	43436.630767
587.554428	42938.819346
587.907124	43131.930826
588.259765	42876.896332
588.612352	43120.013538
588.964884	42532.215000
589.317362	42808.112309
589.669786	42758.388888
590.022155	42537.780434
590.374470	42946.129019
590.726731	42471.882471
591.078937	42003.518949
591.431090	42083.010384
591.783188	41740.121181
592.135232	41438.037599
592.487222	41670.218022
592.839157	41771.640996
593.191038	41444.744854
593.542866	41203.787782
593.894639	40618.653494
594.246358	40893.547613
594.598022	40872.420137
594.949633	40483.860602
595.301190	40440.904930
595.652692	40275.444178
596.004141	40597.485689
596.355535	39629.170776
596.706876	39585.650495
597.058162	39423.292573
597.409395	39868.194565
597.760573	39953.876536
598.111698	39534.881034
598.462768	39550.546420
598.813785	39599.916960
599.164748	39058.761698
599.515657	39442.131365
599.866511	38903.234540
600.217312	39515.333960
600.568060	38508.958336
600.918753	39242.799101
601.269392	39200.201351
601.619978	38852.530614
601.970510	39065.194210
602.320988	39239.275334
602.671412	39543.156088
603.021783	39284.504567
603.372100	38940.849109
603.722363	39048.477744
604.072572	39120.712437
604.422728	39132.599478
604.772830	38958.266296
605.122878	39042.811487
605.472872	38990.476748
605.822813	39260.080176
606.172701	39090.306718
606.522534	39323.490330
606.872314	39586.056307
607.222041	39335.090025
607.571714	39731.279347
607.921333	39179.152013
608.270899	39486.097788
608.620411	39809.762551
608.969870	39603.934760
609.319276	39611.826686
609.668627	39656.105661
610.017926	40136.053754
610.367171	40268.764649
610.716362	40367.175534
611.065500	40324.149286
611.414585	40509.109221
611.763616	40790.370317
612.112594	40717.848278
612.461518	40949.811931
612.810389	41217.124155
613.159207	41087.488363
613.507971	41182.728362
613.856682	41638.778866
614.205340	41520.798222
614.553945	42216.008625
614.902496	41683.481297
615.250994	42136.590287
615.599439	42207.204250
615.947830	42413.833584
616.296169	42474.324910
616.644454	42590.031993
616.992686	42758.761933
617.340864	43281.443887
617.688990	42979.370387
618.037063	43592.213378
618.385082	43555.231473
618.733048	43865.927867
619.080961	43872.599834
619.428821	43878.586205
619.776628	43987.717103
620.124382	43803.417560
620.472083	43923.296198
620.819731	44053.420982
621.167326	43720.959406
621.514868	43702.334863
621.862357	43253.742747
622.209793	43258.221812
622.557176	42950.809730
622.904506	42689.418342
623.251783	42347.282792
623.599007	42122.102011
623.946179	41894.849316
624.293297	41863.705068
624.640363	41271.384614
624.987376	41254.307706
625.334336	41006.010714
625.681243	40678.353358
626.028097	40620.324636
626.374899	40492.866623
626.721647	40453.946395
627.068343	40341.964724
627.414987	40118.172781
627.761577	39887.900435
628.108115	40223.149769
628.454600	39682.836379
628.801032	39864.270027
629.147412	39828.571096
629.493739	39828.215694
629.840014	39492.817647
630.186236	39810.551491
630.532405	39439.409142
630.878521	39646.852623
631.224585	39521.181699
631.570597	39242.920089
631.916556	39401.456815
632.262462	39344.993372
632.608316	39365.389880
632.954117	39266.321125
633.299866	39251.401830
633.645562	39164.852780
633.991206	38669.032614
634.336797	38238.392047
634.682336	38237.275431
635.027823	37984.857297
635.373257	37798.591703
