Dividing Wavelength (nm)	Counts (n)	Blue Motor Position (mm): 9.000000	Red Motor Position (mm): 0.000000	
326.493990	1977.279170
326.888308	1977.279170
327.282561	1977.279170
327.676750	1952.103648
328.070874	1954.873762
328.464933	1959.675461
328.858929	1967.907665
329.252859	1980.389562
329.646726	1994.204844
330.040528	2011.022133
330.434265	2027.950328
330.827938	2047.991435
331.221547	2067.843499
331.615091	2088.350913
332.008571	2109.808584
332.401986	2130.666358
332.795338	2150.228556
333.188625	2169.155568
333.581847	2191.286233
333.975006	2206.203008
334.368100	2222.042313
334.761129	2241.528893
335.154095	2255.568507
335.546996	2281.149842
335.939833	2317.395738
336.332606	2328.040134
336.725315	2340.433811
337.117960	2347.980418
337.510540	2355.741275
337.903056	2365.639580
338.295508	2371.774664
338.687896	2380.032074
339.080220	2387.326624
339.472480	2391.016749
339.864676	2395.831051
340.256807	2396.683006
340.648875	2398.875908
341.040879	2399.841288
341.432818	2401.225085
341.824694	2403.387740
342.216506	2405.376475
342.608253	2403.473440
342.999937	2401.681310
343.391557	2397.262738
343.783113	2400.186608
344.174605	2396.141082
344.566033	2396.264590
344.957397	2394.633777
345.348697	2392.476163
345.739934	2394.109497
346.131106	2386.557848
346.522215	2387.989536
346.913260	2387.485420
347.304241	2383.908722
347.695159	2384.884185
348.086012	2381.032743
348.476802	2379.399410
348.867528	2379.041488
349.258191	2375.946219
349.648789	2375.111908
350.039324	2374.317927
350.429796	2374.852289
350.820203	2373.914634
351.210548	2374.020498
351.600828	2369.662421
351.991045	2371.507483
352.381198	2369.987575
352.771288	2371.041177
353.161314	2369.982534
353.551276	2370.448841
353.941175	2370.844572
354.331010	2371.951105
354.720782	2372.503111
355.110490	2370.930271
355.500135	2373.097967
355.889717	2370.806763
356.279235	2373.002185
356.668689	2372.740045
357.058080	2370.403471
357.447408	2370.753831
357.836672	2369.251567
358.225873	2368.986906
358.615010	2367.845085
359.004084	2373.581918
359.393095	2375.212731
359.782043	2374.232227
360.170927	2376.558719
360.559748	2375.711806
360.948505	2375.537886
361.337199	2375.807588
361.725830	2375.837834
362.114398	2379.961498
362.502903	2378.229862
362.891344	2377.577033
363.279722	2378.413864
363.668037	2379.711961
364.056289	2379.769934
364.444478	2379.986704
364.832603	2379.243134
365.220665	2381.521735
365.608665	2383.084493
365.996601	2378.991076
366.384474	2380.337064
366.772284	2382.963505
367.160031	2379.364122
367.547715	2382.025851
367.935336	2382.212373
368.322893	2383.376880
368.710388	2382.023330
369.097820	2387.314021
369.485189	2382.066180
369.872495	2385.005173
370.259738	2383.124822
370.646918	2387.911398
371.034035	2385.839484
371.421090	2384.289329
371.808081	2385.670605
372.195010	2386.648589
372.581875	2384.571633
372.968678	2386.956099
373.355418	2387.127498
373.742096	2385.814278
374.128710	2388.748229
374.515262	2387.187992
374.901751	2388.095400
375.288177	2387.555997
375.674540	2387.687067
376.060841	2389.335524
376.447079	2388.060112
376.833254	2388.150853
377.219367	2383.485265
377.605417	2388.463404
377.991404	2384.158259
378.377329	2385.668084
378.763191	2385.786552
379.148991	2390.779814
379.534727	2390.215205
379.920402	2390.298384
380.306013	2390.396687
380.691563	2389.953065
381.077049	2393.076060
381.462474	2390.061450
381.847835	2390.348796
382.233134	2393.749054
382.618371	2391.903992
383.003545	2390.968858
383.388657	2391.394835
383.773706	2395.478170
384.158693	2392.405587
384.543618	2391.180586
384.928480	2394.306102
385.313280	2391.150339
385.698017	2392.125802
386.082692	2394.608571
386.467305	2394.588406
386.851856	2395.304250
387.236344	2396.771226
387.620770	2393.965824
388.005133	2394.729558
388.389435	2392.198899
388.773674	2395.042110
389.157851	2399.105280
389.541965	2393.413817
389.926018	2397.177039
390.310008	2395.251318
390.693936	2397.091339
391.077802	2398.528068
391.461606	2396.907337
391.845348	2398.313819
392.229027	2396.826678
392.612645	2395.868859
392.996200	2400.045455
393.379694	2397.116545
393.763125	2398.172667
394.146494	2398.366751
394.529801	2396.564538
394.913047	2398.828017
395.296230	2398.250804
395.679351	2401.353635
396.062410	2397.676113
396.445408	2397.986144
396.828343	2400.002605
397.211217	2396.405742
397.594028	2396.438510
397.976778	2395.097563
398.359466	2399.551422
398.742092	2395.946997
399.124656	2401.668707
399.507158	2402.034190
399.889598	2400.025291
400.271977	2400.358007
400.654294	2402.198028
401.036549	2400.859602
401.418742	2401.250291
401.800874	2402.031670
402.182944	2402.104767
402.564952	2400.365568
402.946898	2402.389592
403.328783	2403.249108
403.710606	2402.966804
404.092367	2402.185425
404.474067	2403.796074
404.855705	2403.594427
405.237282	2405.769685
405.618797	2401.267935
406.000250	2402.659293
406.381642	2400.783984
406.762972	2401.998902
407.144240	2404.879922
407.525447	2405.021074
407.906593	2402.989489
408.287677	2406.586352
408.668700	2403.924623
409.049661	2406.256157
409.430560	2407.108112
409.811399	2408.290262
410.192176	2405.754562
410.572891	2406.339336
410.953545	2405.706671
411.334138	2403.899417
411.714669	2403.576783
412.095139	2407.211455
412.475547	2403.841444
412.855894	2406.563667
413.236180	2403.997720
413.616405	2409.101888
413.996568	2407.481157
414.376670	2407.042577
414.756711	2407.977711
415.136691	2406.107443
415.516609	2405.862947
415.896466	2406.926630
416.276262	2406.644326
416.655997	2405.051321
417.035670	2405.610889
417.415283	2406.793040
417.794834	2404.955539
418.174324	2405.804973
418.553753	2407.556774
418.933121	2408.927968
419.312428	2408.459141
419.691674	2409.636250
420.070859	2408.945612
420.449983	2410.339491
420.829045	2409.910993
421.208047	2406.331774
421.586988	2410.732701
421.965867	2408.781775
422.344686	2409.600962
422.723444	2411.360325
423.102141	2409.928637
423.480777	2405.298338
423.859352	2410.014337
424.237866	2411.357804
424.616319	2409.316137
424.994712	2408.728843
425.373044	2414.178330
425.751314	2410.440314
426.129524	2409.157341
426.507673	2411.579615
426.885762	2409.608524
427.263789	2409.283370
427.641756	2412.502146
428.019662	2411.095664
428.397508	2411.831673
428.775292	2413.185223
429.153016	2410.294121
429.530679	2413.762435
429.908282	2412.262692
430.285824	2411.914852
430.663305	2413.510377
431.040726	2409.905952
431.418086	2411.660274
431.795385	2413.026426
432.172624	2412.328227
432.549802	2413.263361
432.926920	2411.335119
433.303977	2414.994997
433.680974	2413.964081
434.057910	2412.625655
434.434786	2411.703123
434.811601	2414.049781
435.188355	2412.459297
435.565050	2413.835532
435.941683	2413.185223
436.318257	2411.279667
436.694770	2409.164903
437.071222	2412.285377
437.447614	2411.249420
437.823946	2412.509708
438.200218	2412.444173
438.576429	2414.775707
438.952580	2415.055491
439.328670	2412.305541
439.704700	2414.014492
440.080670	2412.822260
440.456580	2415.289904
440.832429	2411.950140
441.208218	2413.429719
441.583947	2417.747467
441.959616	2415.005079
442.335224	2414.879050
442.710773	2416.199833
443.086261	2414.435429
443.461689	2414.158165
443.837057	2414.616910
444.212365	2412.870151
444.587612	2417.520615
444.962800	2415.269740
445.337927	2414.695048
445.712995	2416.829977
446.088002	2417.991963
446.462949	2414.130439
446.837837	2415.955337
447.212664	2414.909297
447.587431	2415.486509
447.962139	2419.239648
448.336786	2414.944585
448.711374	2418.327200
449.085901	2415.557086
449.460369	2414.039698
449.834776	2418.107909
450.209124	2415.322672
450.583412	2416.262847
450.957640	2417.586150
451.331808	2418.584298
451.705917	2418.407858
452.079965	2418.821233
452.453954	2416.832498
452.827883	2418.216294
453.201752	2420.290729
453.575562	2419.269895
453.949311	2418.881727
454.323001	2419.436253
454.696632	2417.470203
455.070202	2420.250400
455.443713	2417.024061
455.817164	2417.208063
456.190556	2416.111612
456.563888	2419.889957
456.937160	2414.659760
457.310373	2421.626635
457.683526	2418.793506
458.056619	2420.441964
458.429653	2418.566654
458.802628	2419.683270
459.175542	2419.595050
459.548398	2420.953641
459.921194	2419.726120
460.293930	2424.623601
460.666607	2424.535381
461.039224	2421.326686
461.411782	2425.175607
461.784280	2423.164187
462.156719	2423.136460
462.529099	2421.329207
462.901419	2424.860535
463.273680	2423.703590
463.645882	2422.871800
464.018024	2425.394897
464.390106	2427.028231
464.762130	2426.536719
465.134094	2428.764909
465.505999	2430.688109
465.877845	2431.376226
466.249631	2429.090063
466.621358	2430.063006
466.993026	2436.220775
467.364634	2433.062492
467.736184	2432.565939
468.107674	2426.219126
468.479105	2431.759354
468.850477	2428.381781
469.221790	2429.384971
469.593043	2426.884558
469.964238	2428.313725
470.335373	2428.656524
470.706449	2428.873293
471.077467	2427.403797
471.448425	2434.446289
471.819324	2432.281113
472.190164	2434.116093
472.560945	2432.006371
472.931667	2431.464447
473.302330	2433.392688
473.672934	2429.412697
474.043479	2429.301792
474.413965	2428.119641
474.784393	2427.355906
475.154761	2427.965886
475.525070	2425.641914
475.895321	2428.840526
476.265513	2423.711152
476.635645	2430.342790
477.005719	2429.911771
477.375734	2432.114755
477.745691	2431.671134
478.115588	2432.833120
478.485427	2433.619540
478.855207	2435.575507
479.224928	2434.012750
479.594591	2436.447627
479.964194	2436.520724
480.333739	2439.850406
480.703226	2434.836978
481.072653	2438.355704
481.442022	2436.734973
481.811333	2438.489294
482.180584	2436.036773
482.549777	2439.056424
482.918912	2434.418563
483.287988	2437.559202
483.657005	2436.790426
484.025964	2438.832093
484.394864	2435.275559
484.763706	2438.368307
485.132489	2434.748758
485.501213	2436.036773
485.869879	2434.899993
486.238487	2440.767896
486.607036	2435.182298
486.975527	2437.360076
487.343959	2440.770417
487.712333	2437.488625
488.080648	2436.225816
488.448905	2435.144489
488.817104	2435.857812
489.185244	2436.424942
489.553326	2439.202618
489.921350	2439.381579
490.289315	2440.720005
490.657222	2442.814604
491.025070	2440.157916
491.392861	2442.121446
491.760593	2439.734459
492.128267	2441.710592
492.495883	2441.284614
492.863440	2439.711774
493.230939	2436.666917
493.598380	2438.632967
493.965763	2435.673810
494.333088	2436.656835
494.700354	2432.878490
495.067563	2433.168357
495.434713	2431.976124
495.801805	2436.719849
496.168839	2434.811773
496.535815	2437.967535
496.902733	2436.351845
497.269593	2441.166147
497.636395	2439.106836
498.003139	2437.917123
498.369825	2438.607762
498.736453	2437.556681
499.103023	2434.983172
499.469535	2437.413008
499.835989	2436.767740
500.202385	2437.165992
500.568723	2437.256732
500.935003	2438.731270
501.301226	2440.440221
501.667390	2441.894594
502.033497	2440.326795
502.399546	2440.044490
502.765537	2439.240426
503.131470	2440.195725
503.497345	2441.392999
503.863163	2440.140272
504.228923	2437.695313
504.594625	2441.922320
504.960269	2440.780499
505.325856	2444.846189
505.691385	2445.110850
506.056856	2445.597321
506.422270	2444.321909
506.787625	2447.795264
507.152924	2447.999431
507.518164	2448.019596
507.883347	2449.650409
508.248472	2451.271140
508.613540	2448.342230
508.978550	2453.849690
509.343503	2451.293825
509.708398	2455.132664
510.073236	2451.772735
510.438016	2456.627366
510.802738	2454.328600
511.167403	2459.755402
511.532010	2458.870679
511.896561	2463.256483
512.261053	2463.127934
512.625488	2459.311780
512.989866	2460.753550
513.354186	2464.274796
513.718449	2461.729014
514.082655	2472.678400
514.446803	2471.057669
514.810894	2474.039511
515.174927	2475.098154
515.538904	2477.346508
515.902822	2475.534213
516.266684	2482.390183
516.630488	2483.322796
516.994235	2482.012096
517.357925	2488.119454
517.721558	2489.074753
518.085133	2488.747078
518.448651	2490.975268
518.812112	2491.890237
519.175516	2498.347955
519.538863	2496.318891
519.902152	2496.994405
520.265385	2502.161588
520.628560	2502.340549
520.991678	2506.423884
521.354739	2506.842299
521.717743	2507.810201
522.080690	2514.227590
522.443580	2514.847652
522.806413	2518.313445
523.169189	2519.059536
523.531908	2521.396111
523.894569	2525.353416
524.257174	2525.771832
524.619722	2527.768129
524.982213	2530.089580
525.344647	2533.757020
525.707025	2537.923533
526.069345	2537.731970
526.431608	2540.239944
526.793815	2540.330684
527.155964	2544.620706
527.518057	2546.140614
527.880093	2549.334185
528.242072	2551.607746
528.603995	2553.160421
528.965860	2554.082952
529.327669	2556.210319
529.689421	2557.357182
530.051117	2560.356668
530.412755	2562.983109
530.774337	2565.002091
531.135862	2567.099211
531.497331	2566.340518
531.858743	2564.886145
532.220098	2572.115159
532.581396	2567.938563
532.942638	2571.585838
533.303824	2573.902248
533.664953	2575.825449
534.026025	2576.453072
534.387040	2583.989597
534.747999	2581.426171
535.108902	2587.727613
535.469748	2587.021851
535.830537	2586.883220
536.191270	2588.319948
536.551947	2589.683581
536.912567	2590.759867
537.273131	2595.725403
537.633638	2594.200454
537.994089	2595.480908
538.354483	2597.129365
538.714821	2600.118769
539.075103	2602.321753
539.435328	2601.946187
539.795497	2604.688575
540.155609	2606.533637
540.515665	2608.822321
540.875665	2609.785182
541.235609	2611.073196
541.595496	2608.592949
541.955328	2615.731222
542.315102	2615.360698
542.674821	2614.740636
543.034483	2617.465379
543.394090	2615.796757
543.753640	2618.806326
544.113134	2624.346554
544.472571	2622.740947
544.831953	2626.481483
545.191278	2624.817902
545.550548	2624.268417
545.909761	2627.376288
546.268918	2628.258490
546.628019	2634.320477
546.987064	2630.499283
547.346053	2630.174128
547.704986	2631.363841
548.063863	2630.441309
548.422684	2633.317288
548.781449	2632.072123
549.140158	2637.267032
549.498811	2635.598410
549.857408	2631.182359
550.215949	2636.616723
550.574434	2633.002216
550.932864	2635.081692
551.291237	2636.178142
551.649555	2639.384316
552.007817	2639.573360
552.366022	2639.197794
552.724173	2637.645118
553.082267	2643.336581
553.440305	2641.630150
553.798288	2639.021353
554.156215	2639.500263
554.514086	2642.371200
554.871902	2637.846764
555.229661	2639.543113
555.587365	2639.444810
555.945014	2641.899852
556.302606	2639.379275
556.660143	2642.212404
557.017625	2640.868936
557.375050	2638.260139
557.732421	2641.052938
558.089735	2642.356077
558.446994	2640.833648
558.804197	2640.160654
559.161345	2641.509163
559.518437	2639.533030
559.875474	2637.390540
560.232455	2635.323667
560.589381	2637.940026
560.946251	2637.851806
561.303065	2640.563946
561.659825	2638.862557
562.016528	2638.575211
562.373177	2637.642598
562.729770	2635.001033
563.086307	2634.670837
563.442789	2635.346352
563.799216	2638.928092
564.155587	2632.654376
564.511904	2634.920375
564.868164	2633.501290
565.224370	2634.743934
565.580520	2634.300313
565.936615	2637.108235
566.292654	2634.232257
566.648638	2634.905251
567.004567	2633.130765
567.360441	2638.928092
567.716260	2637.750982
568.072023	2635.706795
568.427732	2631.648666
568.783385	2632.750158
569.138982	2633.960035
569.494525	2631.401649
569.850013	2630.285034
570.205445	2633.208903
570.560823	2634.743934
570.916145	2634.025570
571.271412	2637.146044
571.626625	2634.733852
571.981782	2634.930457
572.336884	2636.031949
572.691931	2637.710653
573.046923	2634.010446
573.401860	2635.989099
573.756743	2638.981024
574.111570	2639.016312
574.466342	2639.447331
574.821059	2640.183339
575.175722	2639.248205
575.530330	2638.098822
575.884882	2643.787764
576.239380	2643.848258
576.593823	2644.291880
576.948211	2643.407157
577.302544	2643.409678
577.656823	2644.337250
578.011047	2648.223980
578.365216	2648.909577
578.719330	2652.307314
579.073389	2653.260092
579.427394	2657.262768
579.781344	2657.088849
580.135239	2656.637665
580.489080	2659.674961
580.842866	2660.446257
581.196597	2665.588234
581.550273	2672.008143
581.903895	2673.984276
582.257463	2679.635409
582.610975	2683.630524
582.964434	2687.590350
583.317837	2689.170752
583.671186	2695.197451
584.024481	2698.481763
584.377721	2702.071064
584.730906	2708.911910
585.084037	2707.850747
585.437113	2713.199412
585.790135	2716.483723
586.143103	2719.475648
586.496016	2724.910012
586.848874	2729.164746
587.201679	2735.314953
587.554428	2736.028277
587.907124	2745.044380
588.259765	2749.039495
588.612352	2761.639859
588.964884	2762.201947
589.317362	2774.174688
589.669786	2780.637447
590.022155	2784.045267
590.374470	2796.350724
590.726731	2799.519089
591.078937	2801.084367
591.431090	2804.905562
591.783188	2806.281797
592.135232	2813.730102
592.487222	2827.489931
592.839157	2833.584686
593.191038	2836.322032
593.542866	2845.075996
593.894639	2846.275791
594.246358	2855.395238
594.598022	2866.397556
594.949633	2869.949049
595.301190	2874.362579
595.652692	2882.496481
596.004141	2894.562483
596.355535	2889.864127
596.706876	2895.212792
597.058162	2902.499780
597.409395	2918.906215
597.760573	2928.406269
598.111698	2930.579007
598.462768	2938.365069
598.813785	2952.714713
599.164748	2949.871502
599.515657	2966.968576
599.866511	2972.201293
600.217312	2990.225939
600.568060	2987.866679
600.918753	3009.793178
601.269392	3020.046884
601.619978	3027.961496
601.970510	3038.512631
602.320988	3054.498130
602.671412	3072.537899
603.021783	3080.898653
603.372100	3086.096082
603.722363	3099.601333
604.072572	3112.831842
604.422728	3130.780870
604.772830	3134.012249
605.122878	3151.038747
605.472872	3164.052485
605.822813	3180.453879
606.172701	3193.616332
606.522534	3214.748849
606.872314	3233.189390
607.222041	3245.283118
607.571714	3268.868156
607.921333	3272.575925
608.270899	3298.182466
608.620411	3318.021927
608.969870	3333.430213
609.319276	3350.686083
609.668627	3372.113507
610.017926	3400.071747
610.367171	3424.508740
610.716362	3445.578242
611.065500	3467.582879
611.414585	3489.988287
611.763616	3521.308976
612.112594	3540.462840
612.461518	3569.414187
612.810389	3601.460802
613.159207	3619.034264
613.507971	3646.516114
613.856682	3685.058256
614.205340	3704.433931
614.553945	3753.628030
614.902496	3762.061881
615.250994	3798.668219
615.599439	3833.318590
615.947830	3870.096328
616.296169	3897.772263
616.644454	3936.876493
616.992686	3980.031291
617.340864	4033.896020
617.688990	4057.496181
618.037063	4113.964666
618.385082	4154.303979
618.733048	4203.046896
619.080961	4233.455136
619.428821	4268.418058
619.776628	4300.986433
620.124382	4322.610462
620.472083	4351.748331
620.819731	4383.273187
621.167326	4392.874064
621.514868	4414.583793
621.862357	4411.647321
622.209793	4439.303091
622.557176	4440.187814
622.904506	4445.894400
623.251783	4447.774750
623.599007	4460.319662
623.946179	4471.397597
624.293297	4491.806709
624.640363	4493.490454
624.987376	4520.485833
625.334336	4531.846073
625.681243	4542.866035
626.028097	4567.940735
626.374899	4591.707254
626.721647	4617.303713
627.068343	4648.601717
627.414987	4667.276671
627.761577	4684.666131
628.108115	4738.064553
628.454600	4741.563114
628.801032	4783.631543
629.147412	4817.566070
629.493739	4854.754662
629.840014	4869.643710
630.186236	4930.818112
630.532405	4946.811172
630.878521	4998.886292
631.224585	5033.448442
631.570597	5050.747162
631.916556	5097.526549
632.262462	5133.250686
632.608316	5174.414228
632.954117	5203.557138
633.299866	5231.732147
633.645562	5256.963122
633.991206	5248.816617
634.336797	5243.959465
634.682336	5268.295636
635.027823	5275.741420
635.373257	5287.784736
635.718639	5293.123318
636.063968	5308.365247
636.409245	5282.486484
636.754470	5321.257998
637.099642	5324.091126
637.444762	5314.384385
637.789829	5354.806877
638.134845	5361.665367
638.479808	5387.342484
638.824719	5412.986833
639.169577	5409.246297
639.514383	5444.632677
639.859137	5447.690136
640.203839	5502.825236
640.548489	5501.708620
640.893086	5537.276481
641.237632	5548.107400
641.582125	5596.104226
641.926566	5619.311178
642.270955	5653.492722
642.615292	5688.160737
642.959576	5723.300099
643.303809	5756.937198
643.647990	5807.673891
643.992118	5838.029199
644.336195	5881.690633
