Dividing Wavelength (nm)	Counts (n)	Blue Motor Position (mm): 28.200000	Red Motor Position (mm): 0.000000	
326.493990	1973.037039
326.888308	1973.037039
327.282561	1973.037039
327.676750	1946.323965
328.070874	1949.144491
328.464933	1956.870059
328.858929	1965.319033
329.252859	1977.629530
329.646726	1990.386170
330.040528	2006.144817
330.434265	2024.358506
330.827938	2041.710158
331.221547	2063.893755
331.615091	2084.779255
332.008571	2106.642740
332.401986	2126.033538
332.795338	2146.609007
333.188625	2168.406957
333.581847	2184.727692
333.975006	2205.978676
334.368100	2221.601212
334.761129	2238.685682
335.154095	2252.523650
335.546996	2291.680812
335.939833	2366.388192
336.332606	2381.047867
336.725315	2391.964486
337.117960	2402.462688
337.510540	2406.737587
337.903056	2418.249062
338.295508	2424.737027
338.687896	2433.382606
339.080220	2437.334870
339.472480	2442.368462
339.864676	2450.522529
340.256807	2451.319031
340.648875	2452.070163
341.040879	2453.224587
341.432818	2455.167952
341.824694	2457.431430
342.216506	2457.436471
342.608253	2457.633076
342.999937	2453.585030
343.391557	2454.943621
343.783113	2453.569906
344.174605	2449.136211
344.566033	2450.192333
344.957397	2448.246448
345.348697	2445.080603
345.739934	2444.485747
346.131106	2443.739656
346.522215	2441.047680
346.913260	2438.222113
347.304241	2440.783019
347.695159	2436.490477
348.086012	2435.484767
348.476802	2433.914447
348.867528	2432.830599
349.258191	2429.747934
349.648789	2430.244487
350.039324	2426.687953
350.429796	2428.099476
350.820203	2427.171904
351.210548	2424.684095
351.600828	2426.161153
351.991045	2425.125196
352.381198	2427.335742
352.771288	2425.715011
353.161314	2424.883220
353.551276	2421.160328
353.941175	2425.236101
354.331010	2423.035637
354.720782	2424.744588
355.110490	2426.125865
355.500135	2425.412541
355.889717	2424.943714
356.279235	2425.899013
356.668689	2427.008067
357.058080	2426.012439
357.447408	2421.573703
357.836672	2423.902716
358.225873	2426.750968
358.615010	2425.175607
359.004084	2428.429672
359.393095	2427.867583
359.782043	2429.904209
360.170927	2427.958324
360.559748	2431.464447
360.948505	2433.924530
361.337199	2433.669951
361.725830	2432.240784
362.114398	2435.623398
362.502903	2432.039138
362.891344	2434.859664
363.279722	2434.277410
363.668037	2435.888059
364.056289	2434.032914
364.444478	2436.150199
364.832603	2436.157761
365.220665	2438.181784
365.608665	2437.418049
365.996601	2439.822680
366.384474	2437.584407
366.772284	2436.866043
367.160031	2439.124480
367.547715	2437.150868
367.935336	2440.173040
368.322893	2438.592638
368.710388	2440.969542
369.097820	2440.898966
369.485189	2444.130346
369.872495	2443.532969
370.259738	2439.888215
370.646918	2443.467434
371.034035	2442.653288
371.421090	2443.369131
371.808081	2442.726384
372.195010	2445.047836
372.581875	2444.364759
372.968678	2444.876436
373.355418	2446.429112
373.742096	2444.470623
374.128710	2447.533124
374.515262	2446.582867
374.901751	2446.847528
375.288177	2445.153700
375.674540	2450.507405
376.060841	2449.753753
376.447079	2449.995728
376.833254	2446.736622
377.219367	2441.312341
377.605417	2448.402723
377.991404	2446.756787
378.377329	2449.347940
378.763191	2444.084975
379.148991	2448.647219
379.534727	2450.688887
379.920402	2453.098558
380.306013	2453.156532
380.691563	2455.722479
381.077049	2451.797941
381.462474	2452.690225
381.847835	2453.378342
382.233134	2455.994701
382.618371	2456.060236
383.003545	2456.193827
383.388657	2455.951851
383.773706	2458.767336
384.158693	2456.884465
384.543618	2457.565021
384.928480	2458.144753
385.313280	2455.475462
385.698017	2458.709362
386.082692	2459.175669
386.467305	2454.931018
386.851856	2460.556945
387.236344	2457.968313
387.620770	2458.777418
388.005133	2460.582151
388.389435	2461.182048
388.773674	2462.328911
389.157851	2465.398974
389.541965	2461.590382
389.926018	2464.113479
390.310008	2463.253963
390.693936	2462.918726
391.077802	2464.547019
391.461606	2466.492904
391.845348	2463.468212
392.229027	2462.517954
392.612645	2464.181535
392.996200	2465.426700
393.379694	2465.454426
393.763125	2468.156485
394.146494	2467.896865
394.529801	2469.235292
394.913047	2471.128245
395.296230	2466.513069
395.679351	2469.557926
396.062410	2469.444500
396.445408	2469.489870
396.828343	2470.944243
397.211217	2467.067596
397.594028	2471.806280
397.976778	2468.169088
398.359466	2473.149748
398.742092	2470.082206
399.124656	2474.614203
399.507158	2474.893987
399.889598	2471.392906
400.271977	2473.376600
400.654294	2474.558750
401.036549	2474.155458
401.418742	2473.747124
401.800874	2474.382310
402.182944	2475.622434
402.564952	2478.276601
402.946898	2478.528659
403.328783	2478.763072
403.710606	2480.638382
404.092367	2482.536376
404.474067	2482.864051
404.855705	2483.471510
405.237282	2481.583598
405.618797	2482.438074
406.000250	2482.312045
406.381642	2485.114926
406.762972	2486.697849
407.144240	2481.573516
407.525447	2485.251037
407.906593	2485.198105
408.287677	2482.420430
408.668700	2486.793631
409.049661	2486.924701
409.430560	2487.123826
409.811399	2489.480566
410.192176	2486.433188
410.572891	2489.321769
410.953545	2488.815133
411.334138	2488.638693
411.714669	2489.402428
412.095139	2488.583240
412.475547	2490.733292
412.855894	2488.149701
413.236180	2490.869403
413.616405	2492.170021
413.996568	2491.250011
414.376670	2492.754795
414.756711	2491.804537
415.136691	2494.468787
415.516609	2496.109683
415.896466	2496.651607
416.276262	2497.032214
416.655997	2498.289982
417.035670	2490.244300
417.415283	2498.277379
417.794834	2496.938953
418.174324	2498.582369
418.553753	2499.966166
418.933121	2503.341218
419.312428	2504.495642
419.691674	2500.646721
420.070859	2505.468585
420.449983	2506.849861
420.829045	2502.789212
421.208047	2508.430263
421.586988	2507.976559
421.965867	2508.352125
422.344686	2509.919924
422.723444	2511.396982
423.102141	2508.894049
423.480777	2511.727178
423.859352	2513.335306
424.237866	2513.355470
424.616319	2516.042405
424.994712	2517.222035
425.373044	2519.104906
425.751314	2519.452746
426.129524	2520.400483
426.507673	2523.410052
426.885762	2524.186389
427.263789	2526.555732
427.641756	2526.626308
428.019662	2529.227543
428.397508	2526.263345
428.775292	2530.477749
429.153016	2531.793490
429.530679	2537.946219
429.908282	2537.583256
430.285824	2537.426980
430.663305	2540.774306
431.040726	2544.766900
431.418086	2543.859492
431.795385	2548.845193
432.172624	2553.538508
432.549802	2556.056564
432.926920	2559.565207
433.303977	2566.970662
433.680974	2566.075857
434.057910	2576.511046
434.434786	2580.543969
434.811601	2587.760380
435.188355	2598.402256
435.565050	2600.433841
435.941683	2612.431787
436.318257	2625.165742
436.694770	2633.770992
437.071222	2650.794968
437.447614	2654.399393
437.823946	2666.414983
438.200218	2685.314269
438.576429	2702.549974
438.952580	2723.962275
439.328670	2741.021540
439.704700	2769.796446
440.080670	2782.782458
440.456580	2817.752942
440.832429	2848.309896
441.208218	2860.312884
441.583947	2901.962897
441.959616	2935.955397
442.335224	2980.877119
442.710773	3024.367153
443.086261	3082.350505
443.461689	3110.550719
443.837057	3161.814213
444.212365	3236.103177
444.587612	3293.284985
444.962800	3336.568332
445.337927	3415.532965
445.712995	3424.183585
446.088002	3579.942636
446.462949	3668.137623
446.837837	3759.518619
447.212664	3847.305272
447.587431	4131.701966
447.962139	4457.552068
448.336786	4751.801698
448.711374	4742.142847
449.085901	4554.226276
449.460369	4657.771576
449.834776	4780.926964
450.209124	5159.449562
450.583412	5259.587042
450.957640	5442.696873
451.331808	5431.591212
451.705917	5405.155401
452.079965	5546.685795
452.453954	5732.787551
452.827883	5873.602101
453.201752	5991.882694
453.575562	6164.771586
453.949311	6500.235168
454.323001	6686.306678
454.696632	6821.182749
455.070202	7270.682272
455.443713	7488.487845
455.817164	7801.659445
456.190556	8109.684028
456.563888	8192.573200
456.937160	8478.159606
457.310373	8314.395203
457.683526	8597.962628
458.056619	8813.184609
458.429653	9010.742387
458.802628	9363.361016
459.175542	9620.641344
459.548398	10203.870076
459.921194	10900.330686
460.293930	11363.935358
460.666607	12247.309349
461.039224	13104.149228
461.411782	13511.373635
461.784280	13383.489644
462.156719	13482.316424
462.529099	13558.949525
462.901419	13389.312177
463.273680	13272.654836
463.645882	13570.516452
464.018024	13842.012834
464.390106	14444.753352
464.762130	15841.949470
465.134094	17925.055062
465.505999	20656.097638
465.877845	23186.091436
466.249631	24154.058510
466.621358	23675.000180
466.993026	23007.977388
467.364634	22351.598993
467.736184	21765.305239
468.107674	21479.335705
468.479105	21434.484559
468.850477	21409.556053
469.221790	20979.102009
469.593043	20361.832885
469.964238	20185.263951
470.335373	20426.084911
470.706449	21686.804391
471.077467	23492.533096
471.448425	26560.816261
471.819324	28677.286730
472.190164	27874.278813
472.560945	25963.081608
472.931667	24338.191695
473.302330	23942.597229
473.672934	23698.920455
474.043479	24306.470234
474.413965	24057.936309
474.784393	24062.821187
475.154761	24923.212558
475.525070	25209.766866
475.895321	25137.799353
476.265513	25797.194879
476.635645	26721.082104
477.005719	26866.400925
477.375734	27442.871991
477.745691	28188.745990
478.115588	29407.800334
478.485427	31144.835756
478.855207	33933.518885
479.224928	36257.899141
479.594591	37833.143772
479.964194	37307.028792
480.333739	37692.601443
480.703226	38000.994030
481.072653	38792.583733
481.442022	39475.481118
481.811333	39972.506120
482.180584	39140.443513
482.549777	38961.638828
482.918912	38745.446424
483.287988	38738.633305
483.657005	38262.239225
484.025964	37950.958058
484.394864	38160.554111
484.763706	38013.614559
485.132489	37481.775348
485.501213	37524.209261
485.869879	37870.017291
486.238487	37716.579692
486.607036	38064.283196
486.975527	37783.301883
487.343959	38130.917167
487.712333	38389.664471
488.080648	38452.449522
488.448905	39016.221921
488.817104	39016.917600
489.185244	40007.315287
489.553326	41673.262878
489.921350	44355.260068
490.289315	47321.422059
490.657222	48123.588103
491.025070	48551.330007
491.392861	47770.538455
491.760593	46659.548806
492.128267	45155.165155
492.495883	43830.932177
492.863440	42629.957932
493.230939	41477.885399
493.598380	40581.732083
493.965763	40404.459908
494.333088	39730.439995
494.700354	39380.712467
495.067563	39196.118016
495.434713	39171.539871
495.801805	39319.452366
496.168839	39034.622132
496.535815	38790.340420
496.902733	38894.036954
497.269593	38565.530164
497.636395	38571.829086
498.003139	39008.808904
498.369825	38556.118330
498.736453	38891.153414
499.103023	38515.332875
499.469535	38441.868140
499.835989	38581.636651
500.202385	38304.965525
500.568723	38377.598469
500.935003	38609.451217
501.301226	38445.286042
501.667390	39063.991895
502.033497	39358.612049
502.399546	38840.038635
502.765537	38210.050680
503.131470	38604.180691
503.497345	38969.109817
503.863163	37720.383242
504.228923	38330.360337
504.594625	38750.394317
504.960269	38084.140301
505.325856	38749.980942
505.691385	38169.698764
506.056856	38317.729726
506.422270	38767.279662
506.787625	38355.964358
507.152924	38549.973163
507.518164	38661.750667
507.883347	37931.249667
508.248472	38176.053138
508.613540	38640.237543
508.978550	38954.132549
509.343503	38714.433246
509.708398	38918.816746
510.073236	39442.885018
510.438016	39451.510432
510.802738	38934.227553
511.167403	39537.575531
511.532010	39772.931881
511.896561	40081.841185
512.261053	40880.642259
512.625488	40464.000976
512.989866	40341.170742
513.354186	40197.540707
513.718449	40178.056648
514.082655	40854.435821
514.446803	40543.583151
514.810894	41044.207537
515.174927	40983.449030
515.538904	40879.772660
515.902822	41540.360419
516.266684	41001.486279
516.630488	41424.923037
516.994235	41296.287914
517.357925	41841.733199
517.721558	42011.972964
518.085133	42305.118581
518.448651	42433.085751
518.812112	42213.276320
519.175516	42322.868484
519.538863	42649.298319
519.902152	42626.156902
520.265385	43076.692383
520.628560	43121.452788
520.991678	42921.626491
521.354739	43136.024243
521.717743	43470.207373
522.080690	43356.670506
522.443580	43903.955811
522.806413	43946.349395
523.169189	43903.948250
523.531908	44081.054067
523.894569	43940.363024
524.257174	44104.903765
524.619722	44415.363225
524.982213	44395.662396
525.344647	44327.926932
525.707025	44367.389084
526.069345	44764.004384
526.431608	44688.008990
526.793815	45003.943142
527.155964	44535.060382
527.518057	44697.529209
527.880093	44493.480945
528.242072	45030.348706
528.603995	44723.075256
528.965860	44729.192696
529.327669	44816.525645
529.689421	44726.304115
530.051117	44692.992170
530.412755	44828.821019
530.774337	44887.926028
531.135862	44712.312392
531.497331	44911.657259
531.858743	44804.754551
532.220098	45148.901521
532.581396	44865.513058
532.942638	44520.549421
533.303824	44827.757336
533.664953	44797.288602
534.026025	44524.741140
534.387040	44974.464995
534.747999	44928.267861
535.108902	45100.007370
535.469748	44614.466117
535.830537	44740.043780
536.191270	44948.530779
536.551947	44591.745636
536.912567	44873.904058
537.273131	44996.394014
537.633638	44505.930074
537.994089	44838.346280
538.354483	44455.566427
538.714821	45015.399164
539.075103	45346.678589
539.435328	45121.447397
539.795497	45028.869128
540.155609	45003.812072
540.515665	45465.760726
540.875665	44924.076142
541.235609	45248.461789
541.595496	45220.765690
541.955328	45873.635442
542.315102	45266.093225
542.674821	45043.944698
543.034483	45097.179283
543.394090	45055.004990
543.753640	45021.176327
544.113134	46005.590165
544.472571	45037.456733
544.831953	46244.296361
545.191278	45488.496329
545.550548	45202.549480
545.909761	45673.809145
546.268918	45867.112189
546.628019	46171.686102
546.987064	45745.862357
547.346053	45041.827413
547.704986	45876.153498
548.063863	45466.148894
548.422684	45668.001736
548.781449	45513.127407
549.140158	45900.983702
549.498811	45754.888543
549.857408	45202.708277
550.215949	46014.974273
550.574434	45963.609956
550.932864	45740.866573
551.291237	46429.646985
551.649555	46062.976139
552.007817	46300.890875
552.366022	45946.578418
552.724173	46126.799668
553.082267	46516.669903
553.440305	46814.649987
553.798288	46137.310473
554.156215	46446.474357
554.514086	46656.735842
554.871902	46393.391007
555.229661	46418.019564
555.587365	46259.750018
555.945014	46343.881835
556.302606	46286.354708
556.660143	46501.450660
557.017625	46560.938796
557.375050	46372.013994
557.732421	46736.502020
558.089735	46719.533496
558.446994	46627.257695
558.804197	47102.348637
559.161345	47025.836524
559.518437	46311.678944
559.875474	46600.867255
560.232455	46776.856456
560.589381	46946.428269
560.946251	46643.212947
561.303065	47331.322885
561.659825	47117.018394
562.016528	46810.115469
562.373177	46542.735189
562.729770	47014.960235
563.086307	46530.018879
563.442789	46992.098602
563.799216	47041.007877
564.155587	46842.401538
564.511904	46865.789972
564.868164	46942.181097
565.224370	47205.687249
565.580520	46944.018597
565.936615	47170.978905
566.292654	46873.066877
566.648638	47093.566947
567.004567	47070.309583
567.360441	47110.023793
567.716260	46979.296592
568.072023	47268.981456
568.427732	47257.780013
568.783385	46818.198959
569.138982	47218.658138
569.494525	47184.325360
569.850013	46944.757126
570.205445	46923.528827
570.560823	46875.174080
570.916145	46769.597195
571.271412	46783.460368
571.626625	46568.883654
571.981782	46626.410781
572.336884	46310.577452
572.691931	46630.093344
573.046923	46250.015550
573.401860	46100.610873
573.756743	46084.524552
574.111570	46195.414813
574.466342	46033.072015
574.821059	46164.353743
575.175722	45699.135902
575.530330	45728.717393
575.884882	45450.251616
576.239380	45433.126816
576.593823	45390.612245
576.948211	45297.960879
577.302544	44851.735584
577.656823	44886.454011
578.011047	45111.561695
578.365216	44847.231313
578.719330	44643.747659
579.073389	44485.757897
579.427394	44578.252988
579.781344	44557.037292
580.135239	44227.340789
580.489080	44300.838292
580.842866	43798.832630
581.196597	44233.990071
581.550273	44193.018093
581.903895	44055.833174
582.257463	44490.746119
582.610975	43888.897885
582.964434	44170.194269
583.317837	43816.736288
583.671186	43668.065099
584.024481	43878.573602
584.377721	43433.724542
584.730906	43707.617992
585.084037	43718.771545
585.437113	43452.107110
585.790135	43489.094056
586.143103	43095.143006
586.496016	43239.544337
586.848874	43246.712858
587.201679	43256.661575
587.554428	42757.678085
587.907124	42937.400261
588.259765	42700.433263
588.612352	42959.392295
588.964884	42362.151675
589.317362	42645.782114
589.669786	42579.685025
590.022155	42355.930891
590.374470	42772.841876
590.726731	42305.879795
591.078937	41830.090654
591.431090	41931.107815
591.783188	41580.535895
592.135232	41253.854002
592.487222	41504.001097
592.839157	41594.048708
593.191038	41285.338528
593.542866	41048.079143
593.894639	40450.538575
594.246358	40725.654505
594.598022	40700.181554
594.949633	40318.659470
595.301190	40270.700453
595.652692	40118.165219
596.004141	40437.471904
596.355535	39459.014189
596.706876	39422.294425
597.058162	39253.650185
597.409395	39708.279082
597.760573	39799.949945
598.111698	39361.049447
598.462768	39370.494048
598.813785	39422.974981
599.164748	38873.060713
599.515657	39270.475036
599.866511	38749.784337
600.217312	39353.570895
600.568060	38330.733382
600.918753	39064.332173
601.269392	39028.648365
601.619978	38698.941780
601.970510	38911.043287
602.320988	39085.111809
602.671412	39382.489474
603.021783	39118.582550
603.372100	38765.641287
603.722363	38889.202488
604.072572	38955.970050
604.422728	38968.714087
604.772830	38783.161817
605.122878	38870.038542
605.472872	38816.095675
605.822813	39098.319632
606.172701	38925.176162
606.522534	39145.237651
606.872314	39408.978217
607.222041	39166.783542
607.571714	39551.158920
607.921333	39019.309628
608.270899	39292.789703
608.620411	39618.347418
608.969870	39427.096124
609.319276	39429.886402
609.668627	39481.361624
610.017926	39962.025561
610.367171	40123.337443
610.716362	40207.174352
611.065500	40148.936423
611.414585	40343.945897
611.763616	40642.089818
612.112594	40573.812430
612.461518	40779.632660
612.810389	41066.766700
613.159207	40935.921032
613.507971	41001.987873
613.856682	41489.051555
614.205340	41361.850641
614.553945	42046.809858
614.902496	41519.074147
615.250994	41953.256125
615.599439	42032.704709
615.947830	42259.239040
616.296169	42307.838283
616.644454	42422.748865
616.992686	42603.862399
617.340864	43114.904329
617.688990	42846.689739
618.037063	43440.257878
618.385082	43398.786826
618.733048	43692.018142
619.080961	43705.278897
619.428821	43718.988315
619.776628	43807.493332
620.124382	43649.082635
620.472083	43773.654587
620.819731	43887.824119
621.167326	43564.416456
621.514868	43550.076894
621.862357	43123.191986
622.209793	43133.143224
622.557176	42802.120897
622.904506	42549.417938
623.251783	42205.462531
623.599007	41982.807369
623.946179	41767.146807
624.293297	41717.075547
624.640363	41116.996757
624.987376	41113.969544
625.334336	40880.919523
625.681243	40526.690245
626.028097	40495.533393
626.374899	40329.692035
626.721647	40310.984313
627.068343	40205.210823
627.414987	39986.303758
627.761577	39758.962843
628.108115	40086.615158
628.454600	39543.692971
628.801032	39735.539122
629.147412	39685.669508
629.493739	39703.119462
629.840014	39353.759938
630.186236	39689.493223
630.532405	39320.944547
630.878521	39527.115137
631.224585	39409.936036
631.570597	39127.611256
631.916556	39281.205132
632.262462	39243.610727
632.608316	39246.804298
632.954117	39126.910536
633.299866	39128.062439
633.645562	39044.490191
633.991206	38548.269253
634.336797	38127.733679
634.682336	38126.652351
635.027823	37876.820328
635.373257	37698.610499
635.718639	37469.749676
636.063968	37319.886254
636.409245	36762.168281
636.754470	36800.622202
637.099642	36561.910965
