Dividing Wavelength (nm)	Counts (n)	Blue Motor Position (mm): 25.400000	Red Motor Position (mm): 0.000000	
326.493990	1969.999744
326.888308	1969.999744
327.282561	1969.999744
327.676750	1947.337237
328.070874	1947.455704
328.464933	1955.942487
328.858929	1964.575462
329.252859	1977.027112
329.646726	1991.112096
330.040528	2003.132728
330.434265	2024.615605
330.827938	2044.810467
331.221547	2064.528940
331.615091	2083.428226
332.008571	2103.406319
332.401986	2126.830040
332.795338	2145.257978
333.188625	2165.820845
333.581847	2185.932528
333.975006	2203.911803
334.368100	2222.657334
334.761129	2237.052348
335.154095	2255.104720
335.546996	2287.295008
335.939833	2360.099352
336.332606	2375.560571
336.725315	2385.920142
337.117960	2393.970865
337.510540	2399.803480
337.903056	2414.944585
338.295508	2416.167065
338.687896	2425.997315
339.080220	2432.976793
339.472480	2439.137083
339.864676	2440.901487
340.256807	2445.194029
340.648875	2447.210491
341.040879	2448.697631
341.432818	2449.315172
341.824694	2449.975563
342.216506	2451.442539
342.608253	2449.219390
342.999937	2451.187961
343.391557	2446.262754
343.783113	2446.567743
344.174605	2443.754780
344.566033	2443.792588
344.957397	2443.706889
345.348697	2440.483071
345.739934	2436.525765
346.131106	2435.759510
346.522215	2435.973759
346.913260	2431.771957
347.304241	2432.185332
347.695159	2427.955803
348.086012	2428.643921
348.476802	2427.227357
348.867528	2424.641245
349.258191	2422.478590
349.648789	2420.386511
350.039324	2421.334248
350.429796	2421.041861
350.820203	2421.193096
351.210548	2418.705286
351.600828	2418.480955
351.991045	2418.294432
352.381198	2416.335944
352.771288	2418.289391
353.161314	2416.744277
353.551276	2415.632703
353.941175	2414.450552
354.331010	2415.511715
354.720782	2416.227559
355.110490	2419.196799
355.500135	2418.251582
355.889717	2418.044895
356.279235	2416.484658
356.668689	2418.980029
357.058080	2418.032292
357.447408	2416.852662
357.836672	2415.725964
358.225873	2414.944585
358.615010	2417.233269
359.004084	2420.605801
359.393095	2422.713003
359.782043	2421.853487
360.170927	2423.665782
360.559748	2422.919691
360.948505	2424.709300
361.337199	2426.468663
361.725830	2426.012439
362.114398	2427.363468
362.502903	2425.528488
362.891344	2428.961514
363.279722	2429.019487
363.668037	2429.047213
364.056289	2428.492686
364.444478	2429.027049
364.832603	2431.933274
365.220665	2430.877152
365.608665	2431.159457
365.996601	2431.595517
366.384474	2430.216761
366.772284	2433.059972
367.160031	2430.060485
367.547715	2431.262800
367.935336	2432.961669
368.322893	2431.582914
368.710388	2432.921340
369.097820	2433.939653
369.485189	2432.893614
369.872495	2434.690785
370.259738	2434.123655
370.646918	2433.306988
371.034035	2434.567277
371.421090	2434.922678
371.808081	2438.751434
372.195010	2437.907041
372.581875	2438.617844
372.968678	2435.933429
373.355418	2434.279931
373.742096	2438.259922
374.128710	2439.222782
374.515262	2437.796136
374.901751	2439.495005
375.288177	2438.557350
375.674540	2436.795467
376.060841	2438.932916
376.447079	2439.386620
376.833254	2439.570622
377.219367	2438.945519
377.605417	2440.609100
377.991404	2437.715477
378.377329	2441.037598
378.763191	2440.097423
379.148991	2442.060952
379.534727	2443.359049
379.920402	2442.446600
380.306013	2440.609100
380.691563	2444.941971
381.077049	2441.597166
381.462474	2445.307455
381.847835	2445.662856
382.233134	2443.921138
382.618371	2445.491457
383.003545	2446.751746
383.388657	2448.639658
383.773706	2446.900460
384.158693	2446.928186
384.543618	2452.357509
384.928480	2446.212342
385.313280	2446.449276
385.698017	2452.231480
386.082692	2446.630758
386.467305	2447.394493
386.851856	2448.317024
387.236344	2451.999587
387.620770	2449.305090
388.005133	2447.417178
388.389435	2453.000256
388.773674	2451.301387
389.157851	2455.001594
389.541965	2450.966150
389.926018	2452.198712
390.310008	2452.859103
390.693936	2450.595625
391.077802	2453.678291
391.461606	2455.283898
391.845348	2453.257355
392.229027	2455.684670
392.612645	2453.529577
392.996200	2455.175514
393.379694	2455.392283
393.763125	2454.497478
394.146494	2456.196347
394.529801	2456.856738
394.913047	2458.916050
395.296230	2457.670885
395.679351	2458.908488
396.062410	2457.673405
396.445408	2455.457818
396.828343	2459.349589
397.211217	2456.468570
397.594028	2459.117696
397.976778	2455.109979
398.359466	2458.459825
398.742092	2456.216512
399.124656	2460.171297
399.507158	2458.689198
399.889598	2460.965279
400.271977	2459.215998
400.654294	2466.112297
401.036549	2461.348407
401.418742	2464.783953
401.800874	2462.603654
402.182944	2466.197997
402.564952	2464.597430
402.946898	2464.083233
403.328783	2463.695064
403.710606	2465.787143
404.092367	2465.129272
404.474067	2466.946608
404.855705	2467.155816
405.237282	2465.661114
405.618797	2467.261680
406.000250	2468.164047
406.381642	2467.060034
406.762972	2470.351907
407.144240	2469.426856
407.525447	2470.588842
407.906593	2469.512555
408.287677	2468.693368
408.668700	2469.396609
409.049661	2471.735704
409.430560	2472.307875
409.811399	2472.612865
410.192176	2472.005406
410.572891	2471.839048
410.953545	2476.441621
411.334138	2473.570684
411.714669	2474.503298
412.095139	2476.108905
412.475547	2473.994141
412.855894	2475.841724
413.236180	2472.849799
413.616405	2474.417598
413.996568	2471.241671
414.376670	2474.893987
414.756711	2473.197639
415.136691	2477.621251
415.516609	2476.398771
415.896466	2478.377424
416.276262	2476.711323
416.655997	2474.407516
417.035670	2475.657722
417.415283	2481.961685
417.794834	2474.440283
418.174324	2480.146869
418.553753	2479.983032
418.933121	2482.012096
419.312428	2480.381283
419.691674	2483.784062
420.070859	2484.227683
420.449983	2480.898001
420.829045	2483.942858
421.208047	2482.770790
421.586988	2485.593836
421.965867	2484.850266
422.344686	2486.854124
422.723444	2486.102992
423.102141	2485.424957
423.480777	2486.138281
423.859352	2487.816985
424.237866	2489.283961
424.616319	2487.620380
424.994712	2490.365288
425.373044	2491.396204
425.751314	2489.283961
426.129524	2489.566265
426.507673	2493.765546
426.885762	2494.501555
427.263789	2492.527943
427.641756	2491.587768
428.019662	2494.680516
428.397508	2492.999291
428.775292	2492.631287
429.153016	2496.195382
429.530679	2495.497183
429.908282	2495.993736
430.285824	2496.258397
430.663305	2494.725886
431.040726	2494.604898
431.418086	2498.829385
431.795385	2499.963645
432.172624	2500.417349
432.549802	2500.470281
432.926920	2498.315188
433.303977	2500.772750
433.680974	2501.218892
434.057910	2505.604696
434.434786	2503.893224
434.811601	2507.051507
435.188355	2505.307268
435.565050	2506.388596
435.941683	2506.602845
436.318257	2510.577794
436.694770	2507.870695
437.071222	2511.739780
437.447614	2506.686024
437.823946	2507.815242
438.200218	2513.675583
438.576429	2514.444359
438.952580	2515.571057
439.328670	2513.431087
439.704700	2516.801099
440.080670	2515.702127
440.456580	2520.284536
440.832429	2521.350740
441.208218	2521.287726
441.583947	2520.065246
441.959616	2525.161853
442.335224	2527.765608
442.710773	2526.540608
443.086261	2530.255938
443.461689	2528.032790
443.837057	2533.346166
444.212365	2532.806762
444.587612	2538.551157
444.962800	2542.304296
445.337927	2540.418905
445.712995	2540.842362
446.088002	2546.942158
446.462949	2553.672098
446.837837	2551.161603
447.212664	2556.124619
447.587431	2571.827814
447.962139	2588.282140
448.336786	2602.253698
448.711374	2601.338728
449.085901	2589.860021
449.460369	2594.727255
449.834776	2600.582555
450.209124	2619.015534
450.583412	2629.092801
450.957640	2637.987917
451.331808	2641.486477
451.705917	2642.421612
452.079965	2654.601039
452.453954	2666.417504
452.827883	2681.624144
453.201752	2689.122861
453.575562	2703.323791
453.949311	2730.548542
454.323001	2750.110740
454.696632	2769.398195
455.070202	2805.699543
455.443713	2833.282217
455.817164	2864.814634
456.190556	2899.235633
456.563888	2924.002821
456.937160	2955.280660
457.310373	2965.166363
457.683526	3002.576766
458.056619	3040.007333
458.429653	3078.977973
458.802628	3136.469812
459.175542	3189.618697
459.548398	3274.720936
459.921194	3380.073489
460.293930	3475.363900
460.666607	3614.121659
461.039224	3755.374790
461.411782	3836.751616
461.784280	3859.214998
462.156719	3909.571083
462.529099	3961.046305
462.901419	3981.432732
463.273680	4014.550592
463.645882	4094.175617
464.018024	4188.011654
464.390106	4337.683512
464.762130	4631.413903
465.134094	5063.851641
465.505999	5621.378051
465.877845	6135.827801
466.249631	6367.234407
466.621358	6342.595767
466.993026	6293.139527
467.364634	6255.673672
467.736184	6232.338171
468.107674	6272.758142
468.479105	6353.101532
468.850477	6432.950888
469.221790	6433.180261
469.593043	6388.404732
469.964238	6442.990346
470.335373	6582.554690
470.706449	6954.065043
471.077467	7492.535892
471.448425	8333.322215
471.819324	8949.537738
472.190164	8865.305098
472.560945	8510.612034
472.931667	8214.809729
473.302330	8222.731903
473.672934	8275.417002
474.043479	8543.891211
474.413965	8588.207995
474.784393	8710.342550
475.154761	9062.464625
475.525070	9266.860728
475.895321	9374.406184
476.265513	9687.439153
476.635645	10096.218756
477.005719	10273.024625
477.375734	10588.431977
477.745691	10967.131015
478.115588	11504.691935
478.485427	12248.183990
478.855207	13403.992017
479.224928	14413.261264
479.594591	15162.868238
479.964194	15149.975487
480.333739	15468.405011
480.703226	15793.892150
481.072653	16326.200188
481.442022	16819.761917
481.811333	17232.236686
482.180584	17118.719984
482.549777	17246.999705
482.918912	17393.629227
483.287988	17621.827138
483.657005	17627.929454
484.025964	17712.353658
484.394864	18030.329478
484.763706	18190.975928
485.132489	18172.631169
485.501213	18410.739988
485.869879	18783.266134
486.238487	18941.190361
486.607036	19347.572896
486.975527	19431.261091
487.343959	19827.815896
487.712333	20171.274749
488.080648	20441.561253
488.448905	20958.062753
488.817104	21206.921833
489.185244	21980.643167
489.553326	23146.155415
489.921350	24893.804987
490.289315	26850.228903
490.657222	27594.358664
491.025070	28141.853177
491.392861	27952.613303
491.760593	27565.850939
492.128267	26962.548332
492.495883	26430.535202
492.863440	25978.900749
493.230939	25540.824480
493.598380	25239.318110
493.965763	25368.422060
494.333088	25202.205135
494.700354	25225.691871
495.067563	25358.102818
495.434713	25573.029891
495.801805	25898.965693
496.168839	25953.253879
496.535815	26032.100046
496.902733	26335.867374
497.269593	26343.010689
497.636395	26575.985093
498.003139	27117.606662
498.369825	27022.023865
498.736453	27480.509245
499.103023	27438.176156
499.469535	27624.141801
499.835989	27938.740048
500.202385	27966.524367
500.568723	28224.742349
500.935003	28628.193453
501.301226	28736.636234
501.667390	29408.974923
502.033497	29844.427272
502.399546	29662.839869
502.765537	29423.400185
503.131470	29931.397258
503.497345	30416.948593
503.863163	29648.419648
504.228923	30340.766676
504.594625	30871.615300
504.960269	30545.253520
505.325856	31277.435746
505.691385	30991.531747
506.056856	31302.250826
506.422270	31867.482639
506.787625	31723.855125
507.152924	32083.629672
507.518164	32367.159288
507.883347	31927.058995
508.248472	32324.362412
508.613540	32890.592374
508.978550	33325.671677
509.343503	33312.897393
509.708398	33645.648835
510.073236	34269.264772
510.438016	34445.702636
510.802738	34156.526928
511.167403	34847.545612
511.532010	35210.596909
511.896561	35627.621320
512.261053	36510.322317
512.625488	36264.130007
512.989866	36318.123286
513.354186	36317.750240
513.718449	36448.931146
514.082655	37210.689821
514.446803	37041.864099
514.810894	37641.327868
515.174927	37699.200314
515.538904	37758.290199
515.902822	38467.255390
516.266684	38101.950698
516.630488	38593.143084
516.994235	38581.603883
517.357925	39199.694715
517.721558	39466.631373
518.085133	39868.867559
518.448651	40099.397004
518.812112	39985.502215
519.175516	40155.361373
519.538863	40568.962840
519.902152	40633.640844
520.265385	41156.537047
520.628560	41263.475044
520.991678	41142.752012
521.354739	41445.710235
521.717743	41815.713283
522.080690	41776.903960
522.443580	42381.335786
522.806413	42499.979342
523.169189	42510.520394
523.531908	42749.415634
523.894569	42680.596322
524.257174	42893.718663
524.619722	43243.766304
524.982213	43290.898572
525.344647	43257.473201
525.707025	43342.638454
526.069345	43782.466524
526.431608	43751.057615
526.793815	44083.020117
527.155964	43695.688102
527.518057	43898.783588
527.880093	43725.317484
528.242072	44269.600782
528.603995	43998.094318
528.965860	44049.617431
529.327669	44172.412377
529.689421	44107.878046
530.051117	44103.703971
530.412755	44268.567346
530.774337	44352.701683
531.135862	44213.890991
531.497331	44405.800156
531.858743	44345.873440
532.220098	44701.710846
532.581396	44440.896669
532.942638	44119.674346
533.303824	44429.735555
533.664953	44430.043065
534.026025	44183.439901
534.387040	44647.720088
534.747999	44597.245535
535.108902	44792.839784
535.469748	44330.913816
535.830537	44456.083145
536.191270	44663.793807
536.551947	44326.986757
536.912567	44645.202032
537.273131	44766.262821
537.633638	44289.518381
537.994089	44629.234177
538.354483	44241.715640
538.714821	44820.394731
539.075103	45153.950237
539.435328	44957.849352
539.795497	44848.567219
540.155609	44844.257033
540.515665	45322.065156
540.875665	44781.303103
541.235609	45103.057268
541.595496	45090.681235
541.955328	45746.111894
542.315102	45147.505122
542.674821	44940.774964
543.034483	44972.758565
543.394090	44971.180683
543.753640	44926.420278
544.113134	45906.347489
544.472571	44970.021218
544.831953	46178.279931
545.191278	45404.480459
545.550548	45150.653322
545.909761	45597.622187
546.268918	45813.582697
546.628019	46108.366689
546.987064	45685.781885
547.346053	44969.862422
547.704986	45840.005905
548.063863	45421.280105
548.422684	45625.222504
548.781449	45489.960785
549.140158	45869.118568
549.498811	45725.428040
549.857408	45160.105486
550.215949	45992.825963
550.574434	45929.587209
550.932864	45712.058900
551.291237	46414.745334
551.649555	46034.428085
552.007817	46265.222191
552.366022	45943.548684
552.724173	46113.390198
553.082267	46506.433840
553.440305	46799.065259
553.798288	46130.527601
554.156215	46435.976154
554.514086	46655.006727
554.871902	46400.846873
555.229661	46420.046107
555.587365	46249.324912
555.945014	46354.455655
556.302606	46281.467309
556.660143	46511.432144
557.017625	46601.099148
557.375050	46398.036430
557.732421	46764.795496
558.089735	46715.921509
558.446994	46646.882907
558.804197	47081.843743
559.161345	47038.482258
559.518437	46312.636763
559.875474	46612.819831
560.232455	46774.850077
560.589381	46948.278372
560.946251	46655.785585
561.303065	47327.841969
561.659825	47120.186759
562.016528	46813.488001
562.373177	46552.910758
562.729770	47016.686830
563.086307	46554.697847
563.442789	47012.399328
563.799216	47048.158753
564.155587	46852.219186
564.511904	46865.643778
564.868164	46967.633882
565.224370	47208.265799
565.580520	46952.081923
565.936615	47172.279523
566.292654	46892.908859
566.648638	47116.695760
567.004567	47087.510000
567.360441	47131.947771
567.716260	46967.538100
568.072023	47273.158052
568.427732	47275.141746
568.783385	46823.966039
569.138982	47217.823827
569.494525	47196.643419
569.850013	46957.486040
570.205445	46933.081814
570.560823	46882.670275
570.916145	46764.477903
571.271412	46802.170610
571.626625	46553.109884
571.981782	46609.376722
572.336884	46321.012640
572.691931	46612.270345
573.046923	46226.922024
573.401860	46085.353821
573.756743	46057.987918
574.111570	46184.185642
574.466342	46032.968671
574.821059	46147.309602
575.175722	45700.965841
575.530330	45720.533079
575.884882	45450.516276
576.239380	45402.516930
576.593823	45380.068672
576.948211	45300.607484
577.302544	44826.567624
577.656823	44879.436725
578.011047	45087.033961
578.365216	44824.029403
578.719330	44614.723216
579.073389	44474.130476
579.427394	44568.639508
579.781344	44534.929312
580.135239	44202.631574
580.489080	44291.333196
580.842866	43764.300726
581.196597	44218.581785
581.550273	44161.896530
581.903895	44034.234350
582.257463	44465.525226
582.610975	43850.746433
582.964434	44137.388961
583.317837	43786.620435
583.671186	43625.822751
584.024481	43851.154766
584.377721	43396.984613
584.730906	43689.079149
585.084037	43705.944329
585.437113	43433.603555
585.790135	43457.443171
586.143103	43073.632402
586.496016	43195.446844
586.848874	43226.482708
587.201679	43238.243720
587.554428	42728.595669
587.907124	42922.765791
588.259765	42675.991228
588.612352	42945.516519
588.964884	42347.597864
589.317362	42630.613282
589.669786	42566.676328
590.022155	42362.829710
590.374470	42764.723098
590.726731	42295.379072
591.078937	41829.732732
591.431090	41899.769482
591.783188	41569.866292
592.135232	41267.157607
592.487222	41504.550583
592.839157	41586.555032
593.191038	41271.316559
593.542866	41044.242825
593.894639	40450.944388
594.246358	40710.556249
594.598022	40694.296007
594.949633	40302.762191
595.301190	40265.908836
595.652692	40120.660591
596.004141	40431.800606
596.355535	39475.430707
596.706876	39408.864791
597.058162	39244.896221
597.409395	39705.687929
597.760573	39793.005755
598.111698	39356.025937
598.462768	39371.237619
598.813785	39409.976365
599.164748	38883.390037
599.515657	39287.713261
599.866511	38750.888350
600.217312	39368.112103
600.568060	38350.096454
600.918753	39085.416798
601.269392	39037.556084
601.619978	38709.704643
601.970510	38904.648583
602.320988	39089.605997
602.671412	39388.795958
603.021783	39113.044842
603.372100	38787.149369
603.722363	38887.299452
604.072572	38967.756268
604.422728	38972.454623
604.772830	38792.435019
605.122878	38885.935820
605.472872	38830.198303
605.822813	39097.820557
606.172701	38927.220350
606.522534	39169.344448
606.872314	39418.281666
607.222041	39183.016057
607.571714	39568.039224
607.921333	39024.025627
608.270899	39310.093464
608.620411	39662.449953
608.969870	39453.615114
609.319276	39450.323240
609.668627	39515.807829
610.017926	39970.532508
610.367171	40143.360906
610.716362	40226.189585
611.065500	40193.152383
611.414585	40355.729594
611.763616	40662.115802
612.112594	40577.389129
612.461518	40805.246762
612.810389	41102.556372
613.159207	40961.371297
613.507971	41019.538651
613.856682	41507.643331
614.205340	41385.188662
614.553945	42084.777308
614.902496	41525.252081
615.250994	42000.030471
615.599439	42079.027872
615.947830	42296.823362
616.296169	42329.278311
616.644454	42465.815442
616.992686	42629.584887
617.340864	43158.346472
617.688990	42871.487174
618.037063	43474.956140
618.385082	43442.907004
618.733048	43730.182197
619.080961	43738.936161
619.428821	43757.207823
619.776628	43844.724774
620.124382	43690.452864
620.472083	43810.777644
620.819731	43941.159527
621.167326	43611.432777
621.514868	43591.986526
621.862357	43157.612984
622.209793	43170.770396
622.557176	42855.433620
622.904506	42587.403032
623.251783	42263.009823
623.599007	42042.444219
623.946179	41811.103148
624.293297	41765.440377
624.640363	41184.064268
624.987376	41184.885976
625.334336	40939.633842
625.681243	40572.547101
626.028097	40538.209281
626.374899	40401.334393
626.721647	40374.278520
627.068343	40263.423547
627.414987	40046.157378
627.761577	39807.942694
628.108115	40155.021095
628.454600	39589.701062
628.801032	39785.033170
629.147412	39759.172051
629.493739	39756.444787
629.840014	39407.087784
630.186236	39761.485941
630.532405	39379.976459
630.878521	39578.436603
631.224585	39468.360489
631.570597	39171.547432
631.916556	39345.815080
632.262462	39315.245523
632.608316	39307.025922
632.954117	39208.239471
633.299866	39193.151297
633.645562	39101.898851
633.991206	38617.532187
634.336797	38178.896349
634.682336	38189.450005
635.027823	37948.331616
635.373257	37753.334744
635.718639	37526.437451
636.063968	37377.166365
636.409245	36826.236305
636.754470	36869.151648
637.099642	36630.805894
637.444762	36161.920613
637.789829	36300.491850
