Dividing Wavelength (nm)	Counts (n)	Blue Motor Position (mm): 8.000000	Red Motor Position (mm): 0.000000	
326.493990	1978.884778
326.888308	1978.884778
327.282561	1978.884778
327.676750	1951.589450
328.070874	1955.861828
328.464933	1958.773094
328.858929	1969.472943
329.252859	1982.365694
329.646726	1997.809269
330.040528	2011.191012
330.434265	2030.934691
330.827938	2049.982691
331.221547	2070.021278
331.615091	2090.185893
332.008571	2109.370004
332.401986	2133.106277
332.795338	2147.788637
333.188625	2171.996258
333.581847	2189.665502
333.975006	2208.587473
334.368100	2227.448950
334.761129	2242.947978
335.154095	2257.400966
335.546996	2280.421395
335.939833	2307.820066
336.332606	2322.522591
336.725315	2334.162616
337.117960	2341.696620
337.510540	2347.859431
337.903056	2357.372088
338.295508	2363.754189
338.687896	2370.247195
339.080220	2376.473020
339.472480	2381.483927
339.864676	2384.904350
340.256807	2387.845863
340.648875	2390.366440
341.040879	2393.907850
341.432818	2393.491955
341.824694	2393.065978
342.216506	2393.471791
342.608253	2396.632594
342.999937	2390.096738
343.391557	2392.710576
343.783113	2389.012890
344.174605	2389.058260
344.566033	2386.414175
344.957397	2387.944165
345.348697	2385.673126
345.739934	2382.444267
346.131106	2380.382435
346.522215	2380.790768
346.913260	2377.148534
347.304241	2374.181815
347.695159	2374.438914
348.086012	2374.257433
348.476802	2368.170239
348.867528	2370.501773
349.258191	2368.288707
349.648789	2365.722759
350.039324	2364.850640
350.429796	2364.802749
350.820203	2363.108921
351.210548	2365.621936
351.600828	2362.259487
351.991045	2361.468025
352.381198	2361.904085
352.771288	2363.857532
353.161314	2364.835516
353.551276	2361.730165
353.941175	2360.981554
354.331010	2360.754702
354.720782	2361.876359
355.110490	2364.026411
355.500135	2364.112111
355.889717	2361.286544
356.279235	2363.580269
356.668689	2363.955835
357.058080	2363.915506
357.447408	2363.328211
357.836672	2359.728827
358.225873	2362.846781
358.615010	2361.498272
359.004084	2364.530526
359.393095	2364.102028
359.782043	2366.448685
360.170927	2366.562111
360.559748	2366.516741
360.948505	2369.485981
361.337199	2369.856505
361.725830	2369.029756
362.114398	2369.289376
362.502903	2370.882380
362.891344	2371.850282
363.279722	2369.105373
363.668037	2371.257946
364.056289	2373.274408
364.444478	2371.651156
364.832603	2371.814994
365.220665	2373.677700
365.608665	2373.090406
365.996601	2371.671321
366.384474	2369.853985
366.772284	2371.696527
367.160031	2370.683255
367.547715	2373.589480
367.935336	2372.185518
368.322893	2374.227186
368.710388	2373.375231
369.097820	2376.430170
369.485189	2375.227855
369.872495	2374.673328
370.259738	2374.804398
370.646918	2375.563092
371.034035	2377.007382
371.421090	2377.365304
371.808081	2373.639891
372.195010	2377.713144
372.581875	2376.916641
372.968678	2376.465458
373.355418	2376.861189
373.742096	2378.814636
374.128710	2379.250696
374.515262	2380.359749
374.901751	2378.756663
375.288177	2379.659029
375.674540	2379.414533
376.060841	2379.570809
376.447079	2378.633154
376.833254	2379.117105
377.219367	2376.538555
377.605417	2378.507125
377.991404	2375.696682
378.377329	2379.527959
378.763191	2375.263143
379.148991	2382.396376
379.534727	2379.938813
379.920402	2381.098278
380.306013	2379.064173
380.691563	2380.432846
381.077049	2381.163813
381.462474	2382.779503
381.847835	2381.778834
382.233134	2382.719009
382.618371	2383.636499
383.003545	2382.373690
383.388657	2383.132384
383.773706	2384.848897
384.158693	2383.777652
384.543618	2385.269833
384.928480	2382.471993
385.313280	2384.133053
385.698017	2383.076931
386.082692	2385.852087
386.467305	2386.182282
386.851856	2384.430481
387.236344	2383.404606
387.620770	2387.041799
388.005133	2387.407283
388.389435	2386.998949
388.773674	2384.415358
389.157851	2388.357540
389.541965	2388.271840
389.926018	2385.816798
390.310008	2386.557848
390.693936	2386.998949
391.077802	2384.788403
391.461606	2390.016080
391.845348	2386.754453
392.229027	2389.746378
392.612645	2385.713455
392.996200	2387.918960
393.379694	2388.455843
393.763125	2388.365102
394.146494	2387.132540
394.529801	2389.695966
394.913047	2388.602036
395.296230	2389.292674
395.679351	2387.371994
396.062410	2390.240411
396.445408	2390.084135
396.828343	2390.726882
397.211217	2385.020296
397.594028	2388.934752
397.976778	2387.654299
398.359466	2390.459701
398.742092	2389.637993
399.124656	2391.949362
399.507158	2391.800648
399.889598	2391.750237
400.271977	2390.437016
400.654294	2393.401214
401.036549	2392.271996
401.418742	2390.273178
401.800874	2393.388612
402.182944	2391.876265
402.564952	2395.808365
402.946898	2391.251162
403.328783	2391.846018
403.710606	2393.910371
404.092367	2395.495814
404.474067	2394.104455
404.855705	2394.139743
405.237282	2394.782491
405.618797	2394.812738
406.000250	2393.489435
406.381642	2395.946997
406.762972	2395.253838
407.144240	2394.873231
407.525447	2393.822151
407.906593	2393.968344
408.287677	2394.401883
408.668700	2394.411966
409.049661	2398.245763
409.430560	2395.271482
409.811399	2399.138048
410.192176	2397.348438
410.572891	2396.304919
410.953545	2397.683675
411.334138	2397.613098
411.714669	2395.289127
412.095139	2396.995557
412.475547	2397.829868
412.855894	2397.411452
413.236180	2393.335679
413.616405	2396.441030
413.996568	2398.346586
414.376670	2397.940773
414.756711	2396.589744
415.136691	2399.354817
415.516609	2397.847512
415.896466	2398.790208
416.276262	2400.113511
416.655997	2395.286606
417.035670	2393.267624
417.415283	2400.766340
417.794834	2393.668396
418.174324	2397.882800
418.553753	2400.970507
418.933121	2399.937070
419.312428	2399.107801
419.691674	2401.204921
420.070859	2398.452451
420.449983	2399.153171
420.829045	2398.026473
421.208047	2402.785322
421.586988	2398.969169
421.965867	2403.579304
422.344686	2403.039901
422.723444	2400.796587
423.102141	2398.875908
423.480777	2402.039232
423.859352	2400.211813
424.237866	2399.248953
424.616319	2401.552760
424.994712	2402.659293
425.373044	2403.221382
425.751314	2400.973028
426.129524	2403.153327
426.507673	2402.107287
426.885762	2402.364386
427.263789	2403.266753
427.641756	2399.453120
428.019662	2402.470250
428.397508	2400.695764
428.775292	2402.008985
429.153016	2402.445044
429.530679	2402.445044
429.908282	2401.058727
430.285824	2401.850188
430.663305	2402.994530
431.040726	2402.737431
431.418086	2402.961763
431.795385	2406.402350
432.172624	2403.828841
432.549802	2402.936557
432.926920	2402.429921
433.303977	2405.908317
433.680974	2401.751886
434.057910	2403.874212
434.434786	2403.758265
434.811601	2405.447052
435.188355	2403.329767
435.565050	2404.552247
435.941683	2402.036711
436.318257	2400.264745
436.694770	2399.095198
437.071222	2406.747669
437.447614	2400.199210
437.823946	2400.184087
438.200218	2403.922103
438.576429	2403.012174
438.952580	2402.815569
439.328670	2403.954870
439.704700	2403.226423
440.080670	2404.176681
440.456580	2405.837741
440.832429	2403.022257
441.208218	2406.062072
441.583947	2405.510066
441.959616	2403.531413
442.335224	2403.675086
442.710773	2404.769016
443.086261	2403.233985
443.461689	2404.398492
443.837057	2404.975704
444.212365	2402.505538
444.587612	2403.097874
444.962800	2405.263049
445.337927	2407.506363
445.712995	2405.315982
446.088002	2407.347567
446.462949	2406.205745
446.837837	2407.397978
447.212664	2404.756413
447.587431	2404.950498
447.962139	2403.826321
448.336786	2408.335633
448.711374	2408.328071
449.085901	2407.506363
449.460369	2405.562998
449.834776	2409.182547
450.209124	2407.569377
450.583412	2406.941754
450.957640	2408.895201
451.331808	2409.515263
451.705917	2408.181878
452.079965	2406.344377
452.453954	2409.381672
452.827883	2407.846641
453.201752	2410.992321
453.575562	2407.922258
453.949311	2409.873185
454.323001	2408.388565
454.696632	2406.596435
455.070202	2412.504667
455.443713	2407.725653
455.817164	2406.863616
456.190556	2407.208935
456.563888	2406.858575
456.937160	2403.637277
457.310373	2408.567526
457.683526	2406.465365
458.056619	2414.468196
458.429653	2408.766651
458.802628	2412.088772
459.175542	2410.548699
459.548398	2409.222876
459.921194	2408.930489
460.293930	2413.502815
460.666607	2411.942578
461.039224	2412.260171
461.411782	2412.262692
461.784280	2411.851838
462.156719	2412.625655
462.529099	2412.154307
462.901419	2412.287897
463.273680	2411.506518
463.645882	2412.466858
464.018024	2411.738412
464.390106	2410.692372
464.762130	2417.505492
465.134094	2415.630182
465.505999	2415.184040
465.877845	2419.390883
466.249631	2419.368198
466.621358	2418.385173
466.993026	2420.406676
467.364634	2419.035482
467.736184	2417.724782
468.107674	2418.914494
468.479105	2414.863927
468.850477	2416.656057
469.221790	2418.692683
469.593043	2415.494071
469.964238	2416.885430
470.335373	2413.712023
470.706449	2416.973650
471.077467	2415.869637
471.448425	2419.058167
471.819324	2421.094793
472.190164	2419.138825
472.560945	2415.567168
472.931667	2418.198650
473.302330	2416.774524
473.672934	2417.117323
474.043479	2417.258475
474.413965	2417.190419
474.784393	2413.795202
475.154761	2418.274268
475.525070	2413.502815
475.895321	2416.214956
476.265513	2414.102713
476.635645	2419.539597
477.005719	2418.720410
477.375734	2418.301994
477.745691	2420.081521
478.115588	2421.137643
478.485427	2420.383990
478.855207	2421.203178
479.224928	2421.712334
479.594591	2422.745771
479.964194	2420.658733
480.333739	2421.440112
480.703226	2420.986408
481.072653	2423.718714
481.442022	2421.321645
481.811333	2425.951945
482.180584	2423.174269
482.549777	2423.769125
482.918912	2424.205185
483.287988	2423.219639
483.657005	2421.258631
484.025964	2421.034299
484.394864	2424.500092
484.763706	2423.254927
485.132489	2422.380287
485.501213	2424.245514
485.869879	2422.241656
486.238487	2425.251224
486.607036	2422.037489
486.975527	2421.954310
487.343959	2419.758887
487.712333	2421.828281
488.080648	2422.995308
488.448905	2423.776687
488.817104	2420.343661
489.185244	2423.343148
489.553326	2424.439599
489.921350	2424.467325
490.289315	2424.759712
490.657222	2429.576534
491.025070	2427.277768
491.392861	2427.144178
491.760593	2427.774322
492.128267	2426.398087
492.495883	2422.617222
492.863440	2425.742737
493.230939	2420.389032
493.598380	2424.807603
493.965763	2419.239648
494.333088	2424.520257
494.700354	2421.336768
495.067563	2420.605801
495.434713	2419.771490
495.801805	2425.231060
496.168839	2424.590833
496.535815	2423.756522
496.902733	2423.748961
497.269593	2424.633683
497.636395	2423.658220
498.003139	2422.713003
498.369825	2422.561769
498.736453	2420.867941
499.103023	2424.177459
499.469535	2423.393559
499.835989	2423.764084
500.202385	2421.863569
500.568723	2423.050761
500.935003	2426.156112
501.301226	2420.983888
501.667390	2424.036306
502.033497	2423.403642
502.399546	2422.362643
502.765537	2424.490010
503.131470	2423.811975
503.497345	2423.857345
503.863163	2425.397418
504.228923	2423.426327
504.594625	2423.380956
504.960269	2424.003539
505.325856	2425.614187
505.691385	2423.985895
506.056856	2427.610484
506.422270	2425.243663
506.787625	2426.375402
507.152924	2424.772315
507.518164	2427.749116
507.883347	2424.232911
508.248472	2424.492531
508.613540	2426.483787
508.978550	2429.188366
509.343503	2429.480753
509.708398	2431.431679
510.073236	2431.061154
510.438016	2430.156267
510.802738	2429.478232
511.167403	2432.381937
511.532010	2430.252049
511.896561	2432.714653
512.261053	2434.446289
512.625488	2431.592996
512.989866	2431.532502
513.354186	2435.134407
513.718449	2432.114755
514.082655	2435.938471
514.446803	2438.590118
514.810894	2434.705908
515.174927	2440.911569
515.538904	2438.537185
515.902822	2441.960129
516.266684	2445.798968
516.630488	2445.766200
516.994235	2444.944492
517.357925	2441.448452
517.721558	2447.926334
518.085133	2447.008844
518.448651	2451.508074
518.812112	2450.809874
519.175516	2453.489248
519.538863	2452.440688
519.902152	2455.253652
520.265385	2456.148456
520.628560	2460.083077
520.991678	2457.968313
521.354739	2459.455453
521.717743	2462.026442
522.080690	2459.200875
522.443580	2464.491566
522.806413	2466.661783
523.169189	2468.146403
523.531908	2469.537761
523.894569	2469.928450
524.257174	2475.536734
524.619722	2474.062197
524.982213	2473.951291
525.344647	2478.468165
525.707025	2479.998155
526.069345	2480.587970
526.431608	2481.969246
526.793815	2483.504278
527.155964	2484.096613
527.518057	2485.319093
527.880093	2487.721203
528.242072	2489.929228
528.603995	2492.013745
528.965860	2491.033241
529.327669	2495.824858
529.689421	2497.254025
530.051117	2498.005157
530.412755	2496.434837
530.774337	2500.097236
531.135862	2502.022956
531.497331	2499.651093
531.858743	2500.447596
532.220098	2504.460354
532.581396	2502.542195
532.942638	2506.396157
533.303824	2508.515963
533.664953	2511.283556
534.026025	2513.360511
534.387040	2514.015861
534.747999	2513.703310
535.108902	2517.128774
535.469748	2520.140863
535.830537	2520.801254
536.191270	2519.482993
536.551947	2521.640607
536.912567	2524.025072
537.273131	2524.924918
537.633638	2524.743437
537.994089	2526.863242
538.354483	2526.873324
538.714821	2532.156453
539.075103	2533.366330
539.435328	2533.129396
539.795497	2533.600744
540.155609	2536.499407
540.515665	2536.191897
540.875665	2536.627957
541.235609	2538.873791
541.595496	2542.999975
541.955328	2540.915458
542.315102	2542.652136
542.674821	2542.042156
543.034483	2543.214224
543.394090	2544.693803
543.753640	2543.322609
544.113134	2549.417364
544.472571	2546.606921
544.831953	2552.031202
545.191278	2550.549103
545.550548	2550.922149
545.909761	2554.312325
546.268918	2552.847869
546.628019	2555.837274
546.987064	2557.079918
547.346053	2553.571275
547.704986	2558.186451
548.063863	2555.968344
548.422684	2558.075546
548.781449	2553.609084
549.140158	2559.862635
549.498811	2559.698797
549.857408	2557.611760
550.215949	2557.581513
550.574434	2558.970351
550.932864	2557.442881
551.291237	2561.637121
551.649555	2564.223233
552.007817	2563.041082
552.366022	2562.990671
552.724173	2563.363716
553.082267	2565.788511
553.440305	2565.498645
553.798288	2563.903120
554.156215	2564.545867
554.514086	2565.407904
554.871902	2565.614592
555.229661	2567.139541
555.587365	2563.245249
555.945014	2566.751372
556.302606	2566.862277
556.660143	2564.868501
557.017625	2570.965776
557.375050	2564.147616
557.732421	2567.777247
558.089735	2564.926474
558.446994	2565.077709
558.804197	2565.793553
559.161345	2564.744992
559.518437	2563.341031
559.875474	2563.217523
560.232455	2564.719787
560.589381	2563.419169
560.946251	2566.995868
561.303065	2568.460323
561.659825	2565.488563
562.016528	2562.930177
562.373177	2561.924467
562.729770	2562.294992
563.086307	2559.603016
563.442789	2562.610064
563.799216	2559.235011
564.155587	2560.013870
564.511904	2561.889179
564.868164	2557.160577
565.224370	2559.996226
565.580520	2560.644014
565.936615	2559.736606
566.292654	2555.852397
566.648638	2557.425237
567.004567	2554.085473
567.360441	2559.502192
567.716260	2555.451625
568.072023	2552.684032
568.427732	2550.407951
568.783385	2553.694783
569.138982	2548.489792
569.494525	2547.000131
569.850013	2547.539534
570.205445	2548.492313
570.560823	2547.983156
570.916145	2545.112219
571.271412	2547.053063
571.626625	2547.431150
571.981782	2546.294369
572.336884	2542.294214
572.691931	2545.936447
573.046923	2543.143648
573.401860	2541.023843
573.756743	2541.059131
574.111570	2539.219110
574.466342	2542.760521
574.821059	2538.568801
575.175722	2538.049562
575.530330	2535.037473
575.884882	2535.332380
576.239380	2533.275590
576.593823	2533.182328
576.948211	2534.697195
577.302544	2533.431865
577.656823	2533.673841
578.011047	2533.978831
578.365216	2530.235774
578.719330	2530.293747
579.073389	2528.715866
579.427394	2531.523789
579.781344	2529.512368
580.135239	2528.047913
580.489080	2528.176463
580.842866	2526.490197
581.196597	2526.701925
581.550273	2531.337266
581.903895	2529.361134
582.257463	2531.483459
582.610975	2528.486493
582.964434	2531.254087
583.317837	2531.037317
583.671186	2531.410363
584.024481	2533.487318
584.377721	2529.918181
584.730906	2531.092770
585.084037	2533.310878
585.437113	2532.022863
585.790135	2531.065044
586.143103	2528.819210
586.496016	2533.000847
586.848874	2527.952131
587.201679	2532.108563
587.554428	2530.628984
587.907124	2531.725435
588.259765	2530.593696
588.612352	2540.970911
588.964884	2537.147196
589.317362	2541.593493
589.669786	2539.917310
590.022155	2539.982845
590.374470	2543.592311
590.726731	2542.624409
591.078937	2544.061138
591.431090	2542.803370
591.783188	2542.758000
592.135232	2545.318906
592.487222	2548.494833
592.839157	2550.208825
593.191038	2549.198074
593.542866	2551.118754
593.894639	2550.133208
594.246358	2553.767880
594.598022	2558.317521
594.949633	2555.323076
595.301190	2559.451781
595.652692	2561.906823
596.004141	2561.039744
596.355535	2560.868345
596.706876	2559.330793
597.058162	2562.998233
597.409395	2565.034859
597.760573	2568.979562
598.111698	2569.110632
598.462768	2570.620457
598.813785	2571.235478
599.164748	2572.246229
599.515657	2577.544482
599.866511	2581.032961
600.217312	2582.250399
600.568060	2581.050605
600.918753	2588.992943
601.269392	2589.935638
601.619978	2591.178283
601.970510	2597.331011
602.320988	2601.048862
602.671412	2605.835437
603.021783	2604.580190
603.372100	2608.908021
603.722363	2612.245265
604.072572	2616.217694
604.422728	2619.020575
604.772830	2618.418158
605.122878	2621.256327
605.472872	2626.511730
605.822813	2628.923922
606.172701	2638.449182
606.522534	2643.326499
606.872314	2646.010913
607.222041	2652.077942
607.571714	2658.303767
607.921333	2657.855104
608.270899	2667.009839
608.620411	2670.384892
608.969870	2673.598627
609.319276	2678.803619
609.668627	2686.511543
610.017926	2695.900692
610.367171	2701.526620
610.716362	2707.291179
611.065500	2714.157231
611.414585	2724.973026
611.763616	2732.423852
612.112594	2737.996847
612.461518	2746.019844
612.810389	2755.789600
613.159207	2761.851587
613.507971	2770.492125
613.856682	2783.263888
614.205340	2790.079528
614.553945	2804.764409
614.902496	2809.230872
615.250994	2818.685556
615.599439	2832.253821
615.947830	2844.581963
616.296169	2855.422964
616.644454	2871.204297
616.992686	2885.311966
617.340864	2904.148237
617.688990	2914.785072
618.037063	2936.530089
618.385082	2946.362859
618.733048	2968.556539
619.080961	2982.699496
619.428821	2993.485045
619.776628	3009.483147
620.124382	3013.137983
620.472083	3025.146012
620.819731	3035.687064
621.167326	3040.498846
621.514868	3047.085113
621.862357	3047.339691
622.209793	3054.699776
622.557176	3056.743964
622.904506	3059.740930
623.251783	3057.893347
623.599007	3064.252762
623.946179	3067.469019
624.293297	3077.329516
624.640363	3079.744228
624.987376	3090.441557
625.334336	3095.928853
625.681243	3104.634925
626.028097	3114.717233
626.374899	3127.131074
626.721647	3137.107518
627.068343	3150.451452
627.414987	3161.758760
627.761577	3170.427024
628.108115	3189.666588
628.454600	3192.845035
628.801032	3211.651060
629.147412	3224.241342
629.493739	3244.221955
629.840014	3256.419027
630.186236	3277.390227
630.532405	3291.248358
630.878521	3310.200576
631.224585	3330.713031
631.570597	3338.201665
631.916556	3362.784852
632.262462	3381.792523
632.608316	3401.206006
632.954117	3415.419539
633.299866	3431.591561
633.645562	3445.852985
633.991206	3440.252263
634.336797	3438.981893
634.682336	3449.588480
635.027823	3454.289356
635.373257	3460.971406
635.718639	3463.796972
636.063968	3470.433651
636.409245	3469.294351
636.754470	3483.611227
637.099642	3486.766990
637.444762	3486.232628
637.789829	3505.346162
638.134845	3512.008047
638.479808	3525.886344
638.824719	3535.772046
639.169577	3537.055020
639.514383	3555.505643
639.859137	3561.955799
640.203839	3586.503698
640.548489	3585.888677
640.893086	3606.277624
641.237632	3612.916824
641.582125	3627.992394
641.926566	3644.008140
642.270955	3665.775842
642.615292	3684.738142
642.959576	3699.995195
643.303809	3717.419943
643.647990	3739.348962
643.992118	3758.487703
644.336195	3778.014612
