Dividing Wavelength (nm)	Counts (n)	Blue Motor Position (mm): 26.200000	Red Motor Position (mm): 0.000000	
326.493990	1972.933696
326.888308	1972.933696
327.282561	1972.933696
327.676750	1947.052412
328.070874	1949.600715
328.464933	1955.024997
328.858929	1965.011522
329.252859	1978.925107
329.646726	1991.361633
330.040528	2007.803357
330.434265	2024.993691
330.827938	2045.869109
331.221547	2065.741338
331.615091	2086.977198
332.008571	2106.017637
332.401986	2126.807355
332.795338	2147.400468
333.188625	2168.626247
333.581847	2185.120902
333.975006	2204.763758
334.368100	2225.026676
334.761129	2239.431773
335.154095	2256.959865
335.546996	2289.936573
335.939833	2364.475074
336.332606	2380.316900
336.725315	2390.530277
337.117960	2401.172153
337.510540	2405.010992
337.903056	2416.033475
338.295508	2421.508168
338.687896	2428.336411
339.080220	2435.938471
339.472480	2441.614810
339.864676	2444.510953
340.256807	2446.872733
340.648875	2450.391459
341.040879	2453.617797
341.432818	2453.106120
341.824694	2455.246090
342.216506	2453.572427
342.608253	2456.090483
342.999937	2452.385235
343.391557	2451.384566
343.783113	2449.763835
344.174605	2447.520522
344.566033	2446.948351
344.957397	2447.722168
345.348697	2442.617999
345.739934	2441.110694
346.131106	2440.893925
346.522215	2437.281938
346.913260	2437.286979
347.304241	2434.463933
347.695159	2433.548964
348.086012	2432.999478
348.476802	2428.432192
348.867528	2429.821030
349.258191	2426.161153
349.648789	2426.955134
350.039324	2426.304826
350.429796	2426.443457
350.820203	2420.625966
351.210548	2423.156625
351.600828	2424.036306
351.991045	2421.296439
352.381198	2421.069587
352.771288	2422.344999
353.161314	2420.746953
353.551276	2419.678229
353.941175	2420.134453
354.331010	2421.992118
354.720782	2421.979516
355.110490	2426.198961
355.500135	2421.848446
355.889717	2420.920873
356.279235	2421.888775
356.668689	2419.615214
357.058080	2423.204516
357.447408	2422.680236
357.836672	2421.752664
358.225873	2421.452715
358.615010	2418.037333
359.004084	2426.574527
359.393095	2427.212233
359.782043	2426.249373
360.170927	2424.903385
360.559748	2426.871955
360.948505	2429.251380
361.337199	2432.253387
361.725830	2430.375557
362.114398	2428.863211
362.502903	2428.522933
362.891344	2431.686257
363.279722	2430.574683
363.668037	2431.408994
364.056289	2431.628284
364.444478	2432.104673
364.832603	2431.101483
365.220665	2435.976279
365.608665	2433.460743
365.996601	2433.702719
366.384474	2436.949222
366.772284	2435.812442
367.160031	2433.743048
367.547715	2436.775302
367.935336	2435.550302
368.322893	2436.379572
368.710388	2437.163471
369.097820	2440.606579
369.485189	2436.114911
369.872495	2438.859819
370.259738	2436.828234
370.646918	2437.871753
371.034035	2440.573812
371.421090	2438.577515
371.808081	2440.142793
372.195010	2437.723039
372.581875	2438.877463
372.968678	2441.201435
373.355418	2440.745211
373.742096	2441.861826
374.128710	2442.872578
374.515262	2445.831735
374.901751	2441.022474
375.288177	2443.248144
375.674540	2443.265788
376.060841	2443.943823
376.447079	2446.416509
376.833254	2445.438525
377.219367	2442.489450
377.605417	2443.734615
377.991404	2439.396702
378.377329	2445.622527
378.763191	2440.631785
379.148991	2448.334668
379.534727	2445.352825
379.920402	2449.269802
380.306013	2447.286108
380.691563	2447.800306
381.077049	2447.351643
381.462474	2447.656633
381.847835	2448.682507
382.233134	2451.316510
382.618371	2449.090841
383.003545	2449.915070
383.388657	2451.001438
383.773706	2450.295677
384.158693	2451.417333
384.543618	2453.552262
384.928480	2455.236007
385.313280	2454.547890
385.698017	2451.172837
386.082692	2454.139557
386.467305	2454.777262
386.851856	2454.852880
387.236344	2456.093004
387.620770	2449.718465
388.005133	2456.839094
388.389435	2457.247428
388.773674	2455.344392
389.157851	2458.729527
389.541965	2456.198868
389.926018	2456.612242
390.310008	2456.287088
390.693936	2458.270782
391.077802	2458.401852
391.461606	2457.519650
391.845348	2461.577779
392.229027	2459.417645
392.612645	2456.524022
392.996200	2458.777418
393.379694	2460.940073
393.763125	2462.442337
394.146494	2463.506020
394.529801	2462.046606
394.913047	2462.540639
395.296230	2459.165587
395.679351	2462.424693
396.062410	2464.431072
396.445408	2464.599951
396.828343	2464.983078
397.211217	2460.380505
397.594028	2464.584827
397.976778	2461.262707
398.359466	2464.103397
398.742092	2461.063581
399.124656	2466.379478
399.507158	2467.927112
399.889598	2467.173460
400.271977	2467.927112
400.654294	2467.450723
401.036549	2468.826958
401.418742	2467.566670
401.800874	2467.942236
402.182944	2467.670013
402.564952	2471.455920
402.946898	2469.265539
403.328783	2470.515745
403.710606	2470.936681
404.092367	2473.573205
404.474067	2473.391723
404.855705	2475.297279
405.237282	2473.636219
405.618797	2473.026239
406.000250	2474.036991
406.381642	2472.580097
406.762972	2477.921200
407.144240	2474.624285
407.525447	2476.406333
407.906593	2477.023874
408.287677	2476.406333
408.668700	2474.999851
409.049661	2476.151755
409.430560	2478.155613
409.811399	2478.042188
410.192176	2481.384473
410.572891	2478.858854
410.953545	2481.621407
411.334138	2477.785089
411.714669	2480.643423
412.095139	2478.810963
412.475547	2482.100316
412.855894	2482.901860
413.236180	2478.720223
413.616405	2481.278608
413.996568	2481.097127
414.376670	2482.112919
414.756711	2483.133753
415.136691	2483.559730
415.516609	2483.426140
415.896466	2484.799854
416.276262	2485.369505
416.655997	2483.960502
417.035670	2482.859010
417.415283	2486.135760
417.794834	2483.060656
418.174324	2488.275730
418.553753	2489.185658
418.933121	2488.028713
419.312428	2487.718682
419.691674	2491.000473
420.070859	2486.801192
420.449983	2491.986019
420.829045	2489.851090
421.208047	2489.432675
421.586988	2490.985350
421.965867	2495.582882
422.344686	2494.821668
422.723444	2494.342758
423.102141	2493.364775
423.480777	2493.674806
423.859352	2497.753099
424.237866	2498.831906
424.616319	2495.643376
424.994712	2497.569097
425.373044	2498.884838
425.751314	2499.288130
426.129524	2497.012049
426.507673	2501.241578
426.885762	2501.198728
427.263789	2500.717297
427.641756	2500.676968
428.019662	2501.919613
428.397508	2504.367093
428.775292	2505.662669
429.153016	2503.961280
429.530679	2507.595952
429.908282	2508.899090
430.285824	2505.453462
430.663305	2508.266425
431.040726	2505.090498
431.418086	2510.418998
431.795385	2512.296828
432.172624	2511.646519
432.549802	2513.229441
432.926920	2512.755573
433.303977	2514.928310
433.680974	2514.459483
434.057910	2515.137518
434.434786	2517.322858
434.811601	2520.579444
435.188355	2523.117665
435.565050	2521.393590
435.941683	2524.241842
436.318257	2524.342665
436.694770	2522.351409
437.071222	2529.676206
437.447614	2527.251411
437.823946	2527.979858
438.200218	2531.934643
438.576429	2534.243491
438.952580	2536.527134
439.328670	2537.013605
439.704700	2539.032587
440.080670	2541.888401
440.456580	2543.476364
440.832429	2544.958464
441.208218	2548.237734
441.583947	2550.697817
441.959616	2550.360060
442.335224	2557.183262
442.710773	2560.891030
443.086261	2564.253480
443.461689	2565.972513
443.837057	2571.207752
444.212365	2578.910635
444.587612	2585.789289
444.962800	2588.738364
445.337927	2595.357399
445.712995	2599.153388
446.088002	2613.518156
446.462949	2623.839918
446.837837	2636.301651
447.212664	2647.253557
447.587431	2680.247909
447.962139	2714.989021
448.336786	2752.845566
448.711374	2755.771956
449.085901	2739.350397
449.460369	2755.673653
449.834776	2779.659463
450.209124	2830.186948
450.583412	2852.952799
450.957640	2885.818602
451.331808	2892.427554
451.705917	2904.987589
452.079965	2936.066303
452.453954	2972.322281
452.827883	3011.040863
453.201752	3043.624361
453.575562	3091.545569
453.949311	3159.568379
454.323001	3212.755072
454.696632	3262.957403
455.070202	3361.022969
455.443713	3429.048299
455.817164	3518.521218
456.190556	3608.795680
456.563888	3660.558248
456.937160	3747.465220
457.310373	3750.101743
457.683526	3845.457689
458.056619	3928.165379
458.429653	4013.791898
458.802628	4141.564983
459.175542	4249.130604
459.548398	4441.616981
459.921194	4672.847146
460.293930	4866.777814
460.666607	5168.929452
461.039224	5459.370490
461.411782	5628.665039
461.784280	5642.099714
462.156719	5718.090067
462.529099	5799.938241
462.901419	5810.698584
463.273680	5835.493499
463.645882	5989.578887
464.018024	6138.126567
464.390106	6408.289563
464.762130	6948.973478
465.134094	7762.227540
465.505999	8802.557856
465.877845	9762.295246
466.249631	10170.512761
466.621358	10092.180792
466.993026	9956.102406
467.364634	9820.581067
467.736184	9710.041166
468.107674	9722.439884
468.479105	9799.458632
468.850477	9892.135205
469.221790	9842.220220
469.593043	9697.735709
469.964238	9729.530267
470.335373	9921.366335
470.706449	10549.637777
471.077467	11421.966601
471.448425	12851.534488
471.819324	13888.144433
472.190164	13679.670036
472.560945	12974.372283
472.931667	12363.780168
473.302330	12306.860500
473.672934	12313.504741
474.043479	12726.982700
474.413965	12747.681677
474.784393	12880.793345
475.154761	13406.862954
475.525070	13676.317668
475.895321	13775.023461
476.265513	14237.519079
476.635645	14824.848790
477.005719	15038.656728
477.375734	15478.235261
477.745691	16016.277611
478.115588	16797.238041
478.485427	17904.091424
478.855207	19613.801271
479.224928	21098.680698
479.594591	22160.743429
479.964194	22050.432901
480.333739	22456.094551
480.703226	22841.760464
481.072653	23530.911400
481.442022	24140.938907
481.811333	24641.596060
482.180584	24345.040102
482.549777	24436.481592
482.918912	24503.357539
483.287988	24703.947571
483.657005	24615.097235
484.025964	24623.203410
484.394864	24952.572238
484.763706	25050.108482
485.132489	24900.625668
485.501213	25122.990964
485.869879	25525.879979
486.238487	25611.803926
486.607036	26049.822222
486.975527	26041.345522
487.343959	26473.556409
487.712333	26821.789234
488.080648	27062.738744
488.448905	27646.617785
488.817104	27840.429986
489.185244	28769.292829
489.553326	30167.444245
489.921350	32314.852276
490.289315	34777.687822
490.657222	35594.644612
491.025070	36143.787583
491.392861	35755.525475
491.760593	35118.711798
492.128267	34186.138666
492.495883	33371.989799
492.863440	32657.108813
493.230939	31971.650522
493.598380	31471.996558
493.965763	31496.350373
494.333088	31172.057987
494.700354	31080.462742
495.067563	31099.969487
495.434713	31254.919433
495.801805	31550.298280
496.168839	31503.062669
496.535815	31490.026245
496.902733	31721.999980
497.269593	31638.667187
497.636395	31805.796560
498.003139	32323.087000
498.369825	32109.553806
498.736453	32550.911866
499.103023	32385.297359
499.469535	32478.299086
499.835989	32767.537809
500.202385	32692.717003
500.568723	32900.024373
500.935003	33237.040631
501.301226	33262.596760
501.667390	33943.139927
502.033497	34344.249415
502.399546	34039.040317
502.765537	33627.825836
503.131470	34118.156185
503.497345	34584.266311
503.863163	33617.630102
504.228923	34278.270793
504.594625	34780.233605
504.960269	34333.489072
505.325856	35068.365794
505.691385	34672.584806
506.056856	34908.805713
506.422270	35434.988749
506.787625	35196.915218
507.152924	35483.414073
507.518164	35695.301331
507.883347	35137.696783
508.248472	35469.346733
508.613540	36009.045102
508.978550	36400.195791
509.343503	36274.663498
509.708398	36543.500671
510.073236	37155.693353
510.438016	37242.300376
510.802738	36844.623914
511.167403	37512.448249
511.532010	37825.662699
511.896561	38189.213071
512.261053	39060.062315
512.625488	38707.322698
512.989866	38675.646608
513.354186	38603.512738
513.718449	38665.549177
514.082655	39374.169050
514.446803	39142.512907
514.810894	39701.037465
515.174927	39703.202641
515.538904	39674.578969
515.902822	40345.846412
516.266684	39899.928628
516.630488	40352.367145
516.994235	40275.686154
517.357925	40850.327281
517.721558	41065.836607
518.085133	41401.912690
518.448651	41573.334606
518.812112	41410.608681
519.175516	41547.312170
519.538863	41912.783221
519.902152	41901.322158
520.265385	42382.901064
520.628560	42463.501553
520.991678	42282.740899
521.354739	42539.154148
521.717743	42876.593863
522.080690	42813.294615
522.443580	43371.027712
522.806413	43446.014875
523.169189	43411.460286
523.531908	43601.305099
523.894569	43514.065411
524.257174	43685.999004
524.619722	44007.191080
524.982213	44022.644737
525.344647	43947.740753
525.707025	44019.178944
526.069345	44429.102890
526.431608	44368.319177
526.793815	44675.307803
527.155964	44244.445424
527.518057	44412.250313
527.880093	44221.966919
528.242072	44758.784269
528.603995	44466.210823
528.965860	44470.039580
529.327669	44582.071662
529.689421	44497.115617
530.051117	44480.487371
530.412755	44623.711593
530.774337	44689.387745
531.135862	44524.289957
531.497331	44706.129417
531.858743	44639.563501
532.220098	44971.016846
532.581396	44708.196290
532.942638	44374.290424
533.303824	44671.191700
533.664953	44657.247869
534.026025	44393.328342
534.387040	44841.779305
534.747999	44804.194983
535.108902	44972.062885
535.469748	44498.262479
535.830537	44626.572448
536.191270	44824.336913
536.551947	44488.243186
536.912567	44776.090550
537.273131	44914.321509
537.633638	44414.896918
537.994089	44751.343526
538.354483	44366.035535
538.714821	44919.072797
539.075103	45280.853723
539.435328	45066.392956
539.795497	44943.945850
540.155609	44945.546416
540.515665	45395.242545
540.875665	44863.413417
541.235609	45174.639132
541.595496	45166.240570
541.955328	45840.358786
542.315102	45210.776643
542.674821	45016.160379
543.034483	45056.466924
543.394090	45018.650709
543.753640	44982.772817
544.113134	45962.372353
544.472571	45007.227454
544.831953	46230.518887
545.191278	45461.145549
545.550548	45210.567436
545.909761	45642.158260
546.268918	45846.733325
546.628019	46141.252656
546.987064	45717.001751
547.346053	45018.537283
547.704986	45885.615744
548.063863	45453.987111
548.422684	45655.033367
548.781449	45501.812537
549.140158	45891.476086
549.498811	45751.780671
549.857408	45195.239807
550.215949	46010.341452
550.574434	45959.226673
550.932864	45739.142499
551.291237	46432.502799
551.649555	46062.041005
552.007817	46304.651575
552.366022	45967.615153
552.724173	46125.877137
553.082267	46524.350101
553.440305	46822.010071
553.798288	46157.361663
554.156215	46464.183930
554.514086	46669.038778
554.871902	46421.613906
555.229661	46437.128057
555.587365	46261.524504
555.945014	46352.086313
556.302606	46304.182748
556.660143	46525.433949
557.017625	46603.226515
557.375050	46413.966476
557.732421	46751.862415
558.089735	46733.260558
558.446994	46654.323650
558.804197	47106.928525
559.161345	47047.682364
559.518437	46313.392936
559.875474	46625.836090
560.232455	46817.672158
560.589381	46965.244375
560.946251	46663.536359
561.303065	47341.874020
561.659825	47143.088721
562.016528	46831.830239
562.373177	46548.197279
562.729770	47034.121660
563.086307	46561.039619
563.442789	47018.123559
563.799216	47056.156544
564.155587	46857.272942
564.511904	46895.363901
564.868164	46979.268865
565.224370	47218.358189
565.580520	46945.694781
565.936615	47177.519802
566.292654	46894.300217
566.648638	47135.234604
567.004567	47086.373220
567.360441	47117.177191
567.716260	46983.387488
568.072023	47287.210269
568.427732	47272.593443
568.783385	46831.192533
569.138982	47233.174141
569.494525	47186.619085
569.850013	46948.225440
570.205445	46928.063345
570.560823	46887.431645
570.916145	46757.589166
571.271412	46793.673745
571.626625	46562.027685
571.981782	46620.041283
572.336884	46302.108313
572.691931	46615.050541
573.046923	46227.741212
573.401860	46086.510766
573.756743	46072.337562
574.111570	46178.292534
574.466342	46029.397014
574.821059	46156.232444
575.175722	45690.525611
575.530330	45716.245578
575.884882	45434.923987
576.239380	45402.287558
576.593823	45359.442791
576.948211	45287.220700
577.302544	44831.956617
577.656823	44877.942022
578.011047	45097.582575
578.365216	44817.869113
578.719330	44619.232528
579.073389	44474.836237
579.427394	44563.076594
579.781344	44535.221699
580.135239	44207.196339
580.489080	44277.517914
580.842866	43775.567705
581.196597	44245.226803
581.550273	44168.076985
581.903895	44034.998085
582.257463	44465.424403
582.610975	43852.392369
582.964434	44142.596473
583.317837	43793.657886
583.671186	43637.195594
584.024481	43855.800189
584.377721	43411.084720
584.730906	43688.154097
585.084037	43712.086975
585.437113	43427.760857
585.790135	43470.701406
586.143103	43070.335488
586.496016	43214.946027
586.848874	43219.649424
587.201679	43250.178651
587.554428	42728.976276
587.907124	42933.097636
588.259765	42675.058615
588.612352	42934.819190
588.964884	42331.526665
589.317362	42615.315901
589.669786	42564.924527
590.022155	42332.015657
590.374470	42769.393727
590.726731	42293.692806
591.078937	41823.895076
591.431090	41909.017479
591.783188	41567.368401
592.135232	41265.705755
592.487222	41493.674293
592.839157	41580.823240
593.191038	41269.516867
593.542866	41037.948944
593.894639	40443.415424
594.246358	40720.199976
594.598022	40698.497809
594.949633	40299.740019
595.301190	40268.633579
595.652692	40103.203075
596.004141	40423.197877
596.355535	39462.946289
596.706876	39405.076364
597.058162	39238.037731
597.409395	39688.515239
597.760573	39773.211665
598.111698	39355.279846
598.462768	39351.879588
598.813785	39422.859034
599.164748	38865.393118
599.515657	39253.337633
599.866511	38750.681662
600.217312	39354.364877
600.568060	38335.640946
600.918753	39062.983664
601.269392	39015.793423
601.619978	38694.417344
601.970510	38894.793128
602.320988	39060.649610
602.671412	39367.628152
603.021783	39115.371335
603.372100	38751.843648
603.722363	38872.740600
604.072572	38954.170358
604.422728	38960.691091
604.772830	38777.971949
605.122878	38872.102894
605.472872	38791.285636
605.822813	39066.462060
606.172701	38908.429449
606.522534	39140.972834
606.872314	39398.525384
607.222041	39167.786732
607.571714	39550.700175
607.921333	39001.007718
608.270899	39288.106471
608.620411	39621.147779
608.969870	39430.390518
609.319276	39421.911297
609.668627	39467.861414
610.017926	39937.402045
610.367171	40108.735741
610.716362	40200.991377
611.065500	40141.004167
611.414585	40329.228249
611.763616	40603.590526
612.112594	40545.075333
612.461518	40762.401996
612.810389	41052.689278
613.159207	40913.503021
613.507971	40989.183343
613.856682	41461.962915
614.205340	41338.502537
614.553945	42030.708413
614.902496	41502.927331
615.250994	41954.844088
615.599439	42029.387630
615.947830	42237.995618
616.296169	42285.447999
616.644454	42409.450301
616.992686	42591.320008
617.340864	43097.474540
617.688990	42830.623581
618.037063	43408.339812
618.385082	43381.064649
618.733048	43680.811657
619.080961	43694.107700
619.428821	43701.860995
619.776628	43803.546109
620.124382	43611.266419
620.472083	43754.394859
620.819731	43884.101227
621.167326	43542.144638
621.514868	43531.253225
621.862357	43085.370729
622.209793	43122.032521
622.557176	42797.052017
622.904506	42540.048953
623.251783	42190.893597
623.599007	41982.393994
623.946179	41758.629778
624.293297	41705.475852
624.640363	41119.421552
624.987376	41106.029727
625.334336	40869.990301
625.681243	40516.887721
626.028097	40479.396660
626.374899	40323.249440
626.721647	40314.127472
627.068343	40202.276871
627.414987	39966.229884
627.761577	39738.276468
628.108115	40078.856822
628.454600	39532.176455
628.801032	39729.164583
629.147412	39691.373573
629.493739	39700.366992
629.840014	39352.701296
630.186236	39685.644302
630.532405	39310.968104
630.878521	39525.834684
631.224585	39402.160056
631.570597	39113.203638
631.916556	39270.538050
632.262462	39225.114733
632.608316	39259.525649
632.954117	39137.013008
633.299866	39120.140266
633.645562	39036.903254
633.991206	38549.640447
634.336797	38143.457038
634.682336	38132.500090
635.027823	37883.217553
635.373257	37698.696198
635.718639	37466.452761
636.063968	37325.711308
636.409245	36761.638960
636.754470	36805.539848
637.099642	36570.559064
637.444762	36109.235514
