Dividing Wavelength (nm)	Counts (n)	Blue Motor Position (mm): 40.800000	Red Motor Position (mm): 0.000000	
326.493990	1969.719960
326.888308	1969.719960
327.282561	1969.719960
327.676750	1945.535024
328.070874	1948.506785
328.464933	1956.207147
328.858929	1960.998764
329.252859	1975.156844
329.646726	1989.314925
330.040528	2006.989210
330.434265	2024.393794
330.827938	2042.428522
331.221547	2063.833261
331.615091	2084.776735
332.008571	2104.971597
332.401986	2126.744341
332.795338	2144.451393
333.188625	2165.939312
333.581847	2185.413289
333.975006	2201.119004
334.368100	2221.684391
334.761129	2236.903634
335.154095	2252.989956
335.546996	2294.201389
335.939833	2377.728267
336.332606	2390.048847
336.725315	2403.062586
337.117960	2413.419636
337.510540	2422.529001
337.903056	2428.437234
338.295508	2435.515014
338.687896	2443.729574
339.080220	2448.911880
339.472480	2456.468570
339.864676	2460.511575
340.256807	2463.753037
340.648875	2464.834364
341.040879	2464.768829
341.432818	2465.061216
341.824694	2466.969293
342.216506	2465.073819
342.608253	2470.437607
342.999937	2465.441823
343.391557	2466.863429
343.783113	2463.528706
344.174605	2460.365382
344.566033	2460.879579
344.957397	2460.627522
345.348697	2459.097531
345.739934	2457.567541
346.131106	2455.500668
346.522215	2451.283743
346.913260	2453.872375
347.304241	2450.088989
347.695159	2448.223763
348.086012	2446.827363
348.476802	2445.292332
348.867528	2444.889039
349.258191	2445.345264
349.648789	2439.663883
350.039324	2440.596497
350.429796	2441.947526
350.820203	2440.193204
351.210548	2436.906372
351.600828	2438.784202
351.991045	2439.787392
352.381198	2435.797318
352.771288	2437.528955
353.161314	2436.238419
353.551276	2434.103491
353.941175	2433.508634
354.331010	2439.207659
354.720782	2438.703543
355.110490	2439.338729
355.500135	2439.404264
355.889717	2437.052566
356.279235	2438.254881
356.668689	2441.206476
357.058080	2438.751434
357.447408	2437.712957
357.836672	2436.324119
358.225873	2438.796805
358.615010	2436.402257
359.004084	2441.017433
359.393095	2441.133380
359.782043	2442.554985
360.170927	2444.392486
360.559748	2445.012547
360.948505	2446.930707
361.337199	2449.325255
361.725830	2445.413319
362.114398	2446.154369
362.502903	2448.092692
362.891344	2449.471448
363.279722	2447.971705
363.668037	2449.625203
364.056289	2449.184102
364.444478	2451.187961
364.832603	2455.299022
365.220665	2453.955554
365.608665	2455.626697
365.996601	2453.350616
366.384474	2455.563683
366.772284	2453.448918
367.160031	2456.821450
367.547715	2457.769187
367.935336	2456.067798
368.322893	2458.669033
368.710388	2457.257510
369.097820	2459.888993
369.485189	2460.874538
369.872495	2462.258335
370.259738	2460.075515
370.646918	2462.472584
371.034035	2460.786318
371.421090	2464.005095
371.808081	2461.350927
372.195010	2462.517954
372.581875	2465.789663
372.968678	2465.895527
373.355418	2466.261011
373.742096	2465.212451
374.128710	2468.101032
374.515262	2470.208234
374.901751	2469.474747
375.288177	2469.343677
375.674540	2472.451548
376.060841	2473.127063
376.447079	2473.812659
376.833254	2472.688482
377.219367	2470.475416
377.605417	2471.294603
377.991404	2471.211424
378.377329	2474.914152
378.763191	2470.745117
379.148991	2479.471355
379.534727	2476.870119
379.920402	2481.525625
380.306013	2479.635192
380.691563	2484.726757
381.077049	2484.704072
381.462474	2482.186016
381.847835	2486.344968
382.233134	2483.521922
382.618371	2487.680874
383.003545	2489.044506
383.388657	2488.794969
383.773706	2493.332007
384.158693	2492.497696
384.543618	2496.291164
384.928480	2495.398880
385.313280	2496.535660
385.698017	2497.523727
386.082692	2502.098574
386.467305	2500.694612
386.851856	2506.862464
387.236344	2507.464882
387.620770	2513.985614
388.005133	2511.321365
388.389435	2515.573578
388.773674	2516.395286
389.157851	2525.534898
389.541965	2528.453726
389.926018	2533.794828
390.310008	2537.192566
390.693936	2552.731923
391.077802	2559.721483
391.461606	2574.539954
391.845348	2589.479414
392.229027	2605.091867
392.612645	2630.353089
392.996200	2653.577685
393.379694	2680.487364
393.763125	2711.621530
394.146494	2744.003382
394.529801	2782.101902
394.913047	2828.772905
395.296230	2867.118441
395.679351	2909.196953
396.062410	2974.363948
396.445408	3010.070441
396.828343	3076.165009
397.211217	3138.209010
397.594028	3183.264322
397.976778	3264.046292
398.359466	3353.614993
398.742092	3414.547420
399.124656	3510.331863
399.507158	3613.609982
399.889598	3693.272816
400.271977	3814.341167
400.654294	3906.369951
401.036549	4033.364178
401.418742	4128.649547
401.800874	4296.262872
402.182944	4414.709822
402.564952	4618.309423
402.946898	4673.250438
403.328783	4791.319303
403.710606	4967.971416
404.092367	5162.396117
404.474067	5407.870062
404.855705	5451.347493
405.237282	5552.578904
405.618797	5839.100444
406.000250	6069.312297
406.381642	6356.287541
406.762972	6468.755683
407.144240	6509.591550
407.525447	6754.838643
407.906593	6857.801690
408.287677	7116.072605
408.668700	7335.647622
409.049661	7458.987013
409.430560	7684.256013
409.811399	7801.903941
410.192176	8030.926081
410.572891	8208.699851
410.953545	8642.738156
411.334138	8446.286911
411.714669	8963.615160
412.095139	8650.995566
412.475547	9100.343855
412.855894	9121.788924
413.236180	9472.176842
413.616405	9371.719249
413.996568	9692.273619
414.376670	9792.043095
414.756711	9804.860229
415.136691	10127.693200
415.516609	10375.813752
415.896466	10534.693277
416.276262	10865.728206
416.655997	11312.162708
417.035670	11452.122783
417.415283	12080.200141
417.794834	12257.036256
418.174324	12151.988692
418.553753	12156.969352
418.933121	12684.841174
419.312428	12599.058380
419.691674	12610.552210
420.070859	13111.388324
420.449983	12875.933672
420.829045	13453.259214
421.208047	13293.600830
421.586988	13778.635447
421.965867	14072.965735
422.344686	14125.890289
422.723444	14712.365525
423.102141	13556.302919
423.480777	14715.339805
423.859352	14295.547801
424.237866	15385.223452
424.616319	15150.063707
424.994712	15809.602906
425.373044	15653.705223
425.751314	16330.522977
426.129524	15537.022677
426.507673	16602.780573
426.885762	16359.277719
427.263789	16567.764718
427.641756	16755.938388
428.019662	16835.573496
428.397508	16898.900470
428.775292	17198.914659
429.153016	17182.598965
429.530679	17273.649765
429.908282	17312.131413
430.285824	17059.735963
430.663305	17750.245491
431.040726	17375.624746
431.418086	17226.514977
431.795385	17854.645266
432.172624	18272.972815
432.549802	17851.653342
432.926920	18042.975212
433.303977	17923.494825
433.680974	18187.802521
434.057910	18479.949989
434.434786	18521.239560
434.811601	18436.686807
435.188355	19464.857860
435.565050	19106.726729
435.941683	19075.607687
436.318257	19945.463824
436.694770	19752.216233
437.071222	20328.019345
437.447614	19435.263767
437.823946	19451.372774
438.200218	19594.029866
438.576429	19391.004957
438.952580	19658.291975
439.328670	19627.939187
439.704700	20034.843482
440.080670	19625.703436
440.456580	20193.352482
440.832429	20363.705673
441.208218	19384.126302
441.583947	19811.951385
441.959616	19928.744837
442.335224	20157.908129
442.710773	20288.688263
443.086261	20811.513890
443.461689	20184.323776
443.837057	20312.913528
444.212365	20935.357396
444.587612	20935.188517
444.962800	20537.005419
445.337927	20941.510124
445.712995	19702.896104
446.088002	21523.047550
446.462949	21707.377340
446.837837	21867.554962
447.212664	21837.028255
447.587431	24622.480004
447.962139	27510.990582
448.336786	29871.838546
448.711374	28325.862854
449.085901	24711.592481
449.460369	24637.258147
449.834776	24557.318050
450.209124	27004.538623
450.583412	26564.697950
450.957640	27080.539058
451.331808	25746.460707
451.705917	24402.728547
452.079965	24431.596714
452.453954	24778.297029
452.827883	24683.309087
453.201752	24477.360309
453.575562	24631.357476
453.949311	25730.359262
454.323001	25795.042307
454.696632	25565.203500
455.070202	27099.501358
455.443713	27241.021670
455.817164	27809.000912
456.190556	28333.795110
456.563888	27795.851063
456.937160	28222.592297
457.310373	26581.253099
457.683526	27000.593920
458.056619	26976.146844
458.429653	26920.575685
458.802628	27503.290220
459.175542	27608.133617
459.548398	28910.727441
459.921194	30457.366044
460.293930	31157.635246
460.666607	33164.400125
461.039224	34900.412192
461.411782	35273.679388
461.784280	34050.211514
462.156719	33546.754000
462.529099	32973.264777
462.901419	31679.112364
463.273680	30655.629584
463.645882	30742.992780
464.018024	30726.180532
464.390106	31561.673644
464.762130	34255.023512
465.134094	38322.972526
465.505999	43625.646310
465.877845	48180.066670
466.249631	49298.960849
466.621358	47524.255405
466.993026	45339.167270
467.364634	43250.592026
467.736184	41290.523355
468.107674	40060.265047
468.479105	39286.271491
468.850477	38605.173798
469.221790	37192.544188
469.593043	35474.808823
469.964238	34599.878765
470.335373	34497.848331
470.706449	36166.276170
471.077467	38709.616423
471.448425	43274.219914
471.819324	46141.771895
472.190164	44336.007902
472.560945	40774.079829
472.931667	37683.224897
473.302330	36598.323219
473.672934	35785.147295
474.043479	36276.259023
474.413965	35494.728943
474.784393	35141.482690
475.154761	36010.754053
475.525070	36040.517026
475.895321	35587.045072
476.265513	36186.075302
476.635645	37139.745663
477.005719	36971.229972
477.375734	37442.146838
477.745691	38112.592573
478.115588	39443.941139
478.485427	41401.617783
478.855207	44734.869035
479.224928	47355.835496
479.594591	48979.523094
479.964194	47936.165565
480.333739	48056.482784
480.703226	48089.270448
481.072653	48711.898319
481.442022	49220.860773
481.811333	49488.377163
482.180584	48183.555149
482.549777	47669.906942
482.918912	47150.315215
483.287988	46854.462499
483.657005	46021.905859
484.025964	45380.935750
484.394864	45378.072375
484.763706	44943.358555
485.132489	44076.804374
485.501213	43911.109209
485.869879	44067.624433
486.238487	43659.684181
486.607036	43864.846540
486.975527	43338.895397
487.343959	43538.620872
487.712333	43611.810864
488.080648	43527.679047
488.448905	43979.255526
488.817104	43781.523828
489.185244	44729.301081
489.553326	46389.416057
489.921350	49117.247417
490.289315	52042.013973
490.657222	52674.832536
491.025070	52958.652018
491.392861	52028.889329
491.760593	50749.706623
492.128267	49051.152849
492.495883	47492.738111
492.863440	46106.829137
493.230939	44772.685251
493.598380	43675.878888
493.965763	43358.182852
494.333088	42562.603075
494.700354	42069.900863
495.067563	41805.956130
495.434713	41670.374297
495.801805	41747.337593
496.168839	41381.498538
496.535815	41060.306462
496.902733	41082.134658
497.269593	40686.363752
497.636395	40625.953085
498.003139	40997.440753
498.369825	40482.416311
498.736453	40765.275453
499.103023	40303.667078
499.469535	40183.170898
499.835989	40295.213063
500.202385	39941.893713
500.568723	39964.452877
500.935003	40167.631542
501.301226	39963.933638
501.667390	40562.061501
502.033497	40814.595582
502.399546	40258.523545
502.765537	39583.989434
503.131470	39950.856885
503.497345	40294.487137
503.863163	38976.336312
504.228923	39587.714847
504.594625	39977.532151
504.960269	39278.056931
505.325856	39954.879726
505.691385	39328.977626
506.056856	39465.613060
506.422270	39882.082944
506.787625	39471.690171
507.152924	39675.161222
507.518164	39772.437847
507.883347	38997.942697
508.248472	39232.578162
508.613540	39702.174245
508.978550	39997.795068
509.343503	39756.364128
509.708398	39943.002767
510.073236	40465.541049
510.438016	40471.784518
510.802738	39922.386969
511.167403	40535.754239
511.532010	40766.162697
511.896561	41054.887221
512.261053	41905.768456
512.625488	41453.178704
512.989866	41306.496251
513.354186	41166.926866
513.718449	41149.497076
514.082655	41832.739780
514.446803	41498.745694
514.810894	42010.669826
515.174927	41939.050153
515.538904	41845.554393
515.902822	42501.216945
516.266684	41949.689508
516.630488	42378.787483
516.994235	42224.870973
517.357925	42783.299750
517.721558	42950.492138
518.085133	43265.221454
518.448651	43406.744287
518.812112	43167.932226
519.175516	43279.802992
519.538863	43604.281900
519.902152	43580.049074
520.265385	44043.109302
520.628560	44065.560080
520.991678	43881.479827
521.354739	44096.520327
521.717743	44424.641469
522.080690	44321.393597
522.443580	44875.731477
522.806413	44919.667653
523.169189	44864.512389
523.531908	45058.188478
523.894569	44894.406431
524.257174	45075.812352
524.619722	45379.690585
524.982213	45378.374844
525.344647	45287.533252
525.707025	45344.767992
526.069345	45729.816364
526.431608	45670.176993
526.793815	45989.907135
527.155964	45529.264141
527.518057	45672.657241
527.880093	45488.556823
528.242072	46011.906730
528.603995	45715.605351
528.965860	45716.263222
529.327669	45814.948850
529.689421	45723.557772
530.051117	45680.937336
530.412755	45830.682291
530.774337	45899.413382
531.135862	45715.184415
531.497331	45928.825994
531.858743	45825.439491
532.220098	46179.378902
532.581396	45882.366721
532.942638	45554.046453
533.303824	45834.994998
533.664953	45818.843141
534.026025	45544.377520
534.387040	46018.737494
534.747999	45977.115207
535.108902	46136.619835
535.469748	45664.293967
535.830537	45786.100847
536.191270	45975.275186
536.551947	45640.986192
536.912567	45932.480831
537.273131	46040.268262
537.633638	45552.791206
537.994089	45893.865593
538.354483	45495.848852
538.714821	46079.977431
539.075103	46428.328723
539.435328	46198.527725
539.795497	46079.417863
540.155609	46058.113947
540.515665	46542.266362
540.875665	45984.601321
541.235609	46322.938361
541.595496	46260.183557
541.955328	46940.295705
542.315102	46333.247521
542.674821	46127.555841
543.034483	46152.315468
543.394090	46132.118085
543.753640	46089.485047
544.113134	47086.037983
544.472571	46100.094155
544.831953	47343.865276
545.191278	46557.634319
545.550548	46297.457849
545.909761	46736.960765
546.268918	46947.232333
546.628019	47246.951614
546.987064	46805.868297
547.346053	46111.028418
547.704986	46969.368039
548.063863	46551.257260
548.422684	46723.452993
548.781449	46577.481342
549.140158	46977.895151
549.498811	46834.507092
549.857408	46265.146573
550.215949	47101.607587
550.574434	47044.214050
550.932864	46797.129456
551.291237	47512.938014
551.649555	47125.285887
552.007817	47378.397180
552.366022	47016.686830
552.724173	47194.284159
553.082267	47589.112370
553.440305	47905.265813
553.798288	47204.447125
554.156215	47521.180301
554.514086	47729.793329
554.871902	47474.531984
555.229661	47483.870721
555.587365	47322.528593
555.945014	47401.891478
556.302606	47337.780603
556.660143	47556.992658
557.017625	47637.633475
557.375050	47423.271011
557.732421	47779.350392
558.089735	47763.604348
558.446994	47688.438224
558.804197	48150.843102
559.161345	48087.674923
559.518437	47339.923094
559.875474	47638.639186
560.232455	47803.890729
560.589381	47976.091503
560.946251	47669.095317
561.303065	48341.983491
561.659825	48166.773148
562.016528	47848.452009
562.373177	47552.453099
562.729770	48033.273312
563.086307	47557.963080
563.442789	48003.706944
563.799216	48043.237152
564.155587	47841.787603
564.511904	47869.768528
564.868164	47959.826221
565.224370	48215.836177
565.580520	47937.700596
565.936615	48135.671749
566.292654	47864.079586
566.648638	48097.270760
567.004567	48051.804593
567.360441	48089.240202
567.716260	47946.401628
568.072023	48225.696674
568.427732	48232.287983
568.783385	47771.408054
569.138982	48173.629117
569.494525	48126.892580
569.850013	47886.971465
570.205445	47852.951238
570.560823	47817.295157
570.916145	47683.359261
571.271412	47714.939570
571.626625	47479.626070
571.981782	47522.047379
572.336884	47210.647745
572.691931	47535.106488
573.046923	47124.257491
573.401860	46978.172414
573.756743	46978.946232
574.111570	47079.481963
574.466342	46927.014785
574.821059	47056.093529
575.175722	46572.631752
575.530330	46591.646984
575.884882	46304.644014
576.239380	46255.954029
576.593823	46241.743017
576.948211	46171.058478
577.302544	45691.914449
577.656823	45714.176184
578.011047	45933.597447
578.365216	45658.481517
578.719330	45474.544936
579.073389	45324.348798
579.427394	45382.627057
579.781344	45368.075767
580.135239	45009.493453
580.489080	45093.521926
580.842866	44584.143576
581.196597	45044.521910
581.550273	44994.596843
581.903895	44848.957908
582.257463	45263.260096
582.610975	44659.907078
582.964434	44940.144820
583.317837	44593.779742
583.671186	44425.984936
584.024481	44643.120035
584.377721	44175.174929
584.730906	44446.774655
585.084037	44481.513246
585.437113	44179.608624
585.790135	44229.881531
586.143103	43829.228267
586.496016	43954.677381
586.848874	43982.101258
587.201679	44000.120862
587.554428	43478.384124
587.907124	43669.126262
588.259765	43443.171665
588.612352	43666.935881
588.964884	43056.593302
589.317362	43347.598949
589.669786	43294.772698
590.022155	43037.467165
590.374470	43469.978000
590.726731	42999.618182
591.078937	42510.220446
591.431090	42609.831125
591.783188	42262.074689
592.135232	41944.736575
592.487222	42196.539689
592.839157	42278.309725
593.191038	41949.061885
593.542866	41714.915412
593.894639	41127.396658
594.246358	41402.522670
594.598022	41373.513350
594.949633	40975.791517
595.301190	40930.101020
595.652692	40771.198809
596.004141	41084.977869
596.355535	40109.353283
596.706876	40074.624774
597.058162	39893.440663
597.409395	40372.065453
597.760573	40468.069187
598.111698	40033.365450
598.462768	40054.129963
598.813785	40092.112536
599.164748	39539.796159
599.515657	39928.083472
599.866511	39394.361391
600.217312	40017.397595
600.568060	38978.682969
600.918753	39724.362884
601.269392	39688.769817
601.619978	39342.981951
601.970510	39539.889421
602.320988	39729.711548
602.671412	40038.046161
603.021783	39777.980596
603.372100	39428.656361
603.722363	39553.341740
604.072572	39603.594482
604.422728	39630.050457
604.772830	39428.850445
605.122878	39539.637363
605.472872	39479.012447
605.822813	39755.600394
606.172701	39587.329199
606.522534	39822.496505
606.872314	40082.340260
607.222041	39851.276453
607.571714	40225.962733
607.921333	39687.993479
608.270899	39979.646915
608.620411	40317.356331
608.969870	40117.209921
609.319276	40113.509714
609.668627	40163.273464
610.017926	40647.980406
610.367171	40793.813425
610.716362	40887.541078
611.065500	40829.532521
611.414585	41051.681048
611.763616	41317.107880
612.112594	41236.008317
612.461518	41462.361166
612.810389	41750.705084
613.159207	41636.850624
613.507971	41684.542460
613.856682	42165.624813
614.205340	42054.525344
614.553945	42772.836835
614.902496	42212.542832
615.250994	42678.572299
615.599439	42749.768515
615.947830	42966.805311
616.296169	43007.497505
616.644454	43137.060200
616.992686	43297.472236
617.340864	43829.641642
617.688990	43556.721134
618.037063	44151.277340
618.385082	44102.973003
618.733048	44420.611066
619.080961	44433.861739
619.428821	44435.255618
619.776628	44552.596036
620.124382	44364.883631
620.472083	44495.399104
620.819731	44639.876053
621.167326	44298.531964
621.514868	44266.218168
621.862357	43812.395855
622.209793	43844.387017
622.557176	43510.813867
622.904506	43272.768062
623.251783	42929.997327
623.599007	42693.995709
623.946179	42488.906447
624.293297	42431.457458
624.640363	41848.914322
624.987376	41841.554238
625.334336	41582.360792
625.681243	41239.058215
626.028097	41211.357075
626.374899	41065.700496
626.721647	41036.159335
627.068343	40932.404827
627.414987	40683.157578
627.761577	40466.541718
628.108115	40800.959261
628.454600	40253.454665
628.801032	40429.711048
629.147412	40408.472667
629.493739	40414.103635
629.840014	40047.473119
630.186236	40384.449048
630.532405	40024.828256
630.878521	40215.925795
631.224585	40109.673396
631.570597	39830.088483
631.916556	39989.441877
632.262462	39924.171537
632.608316	39932.368453
632.954117	39828.124953
633.299866	39822.743522
633.645562	39738.158001
633.991206	39244.785316
634.336797	38791.837643
634.682336	38824.537087
635.027823	38558.863238
635.373257	38397.256449
