Dividing Wavelength (nm)	Counts (n)	Blue Motor Position (mm): 20.600000	Red Motor Position (mm): 0.000000	
326.493990	1975.426546
326.888308	1975.426546
327.282561	1975.426546
327.676750	1949.754470
328.070874	1948.201795
328.464933	1956.973402
328.858929	1966.780967
329.252859	1980.218163
329.646726	1993.725935
330.040528	2008.365445
330.434265	2028.063754
330.827938	2047.136960
331.221547	2065.509445
331.615091	2087.531725
332.008571	2105.410178
332.401986	2129.960597
332.795338	2147.891981
333.188625	2169.374858
333.581847	2185.806499
333.975006	2203.677389
334.368100	2223.962993
334.761129	2238.405898
335.154095	2255.288723
335.546996	2287.985646
335.939833	2352.368743
336.332606	2367.187214
336.725315	2380.992414
337.117960	2386.381408
337.510540	2395.427758
337.903056	2409.026271
338.295508	2408.938051
338.687896	2418.750657
339.080220	2426.695515
339.472480	2431.721545
339.864676	2436.089705
340.256807	2437.899479
340.648875	2439.482402
341.040879	2441.440890
341.432818	2440.425098
341.824694	2442.305448
342.216506	2441.889553
342.608253	2443.124635
342.999937	2443.515325
343.391557	2441.622372
343.783113	2441.566919
344.174605	2437.503749
344.566033	2435.318409
344.957397	2431.565270
345.348697	2434.269849
345.739934	2430.783891
346.131106	2431.333377
346.522215	2430.380598
346.913260	2424.711821
347.304241	2424.399269
347.695159	2420.772159
348.086012	2423.945566
348.476802	2419.831984
348.867528	2421.702252
349.258191	2418.052457
349.648789	2416.872827
350.039324	2414.506005
350.429796	2413.074317
350.820203	2414.274112
351.210548	2413.545665
351.600828	2409.152300
351.991045	2411.435942
352.381198	2408.915365
352.771288	2413.273443
353.161314	2408.393606
353.551276	2411.188926
353.941175	2408.907804
354.331010	2409.038874
354.720782	2413.064235
355.110490	2413.283525
355.500135	2409.487536
355.889717	2411.902249
356.279235	2410.674728
356.668689	2411.430901
357.058080	2411.839235
357.447408	2410.299162
357.836672	2408.925448
358.225873	2409.192629
358.615010	2410.410068
359.004084	2413.006262
359.393095	2412.497105
359.782043	2416.041036
360.170927	2413.084400
360.559748	2413.371745
360.948505	2415.123546
361.337199	2416.560275
361.725830	2417.543300
362.114398	2419.174113
362.502903	2419.083373
362.891344	2419.673188
363.279722	2419.763928
363.668037	2423.317942
364.056289	2421.750143
364.444478	2421.344330
364.832603	2421.263672
365.220665	2423.164187
365.608665	2420.447005
365.996601	2424.721903
366.384474	2422.556728
366.772284	2423.882551
367.160031	2423.277613
367.547715	2424.192582
367.935336	2421.485483
368.322893	2422.914650
368.710388	2423.159146
369.097820	2425.422624
369.485189	2425.233580
369.872495	2427.877666
370.259738	2426.506472
370.646918	2429.405135
371.034035	2424.893302
371.421090	2428.240629
371.808081	2426.151070
372.195010	2426.493869
372.581875	2427.774322
372.968678	2431.083839
373.355418	2428.583427
373.742096	2430.413366
374.128710	2429.901689
374.515262	2430.415887
374.901751	2429.263983
375.288177	2430.241967
375.674540	2429.395053
376.060841	2429.127872
376.447079	2432.631474
376.833254	2431.086360
377.219367	2428.298602
377.605417	2430.441092
377.991404	2428.359096
378.377329	2430.471339
378.763191	2428.858170
379.148991	2434.400919
379.534727	2431.388829
379.920402	2433.490990
380.306013	2433.614499
380.691563	2436.009047
381.077049	2432.444951
381.462474	2434.421083
381.847835	2437.919644
382.233134	2437.274376
382.618371	2434.224478
383.003545	2435.157092
383.388657	2437.967535
383.773706	2433.836309
384.158693	2438.494336
384.543618	2437.211362
384.928480	2438.617844
385.313280	2437.808739
385.698017	2437.289500
386.082692	2437.874274
386.467305	2439.489963
386.851856	2439.348811
387.236344	2440.604058
387.620770	2440.777978
388.005133	2436.641712
388.389435	2442.277722
388.773674	2442.852413
389.157851	2440.788061
389.541965	2443.812753
389.926018	2440.210848
390.310008	2443.840479
390.693936	2441.279573
391.077802	2440.432659
391.461606	2444.319389
391.845348	2442.653287
392.229027	2445.166303
392.612645	2444.364759
392.996200	2442.086158
393.379694	2446.348453
393.763125	2444.994903
394.146494	2446.474482
394.529801	2444.659667
394.913047	2446.590429
395.296230	2450.154524
395.679351	2447.044133
396.062410	2445.335181
396.445408	2447.454987
396.828343	2447.258382
397.211217	2443.222938
397.594028	2446.444235
397.976778	2440.727567
398.359466	2445.236879
398.742092	2440.258739
399.124656	2443.626230
399.507158	2446.658484
399.889598	2449.496654
400.271977	2448.254009
400.654294	2450.126798
401.036549	2450.429267
401.418742	2449.862138
401.800874	2449.272323
402.182944	2451.704679
402.564952	2449.252158
402.946898	2448.427929
403.328783	2449.726026
403.710606	2451.739967
404.092367	2452.475976
404.474067	2451.225770
404.855705	2451.999587
405.237282	2450.976233
405.618797	2451.064453
406.000250	2450.325924
406.381642	2454.868003
406.762972	2451.792899
407.144240	2454.971347
407.525447	2453.186778
407.906593	2453.534618
408.287677	2452.483538
408.668700	2453.796758
409.049661	2455.969495
409.430560	2454.124433
409.811399	2455.873713
410.192176	2454.469752
410.572891	2458.187603
410.953545	2452.692745
411.334138	2456.637448
411.714669	2455.351954
412.095139	2458.048971
412.475547	2453.610235
412.855894	2457.307922
413.236180	2455.830864
413.616405	2457.791873
413.996568	2456.458487
414.376670	2458.359002
414.756711	2456.518981
415.136691	2459.173149
415.516609	2456.995370
415.896466	2459.788169
416.276262	2462.631380
416.655997	2458.331276
417.035670	2455.107458
417.415283	2462.739765
417.794834	2455.598971
418.174324	2461.217337
418.553753	2460.100721
418.933121	2459.684826
419.312428	2459.296657
419.691674	2461.328242
420.070859	2462.122224
420.449983	2464.753706
420.829045	2465.192286
421.208047	2465.341000
421.586988	2463.616926
421.965867	2462.737244
422.344686	2462.616257
422.723444	2463.765640
423.102141	2465.298151
423.480777	2465.751854
423.859352	2466.276134
424.237866	2465.893007
424.616319	2466.238326
424.994712	2468.063223
425.373044	2467.909468
425.751314	2466.402163
426.129524	2464.831844
426.507673	2465.109107
426.885762	2468.519448
427.263789	2466.765126
427.641756	2468.148923
428.019662	2466.084571
428.397508	2469.144551
428.775292	2471.402988
429.153016	2470.404839
429.530679	2471.791157
429.908282	2470.465333
430.285824	2472.075982
430.663305	2470.692185
431.040726	2467.798563
431.418086	2471.158492
431.795385	2474.324337
432.172624	2471.839048
432.549802	2474.178143
432.926920	2472.179326
433.303977	2471.866774
433.680974	2472.065900
434.057910	2476.645788
434.434786	2473.452217
434.811601	2475.072948
435.188355	2474.737711
435.565050	2476.852475
435.941683	2477.762403
436.318257	2474.183184
436.694770	2472.101188
437.071222	2475.148565
437.447614	2471.249233
437.823946	2477.359111
438.200218	2476.537403
438.576429	2476.665952
438.952580	2476.628144
439.328670	2479.632672
439.704700	2478.745428
440.080670	2477.966570
440.456580	2477.598566
440.832429	2480.207363
441.208218	2479.549492
441.583947	2476.570171
441.959616	2479.244503
442.335224	2481.266005
442.710773	2479.720892
443.086261	2480.981180
443.461689	2483.234576
443.837057	2481.187867
444.212365	2483.637868
444.587612	2484.971253
444.962800	2483.431181
445.337927	2485.931593
445.712995	2479.960347
446.088002	2486.876810
446.462949	2484.474700
446.837837	2485.533342
447.212664	2485.031747
447.587431	2491.665906
447.962139	2495.474498
448.336786	2498.050527
448.711374	2495.676144
449.085901	2493.384939
449.460369	2493.223622
449.834776	2489.634321
450.209124	2494.947697
450.583412	2497.616988
450.957640	2499.091525
451.331808	2498.206803
451.705917	2493.609271
452.079965	2496.828047
452.453954	2499.025990
452.827883	2496.891062
453.201752	2497.695126
453.575562	2498.380723
453.949311	2499.525065
454.323001	2497.773264
454.696632	2502.101094
455.070202	2508.662156
455.443713	2506.411281
455.817164	2506.902793
456.190556	2505.206445
456.563888	2510.703823
456.937160	2505.148472
457.310373	2512.690038
457.683526	2509.841786
458.056619	2513.365553
458.429653	2513.544513
458.802628	2514.943434
459.175542	2516.826305
459.548398	2522.716893
459.921194	2522.512726
460.293930	2527.442975
460.666607	2534.482946
461.039224	2536.874973
461.411782	2542.677342
461.784280	2540.691127
462.156719	2542.856302
462.529099	2540.219779
462.901419	2541.840510
463.273680	2537.845396
463.645882	2538.450334
464.018024	2541.021323
464.390106	2547.181613
464.762130	2554.672767
465.134094	2564.505538
465.505999	2583.230904
465.877845	2596.809252
466.249631	2602.949377
466.621358	2599.750765
466.993026	2597.641042
467.364634	2597.850250
467.736184	2590.157449
468.107674	2588.947572
468.479105	2588.622418
468.850477	2589.897830
469.221790	2584.821388
469.593043	2580.123032
469.964238	2582.252920
470.335373	2583.513208
470.706449	2592.753643
471.077467	2603.917278
471.448425	2620.532922
471.819324	2634.290230
472.190164	2632.447689
472.560945	2619.902777
472.931667	2611.166458
473.302330	2609.777620
473.672934	2611.085799
474.043479	2609.666714
474.413965	2613.424895
474.784393	2610.501025
475.154761	2621.445370
475.525070	2621.246245
475.895321	2624.822943
476.265513	2629.967441
476.635645	2644.067548
477.005719	2646.179792
477.375734	2654.361584
477.745691	2662.177893
478.115588	2674.516117
478.485427	2688.696883
478.855207	2714.815101
479.224928	2736.643297
479.594591	2756.056781
479.964194	2757.367481
480.333739	2767.757299
480.703226	2779.001593
481.072653	2798.399953
481.442022	2810.357570
481.811333	2824.366936
482.180584	2827.424396
482.549777	2839.331601
482.918912	2848.977849
483.287988	2863.090559
483.657005	2871.710932
484.025964	2884.326420
484.394864	2900.475756
484.763706	2915.379928
485.132489	2922.964344
485.501213	2944.089299
485.869879	2967.452526
486.238487	2985.094044
486.607036	3013.914321
486.975527	3030.073739
487.343959	3060.660940
487.712333	3092.294181
488.080648	3120.509519
488.448905	3156.296670
488.817104	3190.276567
489.185244	3244.226996
489.553326	3323.852021
489.921350	3426.663833
490.289315	3548.833676
490.657222	3618.194912
491.025070	3677.390661
491.392861	3705.726987
491.760593	3721.384810
492.128267	3727.051067
492.495883	3740.344590
492.863440	3760.804113
493.230939	3778.639715
493.598380	3811.926454
493.965763	3860.785317
494.333088	3903.998088
494.700354	3956.983135
495.067563	4017.371117
495.434713	4081.756734
495.801805	4161.255730
496.168839	4226.939444
496.535815	4296.565341
496.902733	4377.957290
497.269593	4448.170481
497.636395	4533.446639
498.003139	4644.180625
498.369825	4713.367941
498.736453	4825.452955
499.103023	4897.163369
499.469535	4982.890711
499.835989	5090.262246
500.202385	5178.928581
500.568723	5288.866064
500.935003	5418.179222
501.301226	5522.258884
501.667390	5685.309964
502.033497	5835.327141
502.399546	5905.298356
502.765537	5962.603673
503.131470	6121.349607
503.497345	6283.397497
503.863163	6292.111132
504.228923	6484.847046
504.594625	6666.431928
504.960269	6725.078192
505.325856	6943.972653
505.691385	7011.768611
506.056856	7180.312028
506.422270	7383.800724
506.787625	7486.589851
507.152924	7668.298241
507.518164	7843.443049
507.883347	7888.032055
508.248472	8087.442457
508.613540	8317.392169
508.978550	8533.287144
509.343503	8664.601640
509.708398	8871.263742
510.073236	9137.693764
510.438016	9314.618099
510.802738	9397.416531
511.167403	9694.373260
511.532010	9933.863356
511.896561	10176.932671
512.261053	10537.549090
512.625488	10644.827365
512.989866	10811.311471
513.354186	10979.575104
513.718449	11171.824547
514.082655	11543.841536
514.446803	11669.522543
514.810894	11996.005310
515.174927	12199.408306
515.538904	12387.874363
515.902822	12784.114096
516.266684	12866.746169
516.630488	13203.613713
516.994235	13380.696845
517.357925	13763.416204
517.721558	14039.235375
518.085133	14362.532133
518.448651	14638.356345
518.812112	14798.395336
519.175516	15069.329628
519.538863	15405.635084
519.902152	15633.638911
520.265385	16031.406114
520.628560	16297.813450
520.991678	16459.992411
521.354739	16781.106349
521.717743	17151.240467
522.080690	17370.868417
522.443580	17827.889342
522.806413	18110.438454
523.169189	18352.905351
523.531908	18688.366413
523.894569	18885.740189
524.257174	19212.759839
524.619722	19599.214693
524.982213	19847.922538
525.344647	20071.611137
525.707025	20357.721824
526.069345	20790.721651
526.431608	21013.941423
526.793815	21408.986403
527.155964	21471.330353
527.518057	21805.737813
527.880093	21962.784879
528.242072	22464.896405
528.603995	22586.138676
528.965860	22840.275844
529.327669	23162.755935
529.689421	23373.224108
530.051117	23595.896915
530.412755	23935.451394
530.774337	24221.425969
531.135862	24378.515885
531.497331	24744.969961
531.858743	24952.110972
532.220098	25384.271447
532.581396	25478.558668
532.942638	25541.673914
533.303824	25957.390146
533.664953	26191.486207
534.026025	26274.400585
534.387040	26797.571531
534.747999	27016.055139
535.108902	27350.747425
535.469748	27296.912943
535.830537	27619.582077
536.191270	27988.642430
536.551947	27995.130395
536.912567	28435.139946
537.273131	28754.970911
537.633638	28666.118054
537.994089	29111.229253
538.354483	29086.073896
538.714821	29679.553814
539.075103	30154.347328
539.435328	30223.577493
539.795497	30371.610976
540.155609	30574.885423
540.515665	31121.628804
540.875665	30975.752935
541.235609	31409.700500
541.595496	31609.615017
541.955328	32300.840388
542.315102	32080.524321
542.674821	32135.820738
543.034483	32375.716647
543.394090	32556.794893
543.753640	32737.222830
544.113134	33674.239739
544.472571	33162.497089
544.831953	34284.705826
545.191278	33885.600197
545.550548	33881.731111
545.909761	34421.845375
546.268918	34780.412566
546.628019	35206.735385
546.987064	35057.406326
547.346053	34682.606620
547.704986	35543.928084
548.063863	35392.590125
548.422684	35735.191981
548.781449	35789.661648
549.140158	36278.719107
549.498811	36326.436148
549.857408	36061.556281
550.215949	36893.737355
550.574434	37009.948554
550.932864	37000.093098
551.291237	37749.422809
551.649555	37572.619461
552.007817	37939.842313
552.366022	37814.055442
552.724173	38121.028944
553.082267	38596.198023
553.440305	39015.372486
553.798288	38576.361083
554.156215	39001.332873
554.514086	39320.684928
554.871902	39238.030169
555.229661	39398.172504
555.587365	39393.012883
555.945014	39630.670519
556.302606	39701.488648
556.660143	40036.458198
557.017625	40228.876520
557.375050	40192.139111
557.732421	40635.153190
558.089735	40746.711404
558.446994	40799.779631
558.804197	41330.328306
559.161345	41382.327808
559.518437	40859.512263
559.875474	41253.428024
560.232455	41519.910978
560.589381	41777.400514
560.946251	41633.954481
561.303065	42355.114224
561.659825	42294.645584
562.016528	42093.712753
562.373177	41938.649382
562.729770	42502.963705
563.086307	42168.525997
563.442789	42688.089997
563.799216	42833.489477
564.155587	42741.095210
564.511904	42862.100546
564.868164	43028.267059
565.224370	43350.837891
565.580520	43201.198801
565.936615	43502.095191
566.292654	43325.692615
566.648638	43624.491886
567.004567	43670.333619
567.360441	43775.928148
567.716260	43732.062547
568.072023	44096.530409
568.427732	44152.945962
568.783385	43808.640195
569.138982	44240.914096
569.494525	44288.792455
569.850013	44125.743895
570.205445	44183.520560
570.560823	44185.211867
570.916145	44138.863498
571.271412	44244.354684
571.626625	44081.762349
571.981782	44178.015620
572.336884	43967.466788
572.691931	44320.607177
573.046923	43986.114016
573.401860	43907.522428
573.756743	43932.350110
574.111570	44093.823309
574.466342	44007.783416
574.821059	44180.314386
575.175722	43775.267757
575.530330	43842.720916
575.884882	43619.589364
576.239380	43627.405673
576.593823	43671.689689
576.948211	43615.911842
577.302544	43220.612284
577.656823	43286.240545
578.011047	43535.858319
578.365216	43313.079648
578.719330	43150.056295
579.073389	43052.232704
579.427394	43174.710058
579.781344	43184.447046
580.135239	42895.624219
580.489080	42999.862678
580.842866	42538.576936
581.196597	43008.659491
581.550273	42992.091739
581.903895	42871.429201
582.257463	43321.924353
582.610975	42759.258487
582.964434	43055.406111
583.317837	42743.308276
583.671186	42615.436888
584.024481	42862.571894
584.377721	42435.192953
584.730906	42730.743200
585.084037	42782.097434
585.437113	42543.353429
585.790135	42598.017181
586.143103	42236.886564
586.496016	42372.347409
586.848874	42424.604009
587.201679	42464.764362
587.554428	41958.526651
587.907124	42167.996676
588.259765	41974.043323
588.612352	42219.630694
588.964884	41653.473829
589.317362	41946.581637
589.669786	41903.981367
590.022155	41714.073539
590.374470	42138.568940
590.726731	41684.983561
591.078937	41240.774728
591.431090	41346.185255
591.783188	41024.421008
592.135232	40722.753321
592.487222	40965.318520
592.839157	41066.204612
593.191038	40775.813986
593.542866	40544.031814
593.894639	39959.467176
594.246358	40259.536817
594.598022	40229.892312
594.949633	39855.470692
595.301190	39838.925626
595.652692	39689.299138
596.004141	40027.235407
596.355535	39064.206144
596.706876	39018.079586
597.058162	38857.206284
597.409395	39333.257566
597.760573	39418.919372
598.111698	39006.164819
598.462768	39023.526553
598.813785	39078.994368
599.164748	38556.942558
599.515657	38935.628994
599.866511	38449.719737
600.217312	39040.028770
600.568060	38043.831235
600.918753	38767.851833
601.269392	38737.191535
601.619978	38413.393182
601.970510	38624.768763
602.320988	38812.337495
602.671412	39082.455121
603.021783	38838.599386
603.372100	38524.270840
603.722363	38636.307964
604.072572	38701.951349
604.422728	38728.356913
604.772830	38541.483860
605.122878	38628.748754
605.472872	38586.329965
605.822813	38856.530770
606.172701	38707.080723
606.522534	38927.643807
606.872314	39209.459430
607.222041	38967.574786
607.571714	39339.448102
607.921333	38805.847009
608.270899	39109.158112
608.620411	39451.258374
608.969870	39255.273436
609.319276	39255.969115
609.668627	39311.719236
610.017926	39781.879929
610.367171	39948.038880
610.716362	40033.995594
611.065500	40002.019555
611.414585	40186.828255
611.763616	40469.261420
612.112594	40404.117110
612.461518	40624.697837
612.810389	40916.378999
613.159207	40801.765846
613.507971	40873.871990
613.856682	41340.372805
614.205340	41229.805178
614.553945	41914.600557
614.902496	41384.356872
615.250994	41846.020700
615.599439	41911.298601
615.947830	42138.357212
616.296169	42189.504759
616.644454	42314.767349
616.992686	42488.082219
617.340864	43009.329965
617.688990	42732.951226
618.037063	43333.597145
618.385082	43311.340450
618.733048	43591.505096
619.080961	43612.967808
619.428821	43639.668280
619.776628	43729.731014
620.124382	43555.070157
620.472083	43695.786404
620.819731	43812.186647
621.167326	43511.287735
621.514868	43482.616173
621.862357	43048.308166
622.209793	43083.956686
622.557176	42743.368770
622.904506	42494.844927
623.251783	42151.965807
623.599007	41943.509054
623.946179	41725.111146
624.293297	41673.232632
624.640363	41084.798908
624.987376	41096.748963
625.334336	40839.985353
625.681243	40492.148259
626.028097	40466.945010
626.374899	40331.600112
626.721647	40310.296195
627.068343	40202.418024
627.414987	39964.329369
627.761577	39743.947767
628.108115	40076.714332
628.454600	39537.111745
628.801032	39736.123896
629.147412	39689.362153
629.493739	39696.986898
629.840014	39363.811999
630.186236	39694.622597
630.532405	39320.536214
630.878521	39541.553001
631.224585	39418.742932
631.570597	39131.145105
631.916556	39292.860279
632.262462	39249.405533
632.608316	39268.599726
632.954117	39153.517746
633.299866	39140.443513
633.645562	39067.200589
633.991206	38585.954399
634.336797	38167.732714
634.682336	38148.283943
635.027823	37912.620082
635.373257	37715.543735
635.718639	37506.842486
636.063968	37356.512758
636.409245	36783.459594
636.754470	36834.365166
637.099642	36610.598429
637.444762	36136.213249
637.789829	36274.759280
638.134845	35936.492816
638.479808	35879.363940
638.824719	35793.535775
639.169577	35415.048465
