Dividing Wavelength (nm)	Counts (n)	Blue Motor Position (mm): 41.400000	Red Motor Position (mm): 0.000000	
326.493990	1969.745166
326.888308	1969.745166
327.282561	1969.745166
327.676750	1947.846393
328.070874	1950.223297
328.464933	1956.456684
328.858929	1966.050000
329.252859	1977.899232
329.646726	1991.258290
330.040528	2007.090033
330.434265	2024.260203
330.827938	2046.373225
331.221547	2064.191183
331.615091	2085.202712
332.008571	2103.733994
332.401986	2125.884824
332.795338	2147.518936
333.188625	2168.369148
333.581847	2187.084432
333.975006	2204.199149
334.368100	2220.673640
334.761129	2238.174005
335.154095	2253.335275
335.546996	2296.152316
335.939833	2380.072404
336.332606	2393.801986
336.725315	2403.876732
337.117960	2413.792682
337.510540	2418.196130
337.903056	2428.570824
338.295508	2437.949891
338.687896	2443.951385
339.080220	2453.481686
339.472480	2453.816923
339.864676	2461.030814
340.256807	2465.371247
340.648875	2465.348562
341.040879	2467.871660
341.432818	2468.897534
341.824694	2469.452061
342.216506	2467.075157
342.608253	2469.094139
342.999937	2468.181691
343.391557	2464.768829
343.783113	2465.567852
344.174605	2463.977368
344.566033	2461.923098
344.957397	2461.514765
345.348697	2458.031327
345.739934	2457.305401
346.131106	2458.505196
346.522215	2456.944959
346.913260	2451.392128
347.304241	2449.395831
347.695159	2450.189813
348.086012	2447.870882
348.476802	2444.228648
348.867528	2445.763679
349.258191	2442.497012
349.648789	2442.484409
350.039324	2443.722012
350.429796	2441.430808
350.820203	2441.778647
351.210548	2439.419387
351.600828	2437.907041
351.991045	2439.598348
352.381198	2436.634150
352.771288	2438.466609
353.161314	2439.184974
353.551276	2439.747062
353.941175	2436.220775
354.331010	2437.796136
354.720782	2439.605910
355.110490	2440.047011
355.500135	2438.022988
355.889717	2438.466609
356.279235	2438.617844
356.668689	2440.737649
357.058080	2442.318051
357.447408	2435.764551
357.836672	2437.922165
358.225873	2437.261773
358.615010	2439.237906
359.004084	2442.890222
359.393095	2443.931220
359.782043	2444.694955
360.170927	2444.969698
360.559748	2445.849379
360.948505	2446.298042
361.337199	2448.710234
361.725830	2447.586057
362.114398	2451.989504
362.502903	2445.400716
362.891344	2451.994546
363.279722	2450.056222
363.668037	2451.281222
364.056289	2450.847683
364.444478	2455.233487
364.832603	2453.925308
365.220665	2454.091666
365.608665	2455.747685
365.996601	2457.174331
366.384474	2455.659464
366.772284	2457.174331
367.160031	2457.870010
367.547715	2457.554938
367.935336	2457.592747
368.322893	2461.658438
368.710388	2461.149281
369.097820	2462.989302
369.485189	2464.332770
369.872495	2464.010136
370.259738	2461.184569
370.646918	2465.799745
371.034035	2466.134982
371.421090	2466.613892
371.808081	2465.172122
372.195010	2465.726649
372.581875	2466.250929
372.968678	2467.422997
373.355418	2469.562967
373.742096	2471.448358
374.128710	2469.323512
374.515262	2469.875518
374.901751	2473.124542
375.288177	2472.000365
375.674540	2472.721250
376.060841	2476.723926
376.447079	2473.724439
376.833254	2473.676548
377.219367	2473.059007
377.605417	2478.793319
377.991404	2476.071096
378.377329	2475.546816
378.763191	2472.948102
379.148991	2481.392034
379.534727	2482.332209
379.920402	2482.077631
380.306013	2483.229535
380.691563	2485.298928
381.077049	2485.913949
381.462474	2485.220791
381.847835	2489.493168
382.233134	2488.404279
382.618371	2490.612305
383.003545	2494.362923
383.388657	2494.345279
383.773706	2496.616319
384.158693	2497.722852
384.543618	2500.326608
384.928480	2500.855929
385.313280	2499.946001
385.698017	2505.408091
386.082692	2504.997237
386.467305	2510.550068
386.851856	2512.543844
387.236344	2515.281191
387.620770	2522.328724
388.005133	2526.333921
388.389435	2534.979500
388.773674	2537.744573
389.157851	2552.217725
389.541965	2562.544529
389.926018	2573.125911
390.310008	2587.165524
390.693936	2602.349480
391.077802	2623.005608
391.461606	2647.583753
391.845348	2672.504697
392.229027	2699.416897
392.612645	2737.132289
392.996200	2773.040428
393.379694	2816.724547
393.763125	2869.913761
394.146494	2916.660381
394.529801	2973.643063
394.913047	3045.545041
395.296230	3091.495158
395.679351	3151.331133
396.062410	3235.450347
396.445408	3285.468676
396.828343	3364.801314
397.211217	3453.931434
397.594028	3496.128412
397.976778	3603.799897
398.359466	3711.052966
398.742092	3782.072741
399.124656	3895.828898
399.507158	4022.137528
399.889598	4116.177733
400.271977	4262.797172
400.654294	4360.388869
401.036549	4510.832023
401.418742	4616.688692
401.800874	4820.492460
402.182944	4945.868477
402.564952	5193.212690
402.946898	5237.171552
403.328783	5369.017889
403.710606	5556.624430
404.092367	5786.243946
404.474067	6062.632768
404.855705	6091.649649
405.237282	6187.948291
405.618797	6516.278641
406.000250	6773.611900
406.381642	7086.942297
406.762972	7190.149840
407.144240	7211.063067
407.525447	7481.576423
407.906593	7572.765855
408.287677	7859.857046
408.668700	8081.385511
409.049661	8198.705763
409.430560	8418.265658
409.811399	8535.719501
410.192176	8762.032021
410.572891	8938.132127
410.953545	9398.507941
411.334138	9153.573399
411.714669	9700.168066
412.095139	9322.762083
412.475547	9799.670361
412.855894	9800.005597
413.236180	10154.837293
413.616405	10019.288228
413.996568	10332.134674
414.376670	10412.004195
414.756711	10409.700388
415.136691	10733.886909
415.516609	10969.505399
415.896466	11118.801691
416.276262	11440.265989
416.655997	11905.559448
417.035670	12014.907116
417.415283	12666.650170
417.794834	12841.260616
418.174324	12680.190710
418.553753	12675.378928
418.933121	13201.478785
419.312428	13088.917381
419.691674	13070.416347
420.070859	13554.034400
420.449983	13296.484370
420.829045	13850.250079
421.208047	13662.436851
421.586988	14140.529800
421.965867	14426.738789
422.344686	14469.265963
422.723444	15042.205700
423.102141	13828.837778
423.480777	14991.078318
423.859352	14554.385845
424.237866	15643.736342
424.616319	15389.747887
424.994712	16054.040894
425.373044	15873.701177
425.751314	16540.577776
426.129524	15715.053545
426.507673	16786.570960
426.885762	16522.953902
427.263789	16713.196966
427.641756	16894.081127
428.019662	16963.868341
428.397508	17018.998399
428.775292	17309.938511
429.153016	17293.196839
429.530679	17363.934310
429.908282	17404.694559
430.285824	17134.899567
430.663305	17845.233432
431.040726	17446.430272
431.418086	17290.663659
431.795385	17920.472653
432.172624	18352.892748
432.549802	17903.927586
432.926920	18099.083255
433.303977	17984.923805
433.680974	18246.489114
434.057910	18528.418163
434.434786	18564.326302
434.811601	18476.174165
435.188355	19501.431432
435.565050	19155.366302
435.941683	19111.112533
436.318257	19978.516149
436.694770	19786.009607
437.071222	20385.748119
437.447614	19467.953129
437.823946	19490.361058
438.200218	19645.237907
438.576429	19419.149718
438.952580	19701.469457
439.328670	19659.859773
439.704700	20067.046372
440.080670	19660.817593
440.456580	20228.509489
440.832429	20401.531971
441.208218	19411.681249
441.583947	19855.416213
441.959616	19962.329004
442.335224	20189.075063
442.710773	20323.575568
443.086261	20845.357677
443.461689	20215.767973
443.837057	20343.304124
444.212365	20974.048252
444.587612	20978.686113
444.962800	20570.277035
445.337927	20982.345991
445.712995	19739.404140
446.088002	21552.379503
446.462949	21742.189028
446.837837	21904.398235
447.212664	21869.790714
447.587431	24636.413754
447.962139	27536.992854
448.336786	29911.540153
448.711374	28381.033242
449.085901	24740.188426
449.460369	24677.872203
449.834776	24580.648510
450.209124	27040.408953
450.583412	26593.908916
450.957640	27122.090769
451.331808	25791.389991
451.705917	24424.713018
452.079965	24459.504542
452.453954	24817.796990
452.827883	24707.940165
453.201752	24518.952348
453.575562	24680.531412
453.949311	25760.301195
454.323001	25828.190414
454.696632	25596.186432
455.070202	27126.973126
455.443713	27269.516792
455.817164	27836.573503
456.190556	28377.277582
456.563888	27828.852976
456.937160	28265.210212
457.310373	26614.653264
457.683526	27030.548456
458.056619	27015.866095
458.429653	26953.146580
458.802628	27531.898768
459.175542	27639.547567
459.548398	28943.484859
459.921194	30498.574956
460.293930	31180.685922
460.666607	33195.972871
461.039224	34943.730827
461.411782	35305.829346
461.784280	34095.642392
462.156719	33603.892958
462.529099	33023.928373
462.901419	31730.484242
463.273680	30690.181652
463.645882	30784.733534
464.018024	30767.046646
464.390106	31611.974277
464.762130	34293.321158
465.134094	38340.840896
465.505999	43636.903207
465.877845	48219.390191
466.249631	49349.579075
466.621358	47551.817913
466.993026	45419.099806
467.364634	43298.470385
467.736184	41350.029135
468.107674	40120.433739
468.479105	39338.144964
468.850477	38638.203438
469.221790	37232.790239
469.593043	35520.058220
469.964238	34647.825179
470.335373	34570.761060
470.706449	36226.429738
471.077467	38754.283567
471.448425	43331.278214
471.819324	46211.249077
472.190164	44406.115228
472.560945	40857.742818
472.931667	37757.697863
473.302330	36648.059243
473.672934	35827.755128
474.043479	36321.394994
474.413965	35558.023150
474.784393	35183.064647
475.154761	36066.163896
475.525070	36088.208862
475.895321	35656.126524
476.265513	36248.260455
476.635645	37195.120217
477.005719	37029.112501
477.375734	37490.123499
477.745691	38180.285187
478.115588	39491.590126
478.485427	41449.750720
478.855207	44781.809739
479.224928	47413.725586
479.594591	49051.888858
479.964194	48005.504116
480.333739	48109.230897
480.703226	48143.359509
481.072653	48775.618503
481.442022	49282.433426
481.811333	49568.682744
482.180584	48278.689284
482.549777	47741.503930
482.918912	47225.062924
483.287988	46928.955629
483.657005	46100.341172
484.025964	45462.410879
484.394864	45453.709847
484.763706	45019.812695
485.132489	44158.392928
485.501213	43991.629038
485.869879	44156.915870
486.238487	43741.003034
486.607036	43952.078666
486.975527	43414.283332
487.343959	43620.582471
487.712333	43687.937328
488.080648	43608.266932
488.448905	44030.100604
488.817104	43865.345614
489.185244	44798.841278
489.553326	46464.980432
489.921350	49185.421461
490.289315	52101.194599
490.657222	52766.997432
491.025070	53048.155184
491.392861	52129.442705
491.760593	50834.385405
492.128267	49135.004882
492.495883	47594.811394
492.863440	46190.809719
493.230939	44864.623294
493.598380	43779.492243
493.965763	43450.937562
494.333088	42647.412927
494.700354	42168.180678
495.067563	41892.306054
495.434713	41761.662032
495.801805	41835.900584
496.168839	41443.895420
496.535815	41131.711885
496.902733	41155.163333
497.269593	40752.990162
497.636395	40697.056039
498.003139	41077.393453
498.369825	40541.720445
498.736453	40832.267347
499.103023	40375.619467
499.469535	40252.562381
499.835989	40346.900013
500.202385	40001.701963
500.568723	40022.781547
500.935003	40212.086957
501.301226	40033.642713
501.667390	40625.078444
502.033497	40879.996992
502.399546	40301.857304
502.765537	39641.004884
503.131470	40004.275472
503.497345	40356.750428
503.863163	39041.888956
504.228923	39640.866253
504.594625	40034.900481
504.960269	39323.495371
505.325856	40013.755362
505.691385	39377.342456
506.056856	39523.377121
506.422270	39950.907297
506.787625	39524.150938
507.152924	39723.011855
507.518164	39808.356069
507.883347	39043.479440
508.248472	39281.346284
508.613540	39750.647460
508.978550	40053.048635
509.343503	39808.469495
509.708398	40000.527374
510.073236	40538.320187
510.438016	40523.456345
510.802738	39971.989402
511.167403	40581.936250
511.532010	40820.713022
511.896561	41114.299740
512.261053	41946.127933
512.625488	41491.839313
512.989866	41373.089893
513.354186	41220.249670
513.718449	41202.005735
514.082655	41875.433312
514.446803	41561.687020
514.810894	42077.240783
515.174927	42006.417613
515.538904	41891.779254
515.902822	42558.970924
516.266684	42014.448171
516.630488	42429.851851
516.994235	42289.692650
517.357925	42850.775594
517.721558	43025.577603
518.085133	43331.747041
518.448651	43472.067558
518.812112	43242.856375
519.175516	43350.142212
519.538863	43688.081001
519.902152	43652.233356
520.265385	44109.753355
520.628560	44165.652190
520.991678	43948.428871
521.354739	44199.765678
521.717743	44498.484290
522.080690	44412.114201
522.443580	44949.927179
522.806413	45013.314647
523.169189	44941.095077
523.531908	45146.932951
523.894569	44996.898130
524.257174	45172.045458
524.619722	45469.029914
524.982213	45465.869110
525.344647	45374.316715
525.707025	45441.195183
526.069345	45828.068453
526.431608	45754.817967
526.793815	46069.723724
527.155964	45609.481501
527.518057	45778.430731
527.880093	45566.782928
528.242072	46109.241329
528.603995	45789.675025
528.965860	45802.711449
529.327669	45904.462098
529.689421	45809.675803
530.051117	45759.954902
530.412755	45908.994095
530.774337	45981.616958
531.135862	45791.837680
531.497331	46006.283323
531.858743	45909.079795
532.220098	46259.175327
532.581396	45971.333004
532.942638	45617.605321
533.303824	45929.302383
533.664953	45900.348516
534.026025	45623.937010
534.387040	46093.568382
534.747999	46037.840946
535.108902	46205.464353
535.469748	45748.637512
535.830537	45863.666560
536.191270	46049.785960
536.551947	45691.987546
536.912567	46011.132913
537.273131	46113.659900
537.633638	45629.956148
537.994089	45965.066849
538.354483	45572.791983
538.714821	46143.024621
539.075103	46487.123701
539.435328	46249.108142
539.795497	46148.642987
540.155609	46129.962992
540.515665	46591.457941
540.875665	46045.460650
541.235609	46383.263328
541.595496	46350.430293
541.955328	47011.950666
542.315102	46390.487302
542.674821	46186.033225
543.034483	46217.636219
543.394090	46186.416353
543.753640	46140.398180
544.113134	47150.151378
544.472571	46170.539239
544.831953	47422.429138
545.191278	46628.679301
545.550548	46354.342229
545.909761	46810.082701
546.268918	46996.708737
546.628019	47301.842218
546.987064	46870.586630
547.346053	46179.943512
547.704986	47053.588076
548.063863	46597.971112
548.422684	46799.985270
548.781449	46659.054773
549.140158	47056.779126
549.498811	46885.508445
549.857408	46332.009917
550.215949	47167.359357
550.574434	47097.559540
550.932864	46871.196609
551.291237	47578.157942
551.649555	47197.427319
552.007817	47435.107640
552.366022	47092.465454
552.724173	47266.297042
553.082267	47661.972166
553.440305	47961.162126
553.798288	47278.746171
554.156215	47587.998275
554.514086	47808.064805
554.871902	47532.469965
555.229661	47565.759224
555.587365	47382.845998
555.945014	47481.105648
556.302606	47403.824760
556.660143	47623.011609
557.017625	47718.168429
557.375050	47508.937859
557.732421	47858.526755
558.089735	47848.820013
558.446994	47771.435781
558.804197	48232.575329
559.161345	48168.648457
559.518437	47421.733459
559.875474	47730.342815
560.232455	47870.270123
560.589381	48064.374710
560.946251	47752.614633
561.303065	48434.418088
561.659825	48235.032891
562.016528	47924.888504
562.373177	47632.851941
562.729770	48112.784911
563.086307	47627.987227
563.442789	48069.798992
563.799216	48135.079413
564.155587	47926.146272
564.511904	47957.782033
564.868164	48042.052481
565.224370	48288.905182
565.580520	48013.191875
565.936615	48215.011949
566.292654	47943.142522
566.648638	48183.887865
567.004567	48121.143144
567.360441	48172.532666
567.716260	48021.545067
568.072023	48321.897013
568.427732	48311.923090
568.783385	47851.912761
569.138982	48247.595447
569.494525	48216.695694
569.850013	47971.667891
570.205445	47948.135785
570.560823	47906.649609
570.916145	47766.629041
571.271412	47778.185886
571.626625	47547.096873
571.981782	47599.406406
572.336884	47281.120555
572.691931	47621.438769
573.046923	47216.422386
573.401860	47057.021102
573.756743	47033.761218
574.111570	47170.449584
574.466342	47011.025614
574.821059	47129.643964
575.175722	46647.820562
575.530330	46660.584763
575.884882	46379.341311
576.239380	46343.002153
576.593823	46313.985272
576.948211	46231.121305
577.302544	45765.394307
577.656823	45777.183046
578.011047	46005.953128
578.365216	45714.776082
578.719330	45527.784562
579.073389	45377.681686
579.427394	45456.888295
579.781344	45424.634993
580.135239	45062.019755
580.489080	45170.205437
580.842866	44650.706972
581.196597	45085.927427
581.550273	45037.330704
581.903895	44888.195729
582.257463	45333.715262
582.610975	44703.838213
582.964434	44996.288150
583.317837	44624.692097
583.671186	44460.857118
584.024481	44680.895922
584.377721	44210.248757
584.730906	44502.439075
585.084037	44522.636458
585.437113	44220.603287
585.790135	44269.653714
586.143103	43876.196698
586.496016	43991.026621
586.848874	44026.052558
587.201679	44026.284451
587.554428	43518.287378
587.907124	43713.553951
588.259765	43460.818224
588.612352	43719.557965
588.964884	43083.114813
589.317362	43382.420720
589.669786	43326.816793
590.022155	43095.422790
590.374470	43512.089279
590.726731	43032.211762
591.078937	42540.270764
591.431090	42644.660457
591.783188	42306.600680
592.135232	41985.764005
592.487222	42231.371541
592.839157	42309.948006
593.191038	41990.326250
593.542866	41750.463108
593.894639	41147.392394
594.246358	41432.494850
594.598022	41411.861408
594.949633	41008.160766
595.301190	40970.858748
595.652692	40793.584053
596.004141	41139.782773
596.355535	40152.954222
596.706876	40108.566863
597.058162	39940.157036
597.409395	40401.571327
597.760573	40486.335808
598.111698	40058.505684
598.462768	40075.045710
598.813785	40117.421649
599.164748	39573.196324
599.515657	39952.951484
599.866511	39428.729458
600.217312	40050.107122
600.568060	39008.675313
600.918753	39767.011045
601.269392	39717.796781
601.619978	39369.299295
601.970510	39571.003422
602.320988	39764.361919
602.671412	40068.835008
603.021783	39808.401439
603.372100	39468.942742
603.722363	39561.077390
604.072572	39652.816308
604.422728	39671.289616
604.772830	39467.105241
605.122878	39564.817926
605.472872	39499.477011
605.822813	39768.974575
606.172701	39611.814083
606.522534	39861.923369
606.872314	40133.989401
607.222041	39871.894772
607.571714	40257.061611
607.921333	39726.795241
608.270899	40011.151606
608.620411	40343.860198
608.969870	40147.832410
609.319276	40139.406121
609.668627	40196.948372
610.017926	40670.698366
610.367171	40833.462100
610.716362	40924.031470
611.065500	40854.269463
611.414585	41061.400392
611.763616	41340.642507
612.112594	41282.129834
612.461518	41489.825372
612.810389	41775.673919
613.159207	41658.729232
613.507971	41725.857237
613.856682	42195.231509
614.205340	42079.834457
614.553945	42792.358703
614.902496	42238.373704
615.250994	42700.289590
615.599439	42779.871765
615.947830	42981.275943
616.296169	43031.269066
616.644454	43142.224862
616.992686	43322.710773
617.340864	43865.390984
617.688990	43567.504162
618.037063	44165.962221
618.385082	44142.760310
618.733048	44453.920490
619.080961	44456.103310
619.428821	44455.384945
619.776628	44587.022075
620.124382	44381.040529
620.472083	44516.009862
620.819731	44634.446730
621.167326	44319.717413
621.514868	44296.913754
621.862357	43864.554153
622.209793	43873.217376
622.557176	43546.550607
622.904506	43296.106083
623.251783	42959.382212
623.599007	42733.788057
623.946179	42504.415557
624.293297	42469.891215
624.640363	41875.007335
624.987376	41859.783050
625.334336	41613.845319
625.681243	41267.704572
626.028097	41223.309651
626.374899	41081.648187
626.721647	41075.777763
627.068343	40943.331528
627.414987	40718.528834
627.761577	40495.336788
628.108115	40828.511687
628.454600	40270.418148
628.801032	40460.565430
629.147412	40430.631058
629.493739	40439.599271
629.840014	40086.907545
630.186236	40412.104818
630.532405	40035.787724
630.878521	40254.697310
631.224585	40131.448660
631.570597	39841.768836
631.916556	40006.178507
632.262462	39956.008944
632.608316	39955.141866
632.954117	39854.311227
633.299866	39859.692659
633.645562	39773.113362
633.991206	39274.870922
634.336797	38828.469187
634.682336	38837.187863
635.027823	38591.852549
635.373257	38406.587624
