Dividing Wavelength (nm)	Counts (n)	Blue Motor Position (mm): 12.800000	Red Motor Position (mm): 0.000000	
326.493990	1975.164406
326.888308	1975.164406
327.282561	1975.164406
327.676750	1950.619028
328.070874	1952.693463
328.464933	1958.319391
328.858929	1968.033694
329.252859	1982.383338
329.646726	1995.442447
330.040528	2009.925682
330.434265	2027.776408
330.827938	2051.089224
331.221547	2068.355176
331.615091	2086.649523
332.008571	2108.712133
332.401986	2129.554784
332.795338	2148.965747
333.188625	2170.829231
333.581847	2189.446212
333.975006	2206.472709
334.368100	2225.140102
334.761129	2241.730539
335.154095	2255.316449
335.546996	2288.104113
335.939833	2338.003975
336.332606	2352.348578
336.725315	2363.449199
337.117960	2375.394213
337.510540	2379.679194
337.903056	2387.230842
338.295508	2395.793242
338.687896	2401.419170
339.080220	2410.662125
339.472480	2413.480130
339.864676	2418.365008
340.256807	2420.527663
340.648875	2423.244845
341.040879	2424.810123
341.432818	2426.471184
341.824694	2427.678540
342.216506	2428.033941
342.608253	2429.500917
342.999937	2425.956986
343.391557	2422.105544
343.783113	2420.963723
344.174605	2423.398600
344.566033	2419.973136
344.957397	2418.175965
345.348697	2414.924421
345.739934	2413.124729
346.131106	2412.764286
346.522215	2410.369738
346.913260	2405.636095
347.304241	2406.659449
347.695159	2403.067627
348.086012	2404.375806
348.476802	2402.495456
348.867528	2402.563512
349.258191	2398.248284
349.648789	2396.536812
350.039324	2395.284085
350.429796	2398.795249
350.820203	2398.265928
351.210548	2395.208468
351.600828	2393.365926
351.991045	2395.858777
352.381198	2392.670247
352.771288	2395.004301
353.161314	2393.781822
353.551276	2391.382232
353.941175	2392.057747
354.331010	2392.599671
354.720782	2395.115207
355.110490	2392.816441
355.500135	2391.848539
355.889717	2394.285937
356.279235	2393.270144
356.668689	2394.618653
357.058080	2395.979765
357.447408	2392.576986
357.836672	2391.752757
358.225873	2392.934908
358.615010	2391.674619
359.004084	2399.284241
359.393095	2395.853736
359.782043	2399.755589
360.170927	2398.107132
360.559748	2400.075702
360.948505	2396.516648
361.337199	2400.990672
361.725830	2399.211144
362.114398	2401.154509
362.502903	2404.184243
362.891344	2401.366238
363.279722	2402.964283
363.668037	2403.856567
364.056289	2405.860426
364.444478	2404.113666
364.832603	2402.765158
365.220665	2403.176012
365.608665	2406.495612
365.996601	2403.670045
366.384474	2405.837741
366.772284	2404.816907
367.160031	2405.941085
367.547715	2407.710530
367.935336	2406.893863
368.322893	2406.036867
368.710388	2405.031156
369.097820	2408.575087
369.485189	2406.467885
369.872495	2410.463000
370.259738	2408.070972
370.646918	2409.454769
371.034035	2409.830335
371.421090	2409.689183
371.808081	2409.086765
372.195010	2407.745818
372.581875	2409.401837
372.968678	2410.800757
373.355418	2409.265726
373.742096	2408.832186
374.128710	2408.958215
374.515262	2411.816549
374.901751	2410.599111
375.288177	2408.996024
375.674540	2409.280849
376.060841	2411.483833
376.447079	2412.600449
376.833254	2412.948288
377.219367	2407.264387
377.605417	2413.233114
377.991404	2408.887639
378.377329	2407.108112
378.763191	2407.564336
379.148991	2413.414595
379.534727	2414.674884
379.920402	2413.946437
380.306013	2413.790161
380.691563	2415.879719
381.077049	2412.035840
381.462474	2415.983063
381.847835	2411.937537
382.233134	2417.823084
382.618371	2417.755029
383.003545	2414.037178
383.388657	2413.812846
383.773706	2416.267888
384.158693	2417.192940
384.543618	2414.992476
384.928480	2415.836870
385.313280	2416.081366
385.698017	2419.526994
386.082692	2416.010789
386.467305	2419.766449
386.851856	2419.814340
387.236344	2417.649164
387.620770	2419.799217
388.005133	2421.271233
388.389435	2419.365677
388.773674	2418.702766
389.157851	2423.186872
389.541965	2420.726789
389.926018	2421.251069
390.310008	2417.288722
390.693936	2421.598908
391.077802	2420.663774
391.461606	2422.070256
391.845348	2420.441964
392.229027	2423.353230
392.612645	2426.120823
392.996200	2422.864238
393.379694	2420.588157
393.763125	2421.677046
394.146494	2424.731986
394.529801	2421.813157
394.913047	2424.921029
395.296230	2424.996646
395.679351	2425.974630
396.062410	2424.409352
396.445408	2422.531522
396.828343	2424.600916
397.211217	2416.832498
397.594028	2424.694177
397.976778	2423.655699
398.359466	2426.531678
398.742092	2419.360636
399.124656	2430.209199
399.507158	2425.094949
399.889598	2428.517892
400.271977	2425.422624
400.654294	2428.643921
401.036549	2425.755340
401.418742	2426.667789
401.800874	2428.386822
402.182944	2426.703077
402.564952	2425.800710
402.946898	2427.865063
403.328783	2429.773139
403.710606	2428.059147
404.092367	2429.702563
404.474067	2431.053592
404.855705	2431.111566
405.237282	2430.030238
405.618797	2428.142326
406.000250	2429.079981
406.381642	2429.087543
406.762972	2432.024015
407.144240	2429.392532
407.525447	2429.326997
407.906593	2430.214240
408.287677	2430.463778
408.668700	2431.688778
409.049661	2431.358582
409.430560	2432.578542
409.811399	2431.857657
410.192176	2433.233892
410.572891	2431.756833
410.953545	2433.420414
411.334138	2429.692481
411.714669	2434.000147
412.095139	2430.703232
412.475547	2432.999478
412.855894	2435.220106
413.236180	2430.766247
413.616405	2434.363110
413.996568	2433.695157
414.376670	2434.539550
414.756711	2433.455702
415.136691	2431.056113
415.516609	2433.732966
415.896466	2432.938984
416.276262	2437.281938
416.655997	2429.732810
417.035670	2431.713984
417.415283	2432.694488
417.794834	2430.408325
418.174324	2435.978800
418.553753	2436.445107
418.933121	2435.134407
419.312428	2434.509303
419.691674	2436.155240
420.070859	2435.507452
420.449983	2437.418049
420.829045	2434.121135
421.208047	2434.252205
421.586988	2437.632298
421.965867	2436.704726
422.344686	2439.366455
422.723444	2437.854109
423.102141	2434.232040
423.480777	2435.842689
423.859352	2434.584921
424.237866	2438.358224
424.616319	2436.399736
424.994712	2438.222113
425.373044	2438.985848
425.751314	2438.355704
426.129524	2436.989551
426.507673	2436.495518
426.885762	2436.848399
427.263789	2438.338060
427.641756	2438.287648
428.019662	2437.894438
428.397508	2435.865374
428.775292	2436.712288
429.153016	2439.139603
429.530679	2440.291507
429.908282	2438.645570
430.285824	2441.292176
430.663305	2438.040632
431.040726	2437.715477
431.418086	2439.406784
431.795385	2440.382248
432.172624	2441.161106
432.549802	2436.926537
432.926920	2438.761517
433.303977	2440.324274
433.680974	2442.844851
434.057910	2439.883173
434.434786	2438.070879
434.811601	2438.466609
435.188355	2442.348298
435.565050	2441.574481
435.941683	2440.717484
436.318257	2438.902669
436.694770	2436.518203
437.071222	2439.356373
437.447614	2435.220106
437.823946	2439.807556
438.200218	2439.149686
438.576429	2443.517845
438.952580	2443.732094
439.328670	2442.764193
439.704700	2442.287804
440.080670	2440.324274
440.456580	2443.873247
440.832429	2441.879470
441.208218	2439.870571
441.583947	2446.819801
441.959616	2440.689758
442.335224	2443.595983
442.710773	2444.021961
443.086261	2443.575819
443.461689	2440.644388
443.837057	2444.763010
444.212365	2443.182609
444.587612	2445.224276
444.962800	2443.885850
445.337927	2443.260747
445.712995	2443.424584
446.088002	2443.767383
446.462949	2444.006837
446.837837	2445.070521
447.212664	2447.976746
447.587431	2444.248813
447.962139	2448.513629
448.336786	2451.568568
448.711374	2452.682663
449.085901	2447.717127
449.460369	2451.180399
449.834776	2448.773248
450.209124	2450.061263
450.583412	2449.295008
450.957640	2451.346757
451.331808	2451.228290
451.705917	2449.322734
452.079965	2451.835749
452.453954	2451.286263
452.827883	2450.325924
453.201752	2452.420523
453.575562	2450.325924
453.949311	2450.893053
454.323001	2451.203084
454.696632	2453.625359
455.070202	2455.039403
455.443713	2453.897581
455.817164	2450.918259
456.190556	2451.331634
456.563888	2452.700307
456.937160	2450.237703
457.310373	2454.744495
457.683526	2454.880606
458.056619	2459.561317
458.429653	2456.443364
458.802628	2456.004783
459.175542	2455.271296
459.548398	2457.852366
459.921194	2459.833540
460.293930	2462.911164
460.666607	2461.209775
461.039224	2463.480815
461.411782	2465.537605
461.784280	2464.733541
462.156719	2463.140537
462.529099	2462.893520
462.901419	2461.991154
463.273680	2465.993830
463.645882	2461.844960
464.018024	2462.356637
464.390106	2462.515434
464.762130	2466.371916
465.134094	2469.651187
465.505999	2473.694192
465.877845	2480.482106
466.249631	2478.153093
466.621358	2478.972280
466.993026	2479.804071
467.364634	2476.900366
467.736184	2475.970273
468.107674	2470.772844
468.479105	2475.627475
468.850477	2473.401805
469.221790	2472.330560
469.593043	2468.804273
469.964238	2470.508183
470.335373	2468.368213
470.706449	2471.110601
471.077467	2473.951291
471.448425	2479.471355
471.819324	2481.422281
472.190164	2480.870275
472.560945	2475.171250
472.931667	2474.238637
473.302330	2472.519603
473.672934	2471.488687
474.043479	2472.549850
474.413965	2469.835189
474.784393	2468.098512
475.154761	2469.996506
475.525070	2470.258646
475.895321	2471.634881
476.265513	2470.924078
476.635645	2474.891466
477.005719	2475.128401
477.375734	2475.927423
477.745691	2475.451034
478.115588	2479.420943
478.485427	2481.402117
478.855207	2484.106696
479.224928	2486.796151
479.594591	2490.297233
479.964194	2486.476038
480.333739	2490.110710
480.703226	2487.622900
481.072653	2490.808910
481.442022	2489.712459
481.811333	2487.403610
482.180584	2489.946872
482.549777	2485.523260
482.918912	2487.116264
483.287988	2490.821512
483.657005	2486.811275
484.025964	2490.004846
484.394864	2489.160452
484.763706	2488.298415
485.132489	2485.687097
485.501213	2491.048364
485.869879	2491.192037
486.238487	2492.948879
486.607036	2489.961996
486.975527	2491.161790
487.343959	2491.660865
487.712333	2495.464415
488.080648	2491.464260
488.448905	2498.680671
488.817104	2499.043634
489.185244	2501.418018
489.553326	2504.823317
489.921350	2510.088803
490.289315	2516.251613
490.657222	2519.241017
491.025070	2524.756040
491.392861	2520.463497
491.760593	2518.648682
492.128267	2520.526512
492.495883	2516.990142
492.863440	2518.918383
493.230939	2517.368229
493.598380	2515.971829
493.965763	2511.966632
494.333088	2518.184896
494.700354	2517.847138
495.067563	2523.687315
495.434713	2520.191275
495.801805	2528.241998
496.168839	2526.853160
496.535815	2526.628828
496.902733	2532.408511
497.269593	2533.757020
497.636395	2536.312885
498.003139	2540.086188
498.369825	2541.858154
498.736453	2543.191539
499.103023	2544.706406
499.469535	2544.414019
499.835989	2551.022972
500.202385	2552.618497
500.568723	2556.238045
500.935003	2558.519167
501.301226	2558.483879
501.667390	2564.243398
502.033497	2574.038360
502.399546	2571.931157
502.765537	2569.072823
503.131470	2577.274780
503.497345	2578.993814
503.863163	2579.487847
504.228923	2582.119329
504.594625	2586.197623
504.960269	2588.750967
505.325856	2592.385639
505.691385	2589.912953
506.056856	2596.547112
506.422270	2600.993409
506.787625	2604.065992
507.152924	2607.473812
507.518164	2609.961622
507.883347	2608.492126
508.248472	2613.800461
508.613540	2617.435132
508.978550	2621.969650
509.343503	2627.381329
509.708398	2627.288068
510.073236	2635.048924
510.438016	2639.399440
510.802738	2635.691671
511.167403	2645.658032
511.532010	2649.353198
511.896561	2654.671615
512.261053	2660.559683
512.625488	2657.897954
512.989866	2661.978768
513.354186	2663.299550
513.718449	2664.915240
514.082655	2674.364883
514.446803	2674.309430
514.810894	2681.039371
515.174927	2684.638754
515.538904	2684.863086
515.902822	2692.087059
516.266684	2694.249714
516.630488	2697.685261
516.994235	2698.466639
517.357925	2703.601055
517.721558	2707.596169
518.085133	2714.522714
518.448651	2717.983467
518.812112	2718.013713
519.175516	2720.814074
519.538863	2726.051833
519.902152	2727.677605
520.265385	2738.027094
520.628560	2737.044069
520.991678	2738.029615
521.354739	2741.134966
521.717743	2746.072776
522.080690	2746.823908
522.443580	2754.995618
522.806413	2756.848242
523.169189	2760.061978
523.531908	2764.687236
523.894569	2763.502565
524.257174	2768.750406
524.619722	2771.553288
524.982213	2776.231479
525.344647	2777.121242
525.707025	2781.204577
526.069345	2783.276491
526.431608	2786.830505
526.793815	2790.427368
527.155964	2788.927625
527.518057	2793.184879
527.880093	2793.066412
528.242072	2797.243008
528.603995	2800.328194
528.965860	2803.519244
529.327669	2806.952270
529.689421	2804.771971
530.051117	2809.775316
530.412755	2813.732622
530.774337	2817.044660
531.135862	2815.514670
531.497331	2815.522232
531.858743	2817.097592
532.220098	2823.547749
532.581396	2824.457677
532.942638	2824.498006
533.303824	2832.112669
533.664953	2834.542505
534.026025	2837.335304
534.387040	2839.142558
534.747999	2842.845286
535.108902	2848.030112
535.469748	2843.435101
535.830537	2848.748477
536.191270	2854.792820
536.551947	2854.321472
536.912567	2859.188706
537.273131	2866.137937
537.633638	2862.268851
537.994089	2865.548122
538.354483	2867.947711
538.714821	2878.138404
539.075103	2883.275339
539.435328	2885.385062
539.795497	2888.634086
540.155609	2892.888820
540.515665	2901.731004
540.875665	2900.720252
541.235609	2909.138979
541.595496	2912.952612
541.955328	2920.942841
542.315102	2925.313521
542.674821	2925.558017
543.034483	2929.422062
543.394090	2935.678134
543.753640	2939.345573
544.113134	2958.655713
544.472571	2956.346864
544.831953	2975.041983
545.191278	2972.584421
545.550548	2973.638022
545.909761	2987.017244
546.268918	2998.690036
546.628019	3011.665966
546.987064	3011.597911
547.346053	3013.979856
547.704986	3033.660520
548.063863	3038.016077
548.422684	3046.790206
548.781449	3052.501833
549.140158	3066.949780
549.498811	3077.906728
549.857408	3080.737336
550.215949	3101.769029
550.574434	3110.192798
550.932864	3123.085548
551.291237	3145.932058
551.649555	3158.822288
552.007817	3173.179494
552.366022	3179.274249
552.724173	3199.080943
553.082267	3219.200188
553.440305	3242.313878
553.798288	3247.544075
554.156215	3269.674741
554.514086	3295.374543
554.871902	3309.225113
555.229661	3325.775221
555.587365	3346.343129
555.945014	3369.565204
556.302606	3388.035992
556.660143	3415.147317
557.017625	3441.658745
557.375050	3460.653813
557.732421	3493.741426
558.089735	3519.239582
558.446994	3545.687996
558.804197	3584.061259
559.161345	3609.559415
559.518437	3619.984521
559.875474	3657.125222
560.232455	3691.899102
560.589381	3725.377404
560.946251	3752.337495
561.303065	3803.001091
561.659825	3834.299095
562.016528	3858.264740
562.373177	3888.471334
562.729770	3938.787091
563.086307	3962.793065
563.442789	4020.413454
563.799216	4059.472314
564.155587	4096.494548
564.511904	4138.361330
564.868164	4188.266233
565.224370	4244.359152
565.580520	4283.475985
565.936615	4339.382381
566.292654	4378.479050
566.648638	4440.507927
567.004567	4492.714116
567.360441	4549.369124
567.716260	4601.330817
568.072023	4669.245242
568.427732	4724.904621
568.783385	4769.107979
569.138982	4845.854505
569.494525	4910.696346
569.850013	4961.485971
570.205445	5025.231362
570.560823	5094.963122
570.916145	5155.023429
571.271412	5221.203697
571.626625	5277.306698
571.981782	5355.837793
572.336884	5407.590278
572.691931	5500.531511
573.046923	5546.728645
573.401860	5613.712977
573.756743	5685.683009
574.111570	5771.571668
574.466342	5835.644733
574.821059	5925.387354
575.175722	5969.073993
575.530330	6050.554163
575.884882	6107.922494
576.239380	6182.715573
576.593823	6270.144304
576.948211	6343.533422
577.302544	6391.053858
577.656823	6479.821016
578.011047	6588.200783
578.365216	6659.981772
578.719330	6724.155661
579.073389	6801.199615
579.427394	6908.941675
579.781344	6996.274625
580.135239	7058.432052
580.489080	7168.598907
580.842866	7212.835032
581.196597	7361.909513
581.550273	7458.855943
581.903895	7544.190074
582.257463	7711.528656
582.610975	7747.913184
582.964434	7890.731593
583.317837	7953.403217
583.671186	8039.143162
584.024481	8180.116509
584.377721	8220.395328
584.730906	8366.336732
585.084037	8477.010223
585.437113	8540.364924
585.790135	8654.244590
586.143103	8708.590749
586.496016	8840.434566
586.848874	8954.667112
587.201679	9078.087161
587.554428	9112.553530
587.907124	9261.847301
588.259765	9345.464920
588.612352	9506.756637
588.964884	9523.652064
589.317362	9691.424185
589.669786	9800.013159
590.022155	9880.253205
590.374470	10077.657228
590.726731	10111.064954
591.078937	10135.985898
591.431090	10270.244428
591.783188	10318.715122
592.135232	10376.017918
592.487222	10534.320231
592.839157	10683.596358
593.191038	10735.179965
593.542866	10802.323093
593.894639	10796.054418
594.246358	10972.767025
594.598022	11087.155847
594.949633	11126.728905
595.301190	11237.268806
595.652692	11323.144862
596.004141	11515.779953
596.355535	11415.264387
596.706876	11517.365396
597.058162	11598.752304
597.409395	11825.011892
597.760573	11974.686270
598.111698	11995.723005
598.462768	12120.156326
598.813785	12258.891400
599.164748	12244.922363
599.515657	12475.686222
599.866511	12464.376393
600.217312	12767.362342
600.568060	12610.973147
600.918753	12954.212709
601.269392	13081.708531
601.619978	13107.766255
601.970510	13307.146411
602.320988	13484.242145
602.671412	13712.135067
603.021783	13771.361063
603.372100	13804.945229
603.722363	13974.839676
604.072572	14125.774343
604.422728	14268.527217
604.772830	14331.904603
605.122878	14503.155119
605.472872	14612.417088
605.822813	14836.766078
606.172701	14926.967444
606.522534	15141.307223
606.872314	15376.285486
607.222041	15430.808086
607.571714	15714.549430
607.921333	15657.460883
608.270899	15901.122534
608.620411	16182.917992
608.969870	16243.434524
609.319276	16386.192439
609.668627	16547.383333
610.017926	16876.142181
610.367171	17090.565140
610.716362	17276.563552
611.065500	17415.729645
611.414585	17638.805744
611.763616	17913.639369
612.112594	18036.444397
612.461518	18283.493703
612.810389	18561.941836
613.159207	18651.455084
613.507971	18834.910235
613.856682	19205.069559
614.205340	19314.008893
614.553945	19769.746845
614.902496	19668.724642
615.250994	20035.917247
615.599439	20243.554813
615.947830	20483.276802
616.296169	20677.325937
616.644454	20899.358517
616.992686	21134.402315
617.340864	21535.869725
617.688990	21564.803427
618.037063	22016.148013
618.385082	22167.105365
618.733048	22470.376139
619.080961	22640.976347
619.428821	22788.218369
619.776628	22995.588753
620.124382	23047.641187
620.472083	23272.360702
620.819731	23483.403567
621.167326	23455.828455
621.514868	23588.408281
621.862357	23485.283917
622.209793	23651.042097
622.557176	23613.208237
622.904506	23617.609164
623.251783	23552.008629
623.599007	23579.399739
623.946179	23591.150668
624.293297	23698.650753
624.640363	23506.179500
624.987376	23643.732423
625.334336	23631.762204
625.681243	23576.768256
626.028097	23685.304299
626.374899	23726.845927
626.721647	23852.020298
627.068343	23920.978241
627.414987	23919.473457
627.761577	23920.254835
628.108115	24229.786723
628.454600	24040.050295
628.801032	24276.493013
629.147412	24376.118816
629.493739	24509.086810
629.840014	24422.646145
630.186236	24764.353197
630.532405	24635.816377
630.878521	24894.790532
631.224585	24941.267450
631.570597	24877.128850
631.916556	25089.323618
632.262462	25164.020915
632.608316	25306.912421
632.954117	25345.189902
633.299866	25460.934794
633.645562	25507.434397
633.991206	25318.033206
634.336797	25155.130840
634.682336	25255.969041
635.027823	25202.583222
635.373257	25197.811769
635.718639	25156.827189
636.063968	25161.570914
636.409245	24884.229315
636.754470	25026.286510
637.099642	24973.878674
637.444762	24754.827937
637.789829	24950.122237
638.134845	24818.074253
638.479808	24883.009356
638.824719	24915.474387
639.169577	24740.135494
639.514383	24876.879313
639.859137	24764.582570
640.203839	25023.592013
640.548489	24862.075964
640.893086	25014.225549
641.237632	24925.183649
641.582125	25094.536171
641.926566	25128.929443
642.270955	25196.324629
