Dividing Wavelength (nm)	Counts (n)	Blue Motor Position (mm): 1.400000	Red Motor Position (mm): 0.000000	
326.493990	1982.406024
326.888308	1982.406024
327.282561	1982.406024
327.676750	1955.115737
328.070874	1956.733948
328.464933	1962.851388
328.858929	1971.101236
329.252859	1982.048102
329.646726	1998.008395
330.040528	2015.715448
330.434265	2036.858047
330.827938	2051.215253
331.221547	2072.312482
331.615091	2093.432396
332.008571	2114.005345
332.401986	2134.270783
332.795338	2155.788948
333.188625	2174.168995
333.581847	2195.551049
333.975006	2213.797506
334.368100	2230.148488
334.761129	2246.723802
335.154095	2259.430030
335.546996	2275.297062
335.939833	2289.898764
336.332606	2303.467030
336.725315	2309.715540
337.117960	2321.479073
337.510540	2326.845381
337.903056	2335.301916
338.295508	2340.970694
338.687896	2348.391272
339.080220	2358.103055
339.472480	2360.386698
339.864676	2365.904241
340.256807	2369.788450
340.648875	2370.534541
341.040879	2373.796167
341.432818	2374.527134
341.824694	2372.974459
342.216506	2372.195601
342.608253	2373.319778
342.999937	2370.741228
343.391557	2367.719056
343.783113	2369.428007
344.174605	2367.638398
344.566033	2367.459437
344.957397	2366.738552
345.348697	2362.297295
345.739934	2363.093798
346.131106	2361.485669
346.522215	2357.765298
346.913260	2357.457788
347.304241	2355.469052
347.695159	2353.321521
348.086012	2352.577951
348.476802	2351.678105
348.867528	2348.965964
349.258191	2345.608555
349.648789	2348.257682
350.039324	2344.791888
350.429796	2345.280880
350.820203	2342.475478
351.210548	2344.229800
351.600828	2344.181909
351.991045	2340.416167
352.381198	2344.968329
352.771288	2342.414984
353.161314	2342.324244
353.551276	2342.510766
353.941175	2341.699141
354.331010	2344.741477
354.720782	2342.659480
355.110490	2342.876250
355.500135	2340.108657
355.889717	2343.841631
356.279235	2341.961281
356.668689	2347.443535
357.058080	2345.583350
357.447408	2342.140242
357.836672	2340.610251
358.225873	2343.337516
358.615010	2341.600838
359.004084	2347.488906
359.393095	2346.727692
359.782043	2346.679801
360.170927	2345.422033
360.559748	2348.449246
360.948505	2350.027127
361.337199	2348.056036
361.725830	2349.306242
362.114398	2350.435460
362.502903	2352.308249
362.891344	2349.185254
363.279722	2349.578464
363.668037	2352.436798
364.056289	2351.209277
364.444478	2351.821778
364.832603	2353.071984
365.220665	2351.809175
365.608665	2353.061901
365.996601	2352.527539
366.384474	2355.022910
366.772284	2353.717251
367.160031	2352.847652
367.547715	2356.217664
367.935336	2355.446367
368.322893	2352.396469
368.710388	2355.141377
369.097820	2357.800586
369.485189	2351.173989
369.872495	2357.160359
370.259738	2357.026769
370.646918	2355.731192
371.034035	2356.434433
371.421090	2358.579444
371.808081	2356.966275
372.195010	2357.488034
372.581875	2356.883096
372.968678	2357.969465
373.355418	2359.643128
373.742096	2360.006091
374.128710	2361.321832
374.515262	2357.117510
374.901751	2358.400483
375.288177	2357.546008
375.674540	2356.671368
376.060841	2358.972654
376.447079	2361.513396
376.833254	2358.491224
377.219367	2355.693384
377.605417	2358.559280
377.991404	2358.254290
378.377329	2357.457788
378.763191	2355.758919
379.148991	2362.299816
379.534727	2359.658251
379.920402	2363.797038
380.306013	2363.459281
380.691563	2361.483149
381.077049	2363.255114
381.462474	2360.968951
381.847835	2365.896679
382.233134	2361.425176
382.618371	2363.202182
383.003545	2364.160002
383.388657	2364.001205
383.773706	2363.706298
384.158693	2363.466843
384.543618	2365.473222
384.928480	2363.650845
385.313280	2365.516072
385.698017	2362.892151
386.082692	2367.134282
386.467305	2365.183356
386.851856	2367.663603
387.236344	2367.882894
387.620770	2365.226206
388.005133	2366.320136
388.389435	2364.969107
388.773674	2364.336442
389.157851	2366.962883
389.541965	2368.145034
389.926018	2365.994982
390.310008	2365.342152
390.693936	2366.297451
391.077802	2367.214941
391.461606	2366.637729
391.845348	2369.745600
392.229027	2368.545805
392.612645	2368.255939
392.996200	2368.560929
393.379694	2370.340456
393.763125	2369.244005
394.146494	2367.769468
394.529801	2368.722246
394.913047	2369.881711
395.296230	2369.652339
395.679351	2370.116125
396.062410	2371.552854
396.445408	2371.855323
396.828343	2371.106712
397.211217	2365.937008
397.594028	2369.869108
397.976778	2366.680578
398.359466	2367.855167
398.742092	2366.299971
399.124656	2370.630323
399.507158	2372.674510
399.889598	2373.213914
400.271977	2370.063193
400.654294	2372.210724
401.036549	2372.220807
401.418742	2372.266177
401.800874	2375.769779
402.182944	2374.075951
402.564952	2373.042515
402.946898	2375.633668
403.328783	2373.639891
403.710606	2374.562423
404.092367	2372.863554
404.474067	2374.920344
404.855705	2371.560415
405.237282	2373.569315
405.618797	2370.703419
406.000250	2375.069058
406.381642	2372.881198
406.762972	2374.522093
407.144240	2373.768441
407.525447	2375.938658
407.906593	2374.892618
408.287677	2375.928575
408.668700	2373.816332
409.049661	2377.413195
409.430560	2374.731301
409.811399	2374.902700
410.192176	2372.341794
410.572891	2372.729963
410.953545	2378.703730
411.334138	2377.917310
411.714669	2376.034439
412.095139	2379.527959
412.475547	2375.026209
412.855894	2375.850437
413.236180	2376.286497
413.616405	2377.640047
413.996568	2377.587115
414.376670	2376.273894
414.756711	2375.318596
415.136691	2378.025695
415.516609	2376.989738
415.896466	2377.904708
416.276262	2379.618700
416.655997	2377.118288
417.035670	2374.322968
417.415283	2379.490150
417.794834	2374.950591
418.174324	2380.768083
418.553753	2378.214738
418.933121	2379.691797
419.312428	2378.915459
419.691674	2381.204143
420.070859	2378.585263
420.449983	2379.522918
420.829045	2377.929913
421.208047	2381.478886
421.586988	2379.948895
421.965867	2380.621889
422.344686	2380.082486
422.723444	2381.998124
423.102141	2378.731457
423.480777	2379.233052
423.859352	2382.101468
424.237866	2382.857641
424.616319	2380.518546
424.994712	2380.803371
425.373044	2380.884029
425.751314	2380.924359
426.129524	2381.083155
426.507673	2380.077445
426.885762	2380.604245
427.263789	2380.183309
427.641756	2383.389483
428.019662	2381.375542
428.397508	2380.858824
428.775292	2381.665408
429.153016	2383.051726
429.530679	2383.573485
429.908282	2383.107178
430.285824	2383.911242
430.663305	2385.287477
431.040726	2384.317055
431.418086	2383.659185
431.795385	2384.790924
432.172624	2384.458208
432.549802	2385.778990
432.926920	2385.237066
433.303977	2385.547097
433.680974	2381.171375
434.057910	2384.322096
434.434786	2381.347816
434.811601	2386.134391
435.188355	2384.236397
435.565050	2387.427447
435.941683	2387.369474
436.318257	2383.447456
436.694770	2379.580891
437.071222	2380.952085
437.447614	2380.153062
437.823946	2383.530635
438.200218	2383.281098
438.576429	2384.513660
438.952580	2386.522560
439.328670	2383.210522
439.704700	2383.220604
440.080670	2386.121788
440.456580	2386.446943
440.832429	2384.735471
441.208218	2386.610780
441.583947	2386.487272
441.959616	2384.858979
442.335224	2386.641027
442.710773	2389.194372
443.086261	2385.784031
443.461689	2385.100955
443.837057	2386.315873
444.212365	2386.280585
444.587612	2388.118085
444.962800	2386.197406
445.337927	2385.862169
445.712995	2386.116747
446.088002	2386.888044
446.462949	2386.083980
446.837837	2388.786038
447.212664	2385.048023
447.587431	2383.049205
447.962139	2389.116234
448.336786	2389.085987
448.711374	2387.263610
449.085901	2390.018600
449.460369	2388.639845
449.834776	2388.130688
450.209124	2387.845863
450.583412	2389.441388
450.957640	2386.497354
451.331808	2389.116234
451.705917	2389.761501
452.079965	2388.150853
452.453954	2390.391646
452.827883	2388.138250
453.201752	2391.485576
453.575562	2390.000956
453.949311	2388.024824
454.323001	2388.140770
454.696632	2390.227808
455.070202	2389.978271
455.443713	2388.786038
455.817164	2388.105482
456.190556	2384.906870
456.563888	2386.588095
456.937160	2386.129350
457.310373	2389.063302
457.683526	2390.905843
458.056619	2392.314846
458.429653	2391.503220
458.802628	2387.626573
459.175542	2388.922149
459.548398	2391.387273
459.921194	2388.904505
460.293930	2392.869373
460.666607	2386.920811
461.039224	2391.664537
461.411782	2391.470453
461.784280	2392.670247
462.156719	2389.333003
462.529099	2392.377860
462.901419	2391.402397
463.273680	2389.247304
463.645882	2393.524723
464.018024	2391.437685
464.390106	2389.708569
464.762130	2393.464229
465.134094	2389.441388
465.505999	2389.771584
465.877845	2392.060268
466.249631	2392.032541
466.621358	2391.377191
466.993026	2392.478683
467.364634	2395.470608
467.736184	2391.397356
468.107674	2390.588251
468.479105	2391.478014
468.850477	2391.084804
469.221790	2391.399876
469.593043	2392.927346
469.964238	2388.980122
470.335373	2392.478683
470.706449	2393.181924
471.077467	2391.465411
471.448425	2394.033879
471.819324	2394.353992
472.190164	2391.780483
472.560945	2392.030021
472.931667	2391.251162
473.302330	2391.382232
473.672934	2391.520864
474.043479	2395.251318
474.413965	2390.797458
474.784393	2390.517674
475.154761	2389.849722
475.525070	2388.836450
475.895321	2390.177397
476.265513	2385.645399
476.635645	2393.020607
477.005719	2393.398694
477.375734	2392.385422
477.745691	2394.595968
478.115588	2393.174362
478.485427	2392.637480
478.855207	2393.441544
479.224928	2392.662685
479.594591	2394.263252
479.964194	2394.071688
480.333739	2396.582183
480.703226	2393.547408
481.072653	2393.814589
481.442022	2396.004970
481.811333	2390.505072
482.180584	2395.256359
482.549777	2393.630587
482.918912	2394.038920
483.287988	2393.799466
483.657005	2392.299722
484.025964	2395.463046
484.394864	2393.413817
484.763706	2394.119579
485.132489	2393.857439
485.501213	2396.670403
485.869879	2394.459857
486.238487	2398.386916
486.607036	2392.012377
486.975527	2393.428941
487.343959	2394.560680
487.712333	2395.175701
488.080648	2394.598488
488.448905	2393.582696
488.817104	2395.011863
489.185244	2394.119579
489.553326	2395.009343
489.921350	2397.121586
490.289315	2394.351472
490.657222	2395.919271
491.025070	2393.166801
491.392861	2398.097049
491.760593	2395.959600
492.128267	2395.286606
492.495883	2394.333828
492.863440	2394.679147
493.230939	2397.439179
493.598380	2393.489435
493.965763	2391.556152
494.333088	2393.562531
494.700354	2390.227808
495.067563	2394.404404
495.434713	2392.329969
495.801805	2393.068498
496.168839	2396.352810
496.535815	2395.984806
496.902733	2396.183931
497.269593	2394.835423
497.636395	2395.223592
498.003139	2394.671585
498.369825	2395.092522
498.736453	2396.491442
499.103023	2394.495145
499.469535	2398.626370
499.835989	2398.530588
500.202385	2394.721997
500.568723	2395.200906
500.935003	2398.636453
501.301226	2395.163098
501.667390	2396.688047
502.033497	2393.854918
502.399546	2398.404560
502.765537	2393.600340
503.131470	2394.855587
503.497345	2397.030845
503.863163	2394.379198
504.228923	2395.508417
504.594625	2397.078736
504.960269	2396.055382
505.325856	2396.130999
505.691385	2394.104455
506.056856	2397.789539
506.422270	2394.805176
506.787625	2395.735269
507.152924	2395.379867
507.518164	2398.197872
507.883347	2397.842471
508.248472	2398.283572
508.613540	2396.657800
508.978550	2394.220402
509.343503	2396.506565
509.708398	2396.156205
510.073236	2398.659138
510.438016	2397.950856
510.802738	2398.230640
511.167403	2396.194014
511.532010	2399.380023
511.896561	2397.751730
512.261053	2397.373644
512.625488	2393.522202
512.989866	2393.365926
513.354186	2394.933725
513.718449	2392.203940
514.082655	2396.509086
514.446803	2397.124107
514.810894	2397.973541
515.174927	2397.250135
515.538904	2393.373488
515.902822	2396.680485
516.266684	2399.251473
516.630488	2398.220557
516.994235	2398.875908
517.357925	2397.701319
517.721558	2397.222409
518.085133	2395.851215
518.448651	2398.860784
518.812112	2398.936401
519.175516	2398.460012
519.538863	2398.386916
519.902152	2395.687378
520.265385	2397.658469
520.628560	2398.938922
520.991678	2397.023283
521.354739	2397.613098
521.717743	2397.434138
522.080690	2397.242574
522.443580	2396.839281
522.806413	2399.092677
523.169189	2397.925650
523.531908	2397.925650
523.894569	2396.940104
524.257174	2397.724004
524.619722	2397.671072
524.982213	2397.983623
525.344647	2397.781977
525.707025	2398.248284
526.069345	2398.943963
526.431608	2396.695608
526.793815	2397.542522
527.155964	2398.134858
527.518057	2398.792728
527.880093	2399.001936
528.242072	2394.467418
528.603995	2397.630743
528.965860	2396.645197
529.327669	2397.164436
529.689421	2396.430948
530.051117	2398.704508
530.412755	2397.847512
530.774337	2398.676782
531.135862	2397.222409
531.497331	2397.348438
531.858743	2394.331307
532.220098	2395.490773
532.581396	2394.631256
532.942638	2396.045300
533.303824	2399.117883
533.664953	2399.506052
534.026025	2398.210475
534.387040	2397.797101
534.747999	2399.997564
535.108902	2397.923129
535.469748	2400.884807
535.830537	2398.931360
536.191270	2400.957904
536.551947	2399.193500
536.912567	2397.076216
537.273131	2398.223078
537.633638	2400.032852
537.994089	2399.702657
538.354483	2400.312636
538.714821	2401.124262
539.075103	2400.279869
539.435328	2399.317008
539.795497	2397.371123
540.155609	2398.044117
540.515665	2399.649725
540.875665	2397.124107
541.235609	2400.872204
541.595496	2399.004457
541.955328	2397.177039
542.315102	2399.639642
542.674821	2398.205434
543.034483	2399.221227
543.394090	2396.879611
543.753640	2399.354817
544.113134	2398.127296
544.472571	2398.155022
544.831953	2401.015877
545.191278	2400.191649
545.550548	2397.842471
545.909761	2398.727193
546.268918	2397.928171
546.628019	2400.242060
546.987064	2400.317678
547.346053	2400.499159
547.704986	2400.599982
548.063863	2397.499673
548.422684	2398.339025
548.781449	2400.325239
549.140158	2394.361554
549.498811	2402.689540
549.857408	2400.146278
550.215949	2399.995044
550.574434	2397.454302
550.932864	2396.758623
551.291237	2395.054713
551.649555	2400.431103
552.007817	2396.251987
552.366022	2400.426062
552.724173	2399.480846
553.082267	2400.670558
553.440305	2398.701988
553.798288	2399.947153
554.156215	2397.950856
554.514086	2401.288100
554.871902	2398.533109
555.229661	2399.937070
555.587365	2399.644683
555.945014	2398.238202
556.302606	2399.506052
556.660143	2401.320867
557.017625	2398.447409
557.375050	2398.722152
557.732421	2398.346586
558.089735	2398.638973
558.446994	2399.203583
558.804197	2399.397667
559.161345	2399.453120
559.518437	2397.560166
559.875474	2400.846999
560.232455	2399.874056
560.589381	2400.539488
560.946251	2403.307082
561.303065	2400.884807
561.659825	2402.445044
562.016528	2399.410270
562.373177	2399.483367
562.729770	2393.728889
563.086307	2399.231309
563.442789	2398.036555
563.799216	2399.485887
564.155587	2399.586710
564.511904	2402.792884
564.868164	2402.324057
565.224370	2400.821793
565.580520	2401.474622
565.936615	2397.971020
566.292654	2399.279200
566.648638	2402.707184
567.004567	2400.423542
567.360441	2399.317008
567.716260	2398.462533
568.072023	2397.766854
568.427732	2394.880793
568.783385	2395.566390
569.138982	2393.502038
569.494525	2395.969682
569.850013	2392.471122
570.205445	2400.239540
570.560823	2399.538819
570.916145	2400.685682
571.271412	2398.863305
571.626625	2400.985630
571.981782	2402.823131
572.336884	2400.529406
572.691931	2400.617626
573.046923	2398.984292
573.401860	2398.462533
573.756743	2399.974879
574.111570	2397.189642
574.466342	2401.678789
574.821059	2400.317677
575.175722	2400.751217
575.530330	2398.873387
575.884882	2400.662997
576.239380	2397.633263
576.593823	2401.956053
576.948211	2400.153840
577.302544	2402.664335
577.656823	2397.870197
578.011047	2400.746176
578.365216	2400.315157
578.719330	2398.800290
579.073389	2400.300033
579.427394	2400.688202
579.781344	2397.325753
580.135239	2399.435476
580.489080	2400.718449
580.842866	2399.576628
581.196597	2403.556619
581.550273	2399.586710
581.903895	2398.374313
582.257463	2400.189128
582.610975	2398.581000
582.964434	2399.707698
583.317837	2400.090826
583.671186	2399.309447
584.024481	2399.314488
584.377721	2401.043604
584.730906	2398.858263
585.084037	2401.388923
585.437113	2401.668707
585.790135	2399.369941
586.143103	2399.337173
586.496016	2399.158212
586.848874	2392.826523
587.201679	2398.591082
587.554428	2395.558828
587.907124	2398.946484
588.259765	2393.887686
588.612352	2400.846999
588.964884	2400.005126
589.317362	2398.149981
589.669786	2396.733417
590.022155	2399.755589
590.374470	2398.759961
590.726731	2400.166443
591.078937	2396.844322
591.431090	2398.966648
591.783188	2403.294479
592.135232	2400.899931
592.487222	2402.566032
592.839157	2400.589900
593.191038	2397.582852
593.542866	2400.458830
593.894639	2399.604354
594.246358	2399.009498
594.598022	2399.700136
594.949633	2398.601165
595.301190	2402.442524
595.652692	2400.063099
596.004141	2403.924623
596.355535	2398.747358
596.706876	2397.502193
597.058162	2400.181566
597.409395	2395.082439
597.760573	2401.235168
598.111698	2399.906823
598.462768	2397.729045
598.813785	2400.655435
599.164748	2399.624519
599.515657	2399.521175
599.866511	2398.240722
600.217312	2399.881618
600.568060	2398.835578
600.918753	2401.172153
601.269392	2402.220713
601.619978	2400.418501
601.970510	2400.118552
602.320988	2398.649056
602.671412	2398.913716
603.021783	2399.327091
603.372100	2399.649725
603.722363	2397.658469
604.072572	2400.184087
604.422728	2398.722152
604.772830	2395.785680
605.122878	2397.557646
605.472872	2397.504714
605.822813	2396.022614
606.172701	2399.276679
606.522534	2398.581000
606.872314	2402.593758
607.222041	2400.095867
607.571714	2400.325239
607.921333	2398.117214
608.270899	2400.521844
608.620411	2399.435476
608.969870	2399.488408
609.319276	2398.258366
609.668627	2401.686351
610.017926	2399.899262
610.367171	2402.702143
610.716362	2399.921947
611.065500	2401.164591
611.414585	2399.080074
611.763616	2398.812893
612.112594	2398.954045
612.461518	2400.776423
612.810389	2398.747358
613.159207	2399.127965
613.507971	2398.399518
613.856682	2401.056207
614.205340	2398.230640
614.553945	2401.935888
614.902496	2399.233829
615.250994	2397.819786
615.599439	2398.465053
615.947830	2400.670558
616.296169	2400.035373
616.644454	2398.515465
616.992686	2400.421021
617.340864	2398.689385
617.688990	2400.867163
618.037063	2401.305744
618.385082	2399.019580
618.733048	2400.390774
619.080961	2398.512944
619.428821	2399.306926
619.776628	2400.216854
620.124382	2400.534447
620.472083	2399.422873
620.819731	2400.705846
621.167326	2397.822306
621.514868	2400.889848
621.862357	2397.643345
622.209793	2400.080743
622.557176	2398.054199
622.904506	2394.984137
623.251783	2396.698129
623.599007	2397.502193
623.946179	2393.940618
624.293297	2398.782646
624.640363	2400.599982
624.987376	2399.180897
625.334336	2397.363561
625.681243	2400.539488
626.028097	2398.896072
626.374899	2398.417163
626.721647	2402.382030
627.068343	2398.596123
627.414987	2398.896072
627.761577	2398.959087
628.108115	2400.451268
628.454600	2398.949004
628.801032	2398.278531
629.147412	2398.212996
629.493739	2398.427245
629.840014	2399.488408
630.186236	2400.020249
630.532405	2397.736607
630.878521	2398.868346
631.224585	2397.963459
631.570597	2397.184600
631.916556	2401.502349
632.262462	2400.534447
632.608316	2400.831875
632.954117	2400.690723
633.299866	2399.906823
633.645562	2400.065620
633.991206	2398.641494
634.336797	2398.316339
634.682336	2397.570249
635.027823	2399.251473
635.373257	2400.405898
635.718639	2398.853222
636.063968	2400.206772
636.409245	2399.301885
636.754470	2401.494787
637.099642	2399.037224
637.444762	2399.412790
637.789829	2398.386916
638.134845	2401.605692
638.479808	2398.954045
638.824719	2399.085115
639.169577	2399.894221
639.514383	2399.541340
639.859137	2397.643345
640.203839	2400.927657
640.548489	2399.528737
640.893086	2397.706360
641.237632	2397.764333
641.582125	2397.136709
641.926566	2394.762326
642.270955	2396.327604
642.615292	2396.100752
642.959576	2398.780126
643.303809	2398.916237
643.647990	2399.717780
643.992118	2400.330280
644.336195	2398.606206
