Dividing Wavelength (nm)	Counts (n)	Blue Motor Position (mm): 14.200000	Red Motor Position (mm): 0.000000	
326.493990	1977.465693
326.888308	1977.465693
327.282561	1977.465693
327.676750	1951.649944
328.070874	1950.863524
328.464933	1959.057920
328.858929	1966.465895
329.252859	1978.305045
329.646726	1995.450009
330.040528	2010.777637
330.434265	2030.664989
330.827938	2047.930941
331.221547	2067.223437
331.615091	2089.732189
332.008571	2111.083996
332.401986	2130.053858
332.795338	2149.618576
333.188625	2171.166988
333.581847	2187.434792
333.975006	2205.580425
334.368100	2225.165308
334.761129	2242.262381
335.154095	2256.347365
335.546996	2288.431788
335.939833	2343.433298
336.332606	2355.993332
336.725315	2368.618902
337.117960	2378.212218
337.510540	2384.395193
337.903056	2392.836605
338.295508	2400.098387
338.687896	2405.401681
339.080220	2413.480130
339.472480	2416.993814
339.864676	2423.958168
340.256807	2425.727613
340.648875	2425.709969
341.040879	2427.302974
341.432818	2431.845054
341.824694	2431.875301
342.216506	2428.684250
342.608253	2430.148705
342.999937	2431.330856
343.391557	2430.370516
343.783113	2424.626121
344.174605	2423.721234
344.566033	2421.971954
344.957397	2421.586306
345.348697	2419.842066
345.739934	2418.034813
346.131106	2415.060532
346.522215	2416.668660
346.913260	2415.995666
347.304241	2412.711354
347.695159	2409.212793
348.086012	2409.185067
348.476802	2408.900242
348.867528	2403.806156
349.258191	2404.912689
349.648789	2401.199879
350.039324	2399.435476
350.429796	2401.817421
350.820203	2398.994375
351.210548	2403.402864
351.600828	2400.889848
351.991045	2395.009343
352.381198	2398.553274
352.771288	2401.073851
353.161314	2395.914230
353.551276	2397.063613
353.941175	2392.796276
354.331010	2399.130486
354.720782	2396.551936
355.110490	2401.875394
355.500135	2397.882800
355.889717	2399.891700
356.279235	2399.785836
356.668689	2399.322050
357.058080	2399.795918
357.447408	2397.923129
357.836672	2395.352141
358.225873	2397.973541
358.615010	2397.955897
359.004084	2402.044273
359.393095	2403.680127
359.782043	2403.722977
360.170927	2400.718449
360.559748	2403.100394
360.948505	2404.877401
361.337199	2404.133831
361.725830	2404.522000
362.114398	2405.580642
362.502903	2406.414953
362.891344	2405.094171
363.279722	2405.338667
363.668037	2409.464851
364.056289	2406.140210
364.444478	2408.529717
364.832603	2407.425704
365.220665	2410.526014
365.608665	2409.278328
365.996601	2409.401837
366.384474	2409.643812
366.772284	2412.360994
367.160031	2405.565519
367.547715	2411.907290
367.935336	2410.367218
368.322893	2411.456107
368.710388	2411.370407
369.097820	2412.560120
369.485189	2411.753535
369.872495	2412.441653
370.259738	2413.674215
370.646918	2413.434760
371.034035	2412.749163
371.421090	2411.614903
371.808081	2412.534914
372.195010	2416.608166
372.581875	2414.064904
372.968678	2413.916190
373.355418	2415.884761
373.742096	2416.492220
374.128710	2415.930131
374.515262	2417.273598
374.901751	2418.251582
375.288177	2418.309556
375.674540	2416.335944
376.060841	2419.713517
376.447079	2416.333423
376.833254	2415.471386
377.219367	2414.417785
377.605417	2413.855696
377.991404	2413.674215
378.377329	2417.850811
378.763191	2413.477610
379.148991	2420.870462
379.534727	2421.583785
379.920402	2418.546490
380.306013	2417.039185
380.691563	2423.310380
381.077049	2418.286870
381.462474	2420.812488
381.847835	2421.354413
382.233134	2422.392890
382.618371	2419.373239
383.003545	2420.462128
383.388657	2420.973805
383.773706	2421.482962
384.158693	2419.048085
384.543618	2423.111255
384.928480	2420.212591
385.313280	2422.665113
385.698017	2422.660071
386.082692	2426.350196
386.467305	2424.343817
386.851856	2424.472366
387.236344	2423.509506
387.620770	2424.096800
388.005133	2426.128385
388.389435	2424.152253
388.773674	2424.089238
389.157851	2428.472522
389.541965	2426.153591
389.926018	2422.372726
390.310008	2423.398600
390.693936	2425.311718
391.077802	2427.928077
391.461606	2425.097469
391.845348	2426.778694
392.229027	2428.533016
392.612645	2428.497728
392.996200	2426.856832
393.379694	2428.404466
393.763125	2426.960176
394.146494	2427.267686
394.529801	2430.347831
394.913047	2429.916812
395.296230	2428.830444
395.679351	2430.488983
396.062410	2425.163004
396.445408	2429.687440
396.828343	2434.572318
397.211217	2422.957499
397.594028	2429.301792
397.976778	2427.083684
398.359466	2430.100814
398.742092	2425.856163
399.124656	2430.940167
399.507158	2426.554363
399.889598	2433.642225
400.271977	2426.388005
400.654294	2432.623912
401.036549	2430.640218
401.418742	2432.908737
401.800874	2433.412853
402.182944	2432.160126
402.564952	2432.152564
402.946898	2434.849581
403.328783	2431.754313
403.710606	2433.203645
404.092367	2434.756320
404.474067	2435.290682
404.855705	2434.796649
405.237282	2434.650456
405.618797	2432.928902
406.000250	2437.355035
406.381642	2433.458223
406.762972	2436.213213
407.144240	2437.203800
407.525447	2436.127514
407.906593	2434.416042
408.287677	2436.805549
408.668700	2435.840168
409.049661	2435.991403
409.430560	2437.113059
409.811399	2438.615323
410.192176	2438.010385
410.572891	2436.180446
410.953545	2436.540888
411.334138	2439.152206
411.714669	2438.660694
412.095139	2439.391661
412.475547	2439.552978
412.855894	2438.670776
413.236180	2439.489963
413.616405	2440.155396
413.996568	2439.694130
414.376670	2439.744542
414.756711	2438.489294
415.136691	2440.475509
415.516609	2438.864860
415.896466	2441.629933
416.276262	2440.848554
416.655997	2437.125662
417.035670	2436.883687
417.415283	2439.114397
417.794834	2435.951073
418.174324	2438.832093
418.553753	2441.443411
418.933121	2444.132866
419.312428	2440.243616
419.691674	2441.937444
420.070859	2440.609100
420.449983	2443.958946
420.829045	2442.320571
421.208047	2438.965683
421.586988	2443.742177
421.965867	2443.469954
422.344686	2442.539862
422.723444	2441.105653
423.102141	2442.512135
423.480777	2442.963318
423.859352	2445.138576
424.237866	2441.511466
424.616319	2440.518359
424.994712	2445.594801
425.373044	2443.525407
425.751314	2442.928030
426.129524	2443.618668
426.507673	2442.013061
426.885762	2444.258895
427.263789	2442.418874
427.641756	2446.794595
428.019662	2445.761159
428.397508	2441.294697
428.775292	2445.705706
429.153016	2442.877619
429.530679	2445.337702
429.908282	2443.774944
430.285824	2444.263936
430.663305	2447.001283
431.040726	2445.630089
431.418086	2445.554472
431.795385	2446.270315
432.172624	2440.568770
432.549802	2446.938268
432.926920	2443.719492
433.303977	2444.115222
433.680974	2446.020778
434.057910	2448.417847
434.434786	2444.717640
434.811601	2445.529266
435.188355	2447.888526
435.565050	2448.196036
435.941683	2448.440532
436.318257	2446.134204
436.694770	2442.771755
437.071222	2445.952723
437.447614	2445.448607
437.823946	2445.287290
438.200218	2448.579164
438.576429	2448.070007
438.952580	2448.276695
439.328670	2448.261571
439.704700	2449.531942
440.080670	2449.678135
440.456580	2447.071859
440.832429	2449.524380
441.208218	2446.517332
441.583947	2448.667384
441.959616	2450.111675
442.335224	2447.117229
442.710773	2449.756273
443.086261	2453.063270
443.461689	2451.271140
443.837057	2451.881120
444.212365	2451.298866
444.587612	2451.124947
444.962800	2453.277519
445.337927	2452.665019
445.712995	2448.901798
446.088002	2452.627210
446.462949	2451.190482
446.837837	2451.714762
447.212664	2454.542849
447.587431	2456.498817
447.962139	2456.806327
448.336786	2459.175669
448.711374	2455.682150
449.085901	2454.540328
449.460369	2457.491924
449.834776	2455.861111
450.209124	2460.640124
450.583412	2459.084928
450.957640	2458.323714
451.331808	2459.571400
451.705917	2458.318673
452.079965	2459.495783
452.453954	2458.883282
452.827883	2457.476800
453.201752	2457.038220
453.575562	2457.799434
453.949311	2458.651389
454.323001	2460.688015
454.696632	2461.078705
455.070202	2463.778243
455.443713	2462.054168
455.817164	2461.565176
456.190556	2458.732048
456.563888	2461.030814
456.937160	2459.498303
457.310373	2466.376957
457.683526	2463.621967
458.056619	2464.052986
458.429653	2463.531226
458.802628	2465.048613
459.175542	2464.058027
459.548398	2466.480301
459.921194	2469.752010
460.293930	2469.598255
460.666607	2471.650004
461.039224	2474.233596
461.411782	2474.120170
461.784280	2473.961373
462.156719	2472.549850
462.529099	2472.398616
462.901419	2473.273256
463.273680	2473.411888
463.645882	2471.415591
464.018024	2472.355766
464.390106	2471.612196
464.762130	2478.427836
465.134094	2480.565285
465.505999	2486.198774
465.877845	2489.094917
466.249631	2489.707417
466.621358	2488.653816
466.993026	2490.229177
467.364634	2489.815802
467.736184	2488.711790
468.107674	2483.947899
468.479105	2485.283805
468.850477	2484.630976
469.221790	2480.600573
469.593043	2477.938844
469.964238	2480.098978
470.335373	2477.490181
470.706449	2481.848259
471.077467	2484.383959
471.448425	2488.323621
471.819324	2493.395022
472.190164	2491.892758
472.560945	2485.435040
472.931667	2483.665595
473.302330	2483.884885
473.672934	2484.903198
474.043479	2484.421768
474.413965	2482.720378
474.784393	2480.328351
475.154761	2480.686273
475.525070	2480.250213
475.895321	2481.142497
476.265513	2479.380614
476.635645	2486.952427
477.005719	2486.576861
477.375734	2487.769094
477.745691	2490.294712
478.115588	2487.602736
478.485427	2494.030207
478.855207	2498.292502
479.224928	2502.958090
479.594591	2505.786178
479.964194	2505.370283
480.333739	2506.388596
480.703226	2506.542351
481.072653	2508.180726
481.442022	2508.873884
481.811333	2510.381189
482.180584	2510.010665
482.549777	2507.580828
482.918912	2510.068638
483.287988	2512.178361
483.657005	2509.415808
484.025964	2511.883453
484.394864	2512.742970
484.763706	2516.370080
485.132489	2514.088958
485.501213	2514.456962
485.869879	2515.470234
486.238487	2519.455266
486.607036	2521.489372
486.975527	2519.430061
487.343959	2522.875689
487.712333	2524.514064
488.080648	2526.288550
488.448905	2529.729138
488.817104	2528.456247
489.185244	2535.032432
489.553326	2539.360262
489.921350	2549.389638
490.289315	2558.451112
490.657222	2561.306926
491.025070	2565.750703
491.392861	2567.434448
491.760593	2565.246587
492.128267	2564.409756
492.495883	2559.887841
492.863440	2563.257852
493.230939	2562.794066
493.598380	2559.998746
493.965763	2558.327604
494.333088	2561.503531
494.700354	2560.376833
495.067563	2564.301371
495.434713	2563.656103
495.801805	2568.286403
496.168839	2574.595407
496.535815	2576.400140
496.902733	2581.196798
497.269593	2584.012282
497.636395	2584.430698
498.003139	2585.045719
498.369825	2587.964547
498.736453	2593.429158
499.103023	2588.786255
499.469535	2596.587441
499.835989	2599.029880
500.202385	2601.830241
500.568723	2603.095570
500.935003	2609.344081
501.301226	2612.807353
501.667390	2618.319855
502.033497	2622.141050
502.399546	2623.340844
502.765537	2620.850514
503.131470	2628.649179
503.497345	2630.343007
503.863163	2627.167080
504.228923	2632.082205
504.594625	2637.340128
504.960269	2639.412043
505.325856	2647.916469
505.691385	2646.262971
506.056856	2650.288332
506.422270	2654.560710
506.787625	2657.282933
507.152924	2660.594971
507.518164	2664.600168
507.883347	2663.549087
508.248472	2667.060251
508.613540	2670.798267
508.978550	2676.696417
509.343503	2679.390913
509.708398	2679.842097
510.073236	2688.676719
510.438016	2690.914991
510.802738	2691.860207
511.167403	2695.983871
511.532010	2700.631815
511.896561	2708.743032
512.261053	2715.457848
512.625488	2712.508773
512.989866	2711.177909
513.354186	2719.233673
513.718449	2715.997252
514.082655	2729.686505
514.446803	2727.506206
514.810894	2738.354769
515.174927	2738.296796
515.538904	2741.502970
515.902822	2745.498084
516.266684	2747.209556
516.630488	2750.919845
516.994235	2752.878333
517.357925	2758.111051
517.721558	2762.728748
518.085133	2765.256887
518.448651	2770.663524
518.812112	2771.712084
519.175516	2774.744338
519.538863	2777.910183
519.902152	2781.562499
520.265385	2787.843777
520.628560	2793.797379
520.991678	2793.802420
521.354739	2798.475570
521.717743	2803.073102
522.080690	2805.051755
522.443580	2812.742035
522.806413	2814.743373
523.169189	2820.041626
523.531908	2822.121102
523.894569	2825.591937
524.257174	2829.902123
524.619722	2835.139882
524.982213	2841.189267
525.344647	2840.692713
525.707025	2847.664629
526.069345	2852.035309
526.431608	2855.894312
526.793815	2861.636187
527.155964	2862.301619
527.518057	2870.248998
527.880093	2871.042980
528.242072	2881.359701
528.603995	2882.020092
528.965860	2888.712224
529.327669	2893.360168
529.689421	2896.440313
530.051117	2901.947773
530.412755	2908.150913
530.774337	2916.655340
531.135862	2918.961668
531.497331	2924.758994
531.858743	2926.636824
532.220098	2942.027467
532.581396	2940.391613
532.942638	2945.102571
533.303824	2957.007256
533.664953	2965.662917
534.026025	2969.882363
534.387040	2986.382059
534.747999	2990.193171
535.108902	3001.223216
535.469748	3006.511386
535.830537	3017.548993
536.191270	3029.282278
536.551947	3034.426776
536.912567	3048.547048
537.273131	3062.296795
537.633638	3066.208730
537.994089	3080.545772
538.354483	3088.150352
538.714821	3110.482664
539.075103	3130.677526
539.435328	3140.711943
539.795497	3150.852224
540.155609	3166.416786
540.515665	3186.689787
540.875665	3197.104810
541.235609	3216.283880
541.595496	3234.978999
541.955328	3263.201899
542.315102	3271.008126
542.674821	3285.319962
543.034483	3304.919968
543.394090	3320.960919
543.753640	3343.653673
544.113134	3388.885426
544.472571	3392.048750
544.831953	3434.270934
545.191278	3445.815177
545.550548	3463.209678
545.909761	3500.494052
546.268918	3531.668547
546.628019	3565.398907
546.987064	3584.409099
547.346053	3593.367229
547.704986	3644.456803
548.063863	3664.150070
548.422684	3701.373950
548.781449	3729.727920
549.140158	3775.824231
549.498811	3807.981751
549.857408	3824.181499
550.215949	3885.900346
550.574434	3920.338988
550.932864	3949.736477
551.291237	4014.583359
551.649555	4045.699881
552.007817	4096.557562
552.366022	4129.826657
552.724173	4180.424718
553.082267	4244.444851
553.440305	4302.786125
553.798288	4329.103468
554.156215	4389.657808
554.514086	4451.580822
554.871902	4496.225280
555.229661	4551.622520
555.587365	4598.613635
555.945014	4658.520187
556.302606	4712.606727
556.660143	4787.871153
557.017625	4850.368858
557.375050	4902.509512
557.732421	4984.140917
558.089735	5049.691040
558.446994	5105.771356
558.804197	5202.571592
559.161345	5269.802941
559.518437	5295.578360
559.875474	5378.762440
560.232455	5464.951047
560.589381	5550.355755
560.946251	5602.773673
561.303065	5729.092385
561.659825	5790.208814
562.016528	5847.589747
562.373177	5906.861114
562.729770	6031.939702
563.086307	6073.892185
563.442789	6199.870619
563.799216	6291.249095
564.155587	6362.858685
564.511904	6458.355783
564.868164	6552.111162
565.224370	6671.904101
565.580520	6746.281285
565.936615	6862.426949
566.292654	6933.086282
566.648638	7058.464819
567.004567	7162.103380
567.360441	7274.150586
567.716260	7360.097218
568.072023	7503.616348
568.427732	7618.098431
568.783385	7677.785693
569.138982	7834.421904
569.494525	7946.491795
569.850013	8032.743417
570.205445	8152.511150
570.560823	8268.024149
570.916145	8367.599541
571.271412	8493.948500
571.626625	8583.005524
571.981782	8719.620793
572.336884	8795.880848
572.691931	8974.743507
573.046923	9042.340339
573.401860	9143.513776
573.756743	9269.580431
574.111570	9414.188450
574.466342	9527.624493
574.821059	9675.012708
575.175722	9731.735772
575.530330	9870.357420
575.884882	9960.185740
576.239380	10089.879505
576.593823	10222.981090
576.948211	10344.482980
577.302544	10394.150949
577.656823	10538.154029
578.011047	10733.818854
578.365216	10826.268574
578.719330	10926.295149
579.073389	11046.574559
579.427394	11219.808770
579.781344	11361.699606
580.135239	11440.412183
580.489080	11612.600354
580.842866	11646.043368
581.196597	11911.329048
581.550273	12057.149465
581.903895	12192.234744
582.257463	12459.645270
582.610975	12477.841315
582.964434	12717.021380
583.317837	12799.388792
583.671186	12932.611365
584.024481	13147.278819
584.377721	13192.608875
584.730906	13429.346500
585.084037	13604.579529
585.437113	13689.449874
585.790135	13859.737531
586.143103	13915.898505
586.496016	14110.817239
586.848874	14291.008242
587.201679	14464.232371
587.554428	14492.188089
587.907124	14713.230083
588.259765	14819.006093
588.612352	15077.634929
588.964884	15052.434201
589.317362	15320.958823
589.669786	15471.394415
590.022155	15574.115487
590.374470	15883.362549
590.726731	15891.393107
591.078937	15896.018365
591.431090	16095.963130
591.783188	16155.486554
592.135232	16205.126796
592.487222	16458.318748
592.839157	16665.109399
593.191038	16717.489508
593.542866	16789.777134
593.894639	16733.381746
594.246358	17010.398191
594.598022	17173.078746
594.949633	17183.450920
595.301190	17329.674628
595.652692	17443.138398
596.004141	17742.277947
596.355535	17508.418820
596.706876	17647.768915
597.058162	17752.019977
597.409395	18118.466491
597.760573	18319.968972
598.111698	18312.679464
598.462768	18471.105285
598.813785	18658.540426
599.164748	18579.706862
599.515657	18925.043545
599.866511	18858.195324
600.217312	19298.557757
600.568060	18994.435028
600.918753	19490.134206
601.269392	19651.902312
601.619978	19638.843203
601.970510	19909.686755
602.320988	20157.242697
602.671412	20463.611260
603.021783	20503.280100
603.372100	20498.843885
603.722363	20717.816484
604.072572	20904.293806
604.422728	21091.103844
604.772830	21140.993623
605.122878	21345.372082
605.472872	21474.642391
605.822813	21785.253085
606.172701	21856.542562
606.522534	22141.022435
606.872314	22435.834153
607.222041	22466.035706
607.571714	22849.438141
607.921333	22688.239685
608.270899	23017.590869
608.620411	23374.469273
608.969870	23418.629781
609.319276	23561.670001
609.668627	23754.826851
610.017926	24180.277551
610.367171	24448.477018
610.716362	24650.786083
611.065500	24770.644557
611.414585	25043.887698
611.763616	25375.741815
612.112594	25485.709545
612.461518	25772.659584
612.810389	26116.168848
613.159207	26178.417016
613.507971	26373.799536
613.856682	26828.836767
614.205340	26896.158856
614.553945	27507.272731
614.902496	27292.365822
615.250994	27748.509587
615.599439	27947.380585
615.947830	28258.266023
616.296169	28432.823536
616.644454	28663.085800
616.992686	28934.178889
617.340864	29430.833366
617.688990	29385.273938
618.037063	29939.657188
618.385082	30063.132690
618.733048	30391.974717
619.080961	30547.779138
619.428821	30680.464828
619.776628	30907.588974
620.124382	30931.035380
620.472083	31147.830201
620.819731	31380.953320
621.167326	31284.148043
621.514868	31401.372513
621.862357	31223.225698
622.209793	31374.034336
622.557176	31274.219490
622.904506	31217.700594
623.251783	31093.237026
623.599007	31052.701108
623.946179	31012.303821
624.293297	31117.532867
624.640363	30794.553702
624.987376	30912.408317
625.334336	30844.014982
625.681243	30696.074761
626.028097	30797.686779
626.374899	30787.014656
626.721647	30884.717259
627.068343	30914.439902
627.414987	30845.227380
627.761577	30774.336154
628.108115	31131.418725
628.454600	30808.502574
628.801032	31057.701932
629.147412	31110.278646
629.493739	31229.690978
629.840014	31073.624417
630.186236	31423.301533
630.532405	31216.609184
630.878521	31467.164612
631.224585	31465.823665
631.570597	31323.426193
631.916556	31532.626516
632.262462	31594.680599
632.608316	31682.779803
632.954117	31696.224561
633.299866	31775.920162
633.645562	31787.726544
633.991206	31487.419968
634.336797	31233.857492
634.682336	31326.728148
635.027823	31207.149459
635.373257	31143.164613
635.718639	31037.726360
636.063968	31012.865910
636.409245	30613.437647
636.754470	30747.456722
637.099642	30615.552411
637.444762	30295.562650
637.789829	30488.018780
638.134845	30275.834094
638.479808	30318.570476
638.824719	30290.680292
639.169577	30043.174762
639.514383	30166.927527
639.859137	29974.736057
640.203839	30235.187271
640.548489	30006.951551
640.893086	30125.350611
641.237632	29972.961571
641.582125	30125.758944
