Dividing Wavelength (nm)	Counts (n)	Blue Motor Position (mm): 8.800000	Red Motor Position (mm): 0.000000	
326.493990	1978.627679
326.888308	1978.627679
327.282561	1978.627679
327.676750	1949.814964
328.070874	1952.257403
328.464933	1956.885182
328.858929	1968.502521
329.252859	1979.088944
329.646726	1994.643425
330.040528	2012.123626
330.434265	2030.745648
330.827938	2047.653678
331.221547	2068.400547
331.615091	2090.304360
332.008571	2109.659870
332.401986	2131.094856
332.795338	2151.463638
333.188625	2171.809735
333.581847	2188.932014
333.975006	2205.436752
334.368100	2224.716645
334.761129	2242.678276
335.154095	2257.927767
335.546996	2280.567588
335.939833	2314.605459
336.332606	2328.456029
336.725315	2339.901969
337.117960	2347.448577
337.510540	2355.090966
337.903056	2364.389374
338.295508	2370.143851
338.687896	2377.972763
339.080220	2384.521222
339.472480	2389.247304
339.864676	2393.512120
340.256807	2396.491442
340.648875	2400.683161
341.040879	2398.109652
341.432818	2401.151988
341.824694	2403.322205
342.216506	2400.027811
342.608253	2401.043604
342.999937	2399.155692
343.391557	2396.481359
343.783113	2398.381874
344.174605	2397.981103
344.566033	2395.026987
344.957397	2393.623025
345.348697	2389.138919
345.739934	2390.222767
346.131106	2388.864176
346.522215	2384.216232
346.913260	2381.960316
347.304241	2385.912580
347.695159	2379.396889
348.086012	2380.253885
348.476802	2376.594008
348.867528	2376.523431
349.258191	2375.127032
349.648789	2374.509490
350.039324	2373.357587
350.429796	2374.310365
350.820203	2369.909438
351.210548	2375.273225
351.600828	2371.643594
351.991045	2371.139479
352.381198	2369.942205
352.771288	2373.163502
353.161314	2369.465816
353.551276	2368.671834
353.941175	2367.295599
354.331010	2365.132944
354.720782	2366.514220
355.110490	2369.440610
355.500135	2368.656711
355.889717	2371.199973
356.279235	2368.500435
356.668689	2372.561084
357.058080	2371.925899
357.447408	2370.199304
357.836672	2368.641587
358.225873	2372.056969
358.615010	2367.391381
359.004084	2372.508152
359.393095	2372.359438
359.782043	2373.864223
360.170927	2373.965046
360.559748	2374.267515
360.948505	2375.288349
361.337199	2376.034439
361.725830	2376.394882
362.114398	2373.864223
362.502903	2376.747763
362.891344	2375.419419
363.279722	2376.016795
363.668037	2379.245654
364.056289	2377.403113
364.444478	2380.873947
364.832603	2379.664070
365.220665	2379.769934
365.608665	2378.618031
365.996601	2380.563916
366.384474	2382.860162
366.772284	2380.921838
367.160031	2380.684904
367.547715	2381.980480
367.935336	2376.772968
368.322893	2380.755480
368.710388	2382.010727
369.097820	2384.614483
369.485189	2381.877137
369.872495	2383.147507
370.259738	2383.487785
370.646918	2384.256561
371.034035	2383.066849
371.421090	2386.353681
371.808081	2383.795296
372.195010	2382.809750
372.581875	2386.646068
372.968678	2385.723537
373.355418	2383.598691
373.742096	2384.886706
374.128710	2383.001314
374.515262	2386.751932
374.901751	2385.962992
375.288177	2386.194885
375.674540	2386.759494
376.060841	2384.312014
376.447079	2387.324103
376.833254	2386.139432
377.219367	2380.321941
377.605417	2383.318907
377.991404	2381.620038
378.377329	2383.465100
378.763191	2382.749256
379.148991	2388.019783
379.534727	2388.876779
379.920402	2386.348640
380.306013	2389.564896
380.691563	2386.799823
381.077049	2389.794269
381.462474	2389.615308
381.847835	2389.418703
382.233134	2387.873589
382.618371	2389.834598
383.003545	2388.975081
383.388657	2390.331152
383.773706	2389.786707
384.158693	2390.936090
384.543618	2392.014897
384.928480	2390.016080
385.313280	2394.003632
385.698017	2392.357696
386.082692	2392.453477
386.467305	2390.215205
386.851856	2392.831564
387.236344	2393.423900
387.620770	2394.036400
388.005133	2392.251831
388.389435	2393.161760
388.773674	2392.050185
389.157851	2394.946328
389.541965	2392.680329
389.926018	2393.403735
390.310008	2392.569424
390.693936	2392.864332
391.077802	2396.138561
391.461606	2394.260731
391.845348	2396.199055
392.229027	2393.688560
392.612645	2395.667213
392.996200	2396.635115
393.379694	2395.594116
393.763125	2396.158726
394.146494	2394.477501
394.529801	2396.466236
394.913047	2393.844836
395.296230	2400.834396
395.679351	2396.809034
396.062410	2396.095711
396.445408	2398.359189
396.828343	2398.374313
397.211217	2396.619991
397.594028	2393.930536
397.976778	2394.454816
398.359466	2397.247615
398.742092	2393.960783
399.124656	2399.138048
399.507158	2397.464384
399.889598	2396.234343
400.271977	2399.042266
400.654294	2401.867832
401.036549	2399.448078
401.418742	2399.974879
401.800874	2399.564025
402.182944	2399.027142
402.564952	2403.012174
402.946898	2401.777092
403.328783	2398.389436
403.710606	2400.264745
404.092367	2399.896741
404.474067	2402.656773
404.855705	2399.624519
405.237282	2403.201218
405.618797	2402.997051
406.000250	2401.880435
406.381642	2401.134344
406.762972	2400.625188
407.144240	2401.338511
407.525447	2404.353121
407.906593	2401.499828
408.287677	2402.109808
408.668700	2403.329767
409.049661	2402.687020
409.430560	2402.984448
409.811399	2404.000240
410.192176	2402.366907
410.572891	2402.964283
410.953545	2404.854716
411.334138	2404.675755
411.714669	2405.706671
412.095139	2404.358162
412.475547	2403.052503
412.855894	2402.878584
413.236180	2403.813718
413.616405	2405.429408
413.996568	2404.743811
414.376670	2405.278173
414.756711	2404.615261
415.136691	2402.465209
415.516609	2403.594427
415.896466	2405.636095
416.276262	2406.886301
416.655997	2404.000240
417.035670	2403.743142
417.415283	2407.622309
417.794834	2398.669220
418.174324	2405.663821
418.553753	2405.071486
418.933121	2407.614748
419.312428	2407.103071
419.691674	2406.354459
420.070859	2406.485529
420.449983	2409.996693
420.829045	2407.029974
421.208047	2406.097360
421.586988	2407.040056
421.965867	2409.845458
422.344686	2409.479975
422.723444	2408.524676
423.102141	2407.213976
423.480777	2408.355797
423.859352	2406.288924
424.237866	2408.423853
424.616319	2408.426373
424.994712	2407.889491
425.373044	2408.479306
425.751314	2409.837897
426.129524	2406.795560
426.507673	2408.421332
426.885762	2409.243040
427.263789	2408.343194
427.641756	2408.433935
428.019662	2407.627351
428.397508	2410.871333
428.775292	2410.825963
429.153016	2409.888308
429.530679	2411.713206
429.908282	2407.924779
430.285824	2411.786302
430.663305	2409.767320
431.040726	2409.366549
431.418086	2410.735222
431.795385	2412.061045
432.172624	2409.563154
432.549802	2410.457958
432.926920	2411.940058
433.303977	2410.813360
433.680974	2411.622465
434.057910	2410.034502
434.434786	2408.693555
434.811601	2411.599780
435.188355	2411.370407
435.565050	2412.731519
435.941683	2413.565830
436.318257	2410.888977
436.694770	2408.479306
437.071222	2411.362846
437.447614	2406.951836
437.823946	2409.485016
438.200218	2413.515418
438.576429	2413.969122
438.952580	2411.778741
439.328670	2411.864440
439.704700	2410.460479
440.080670	2411.178843
440.456580	2411.718247
440.832429	2414.243865
441.208218	2410.871333
441.583947	2413.039029
441.959616	2414.737898
442.335224	2414.516087
442.710773	2412.476941
443.086261	2414.624472
443.461689	2413.588515
443.837057	2412.610531
444.212365	2413.316293
444.587612	2413.757394
444.962800	2415.829308
445.337927	2413.301169
445.712995	2413.200346
446.088002	2415.400810
446.462949	2415.297466
446.837837	2413.381828
447.212664	2410.110119
447.587431	2414.826118
447.962139	2413.719585
448.336786	2415.761252
448.711374	2416.855183
449.085901	2417.583629
449.460369	2414.652198
449.834776	2416.557755
450.209124	2414.223700
450.583412	2416.310738
450.957640	2414.412744
451.331808	2416.020872
451.705917	2413.855696
452.079965	2416.318300
452.453954	2414.266550
452.827883	2417.563465
453.201752	2416.005748
453.575562	2414.974832
453.949311	2414.508526
454.323001	2417.389545
454.696632	2417.203022
455.070202	2420.177303
455.443713	2417.956675
455.817164	2416.565316
456.190556	2416.285532
456.563888	2415.438618
456.937160	2412.446694
457.310373	2418.511202
457.683526	2417.475245
458.056619	2419.108578
458.429653	2420.578075
458.802628	2418.780903
459.175542	2414.422826
459.548398	2418.077662
459.921194	2418.170924
460.293930	2418.705286
460.666607	2421.296439
461.039224	2419.267375
461.411782	2422.682757
461.784280	2420.809968
462.156719	2420.878023
462.529099	2420.638569
462.901419	2423.201995
463.273680	2421.767787
463.645882	2420.754515
464.018024	2423.698549
464.390106	2421.049423
464.762130	2424.580751
465.134094	2424.931111
465.505999	2426.103179
465.877845	2427.018149
466.249631	2430.524271
466.621358	2426.272058
466.993026	2428.263314
467.364634	2430.846905
467.736184	2427.693663
468.107674	2430.249528
468.479105	2430.367996
468.850477	2428.396904
469.221790	2426.940011
469.593043	2425.873807
469.964238	2425.916657
470.335373	2423.874989
470.706449	2427.842378
471.077467	2427.938159
471.448425	2427.575196
471.819324	2430.365475
472.190164	2431.729107
472.560945	2429.884045
472.931667	2429.962183
473.302330	2428.149888
473.672934	2429.939497
474.043479	2430.040321
474.413965	2426.259455
474.784393	2422.962541
475.154761	2425.470515
475.525070	2424.452202
475.895321	2425.868766
476.265513	2424.910947
476.635645	2428.107038
477.005719	2429.344641
477.375734	2429.828592
477.745691	2427.358427
478.115588	2432.145002
478.485427	2431.540064
478.855207	2434.466454
479.224928	2432.583583
479.594591	2438.446445
479.964194	2433.357400
480.333739	2433.546443
480.703226	2431.983685
481.072653	2433.163315
481.442022	2435.779674
481.811333	2434.655497
482.180584	2436.513162
482.549777	2436.747576
482.918912	2430.793973
483.287988	2431.890424
483.657005	2434.274890
484.025964	2432.949066
484.394864	2431.671134
484.763706	2435.421752
485.132489	2434.995775
485.501213	2436.235899
485.869879	2433.443099
486.238487	2434.461412
486.607036	2432.823038
486.975527	2434.453851
487.343959	2433.163315
487.712333	2432.079467
488.080648	2435.749427
488.448905	2433.128027
488.817104	2434.232040
489.185244	2436.387133
489.553326	2438.169181
489.921350	2436.984510
490.289315	2440.450303
490.657222	2440.155396
491.025070	2440.014243
491.392861	2439.046342
491.760593	2440.102464
492.128267	2437.733121
492.495883	2433.755651
492.863440	2437.188677
493.230939	2435.699016
493.598380	2436.311516
493.965763	2430.267173
494.333088	2435.023501
494.700354	2430.395722
495.067563	2433.806063
495.434713	2429.127872
495.801805	2432.046700
496.168839	2434.660538
496.535815	2435.235230
496.902733	2436.485436
497.269593	2437.360076
497.636395	2431.897986
498.003139	2435.759510
498.369825	2434.317740
498.736453	2437.665066
499.103023	2433.949735
499.469535	2434.133737
499.835989	2437.355035
500.202385	2434.305137
500.568723	2434.501742
500.935003	2437.261773
501.301226	2437.239088
501.667390	2436.465271
502.033497	2435.351176
502.399546	2437.070210
502.765537	2433.543922
503.131470	2437.665066
503.497345	2439.860488
503.863163	2435.625919
504.228923	2436.482915
504.594625	2437.072730
504.960269	2440.803184
505.325856	2437.909562
505.691385	2440.180602
506.056856	2441.571960
506.422270	2440.324274
506.787625	2441.511466
507.152924	2443.603545
507.518164	2442.910386
507.883347	2440.238575
508.248472	2441.645057
508.613540	2446.628237
508.978550	2445.486416
509.343503	2446.729060
509.708398	2446.126642
510.073236	2450.797272
510.438016	2451.157714
510.802738	2451.364401
511.167403	2449.789041
511.532010	2451.621500
511.896561	2456.060236
512.261053	2460.559466
512.625488	2455.319187
512.989866	2456.539146
513.354186	2458.278344
513.718449	2457.005453
514.082655	2465.666155
514.446803	2460.607357
514.810894	2463.430403
515.174927	2464.594910
515.538904	2470.931640
515.902822	2470.954325
516.266684	2473.459779
516.630488	2472.633029
516.994235	2474.783082
517.357925	2478.722743
517.721558	2477.129739
518.085133	2480.421612
518.448651	2482.256592
518.812112	2483.978146
519.175516	2481.674339
519.538863	2487.552324
519.902152	2489.888899
520.265385	2491.295381
520.628560	2495.761843
520.991678	2497.427945
521.354739	2497.904334
521.717743	2499.073881
522.080690	2503.721825
522.443580	2505.902124
522.806413	2506.943123
523.169189	2510.280366
523.531908	2509.425891
523.894569	2512.871519
524.257174	2517.433764
524.619722	2516.773372
524.982213	2522.086749
525.344647	2520.869310
525.707025	2523.324352
526.069345	2523.750329
526.431608	2526.061698
526.793815	2531.609488
527.155964	2531.186031
527.518057	2533.888090
527.880093	2534.215765
528.242072	2537.648791
528.603995	2538.752803
528.965860	2541.585932
529.327669	2542.606765
529.689421	2546.372507
530.051117	2547.650440
530.412755	2547.610111
530.774337	2550.450801
531.135862	2548.141952
531.497331	2548.817467
531.858743	2551.635472
532.220098	2556.863148
532.581396	2551.290153
532.942638	2556.621173
533.303824	2559.159394
533.664953	2562.799107
534.026025	2563.058727
534.387040	2570.398647
534.747999	2569.765982
535.108902	2570.902762
535.469748	2572.271435
535.830537	2572.843606
536.191270	2577.204204
536.551947	2575.838052
536.912567	2577.415933
537.273131	2580.296952
537.633638	2577.700758
537.994089	2581.690831
538.354483	2581.199319
538.714821	2584.105544
539.075103	2588.851790
539.435328	2588.463621
539.795497	2588.375401
540.155609	2591.682398
540.515665	2592.557038
540.875665	2593.769436
541.235609	2598.833275
541.595496	2597.217585
541.955328	2600.932915
542.315102	2600.461568
542.674821	2596.229519
543.034483	2600.544747
543.394090	2601.409304
543.753640	2604.010540
544.113134	2606.155551
544.472571	2607.549430
544.831953	2610.112857
545.191278	2609.454986
545.550548	2607.897269
545.909761	2612.648557
546.268918	2617.009155
546.628019	2618.886985
546.987064	2614.289452
547.346053	2613.344236
547.704986	2615.375821
548.063863	2615.312807
548.422684	2613.949175
548.781449	2613.757611
549.140158	2617.999742
549.498811	2616.048815
549.857408	2615.955554
550.215949	2617.099896
550.574434	2618.748353
550.932864	2615.895060
551.291237	2615.668208
551.649555	2621.352109
552.007817	2623.129116
552.366022	2621.969650
552.724173	2623.413941
553.082267	2625.511061
553.440305	2627.419138
553.798288	2624.712038
554.156215	2626.297481
554.514086	2627.741772
554.871902	2622.899743
555.229661	2625.826133
555.587365	2623.514764
555.945014	2626.123561
556.302606	2621.052160
556.660143	2627.051133
557.017625	2624.661627
557.375050	2624.548201
557.732421	2625.584158
558.089735	2624.462501
558.446994	2621.689866
558.804197	2626.642800
559.161345	2625.780763
559.518437	2621.770525
559.875474	2621.873868
560.232455	2623.093828
560.589381	2623.401338
560.946251	2620.232973
561.303065	2623.618108
561.659825	2623.091307
562.016528	2622.186420
562.373177	2620.195164
562.729770	2622.965278
563.086307	2620.540483
563.442789	2621.024434
563.799216	2619.764146
564.155587	2617.916563
564.511904	2617.465379
564.868164	2618.531583
565.224370	2619.658281
565.580520	2616.726850
565.936615	2617.319186
566.292654	2616.273147
566.648638	2615.935389
567.004567	2615.882457
567.360441	2614.145780
567.716260	2614.579319
568.072023	2614.332302
568.427732	2614.007148
568.783385	2612.323402
569.138982	2610.717795
569.494525	2613.775255
569.850013	2609.182764
570.205445	2613.566047
570.560823	2611.463886
570.916145	2611.058073
571.271412	2611.688217
571.626625	2612.134359
571.981782	2611.063114
572.336884	2612.986314
572.691931	2612.187291
573.046923	2609.959101
573.401860	2609.979266
573.756743	2611.733587
574.111570	2610.755604
574.466342	2609.356683
574.821059	2612.446911
575.175722	2610.495984
575.530330	2611.680655
575.884882	2607.786364
576.239380	2611.597476
576.593823	2612.399020
576.948211	2610.001951
577.302544	2610.148145
577.656823	2610.284256
578.011047	2612.920779
578.365216	2611.970522
578.719330	2615.143928
579.073389	2616.033692
579.427394	2620.099382
579.781344	2621.127778
580.135239	2617.384721
580.489080	2619.355812
580.842866	2621.596605
581.196597	2626.282357
581.550273	2627.525002
581.903895	2627.696401
582.257463	2634.731331
582.610975	2637.866929
582.964434	2639.711991
583.317837	2638.842392
583.671186	2640.523617
584.024481	2645.428660
584.377721	2648.191212
584.730906	2648.624751
585.084037	2653.000473
585.437113	2654.003662
585.790135	2659.390135
586.143103	2659.680002
586.496016	2661.593120
586.848874	2663.289468
587.201679	2669.222906
587.554428	2669.714418
587.907124	2676.802281
588.259765	2680.252951
588.612352	2688.049095
588.964884	2689.576565
589.317362	2698.204499
589.669786	2699.547967
590.022155	2707.104657
590.374470	2713.393496
590.726731	2717.300390
591.078937	2714.043805
591.431090	2718.850545
591.783188	2724.032851
592.135232	2726.404714
592.487222	2733.041393
592.839157	2740.451889
593.191038	2744.731829
593.542866	2747.713671
593.894639	2749.324320
594.246358	2758.229518
594.598022	2763.472318
594.949633	2765.743358
595.301190	2771.903648
595.652692	2775.792898
596.004141	2784.587191
596.355535	2780.226593
596.706876	2786.991822
597.058162	2791.075156
597.409395	2803.057979
597.760573	2806.647280
598.111698	2812.248002
598.462768	2819.484579
598.813785	2826.577482
599.164748	2827.847853
599.515657	2839.800429
599.866511	2841.985769
600.217312	2858.233408
600.568060	2855.128057
600.918753	2872.693958
601.269392	2879.287787
601.619978	2882.269629
601.970510	2896.820920
602.320988	2905.131262
602.671412	2920.698345
603.021783	2924.748912
603.372100	2932.555139
603.722363	2943.665842
604.072572	2952.684466
604.422728	2963.369192
604.772830	2965.131075
605.122878	2979.720174
605.472872	2991.728203
605.822813	3006.251767
606.172701	3015.988756
606.522534	3031.848226
606.872314	3048.473951
607.222041	3055.166083
607.571714	3073.331881
607.921333	3080.162644
608.270899	3096.495983
608.620411	3113.277984
608.969870	3121.973974
609.319276	3140.195225
609.668627	3159.855725
610.017926	3179.972449
610.367171	3199.932898
610.716362	3215.908314
611.065500	3231.677043
611.414585	3248.277563
611.763616	3276.732356
612.112594	3292.808596
612.461518	3317.981597
612.810389	3340.515555
613.159207	3355.520549
613.507971	3377.915875
613.856682	3407.141965
614.205340	3424.695262
614.553945	3463.517188
614.902496	3469.828713
615.250994	3502.875997
615.599439	3529.503372
615.947830	3560.791293
616.296169	3589.614090
616.644454	3617.123667
616.992686	3649.868481
617.340864	3696.589895
617.688990	3717.296435
618.037063	3767.536574
618.385082	3797.843991
618.733048	3838.861339
619.080961	3863.671378
619.428821	3890.991911
619.776628	3924.087086
620.124382	3938.441772
620.472083	3965.197696
620.819731	3988.999503
621.167326	3996.314218
621.514868	4016.057897
621.862357	4014.129655
622.209793	4035.562121
622.557176	4035.710835
622.904506	4042.997823
623.251783	4044.217782
623.599007	4057.508784
623.946179	4070.323397
624.293297	4081.071137
624.640363	4086.087085
624.987376	4105.180456
625.334336	4119.898104
625.681243	4130.124085
626.028097	4152.032939
626.374899	4172.888193
626.721647	4198.827450
627.068343	4223.032550
627.414987	4237.891351
627.761577	4254.844752
628.108115	4300.598264
628.454600	4304.815189
628.801032	4340.665355
629.147412	4369.480590
629.493739	4403.992329
629.840014	4421.225514
630.186236	4468.370384
630.532405	4485.434690
630.878521	4528.932286
631.224585	4555.630237
631.570597	4581.488836
631.916556	4622.392758
632.262462	4653.544568
632.608316	4687.327861
632.954117	4715.041604
633.299866	4736.514399
633.645562	4759.126494
633.991206	4754.360083
634.336797	4750.155761
634.682336	4773.256848
635.027823	4775.921098
635.373257	4789.464158
635.718639	4788.644971
636.063968	4808.360923
636.409245	4790.537924
636.754470	4819.317871
637.099642	4825.500846
637.444762	4821.115042
637.789829	4859.488306
638.134845	4860.567112
638.479808	4884.683992
638.824719	4904.188217
639.169577	4904.402466
639.514383	4933.331127
639.859137	4943.209268
640.203839	4988.423377
640.548489	4988.955219
640.893086	5021.788254
641.237632	5031.079100
641.582125	5070.969751
641.926566	5087.809725
642.270955	5123.138131
642.615292	5153.158202
642.959576	5183.856309
643.303809	5216.749837
643.647990	5256.572432
643.992118	5282.826762
644.336195	5315.062420
