Dividing Wavelength (nm)	Counts (n)	Blue Motor Position (mm): 12.600000	Red Motor Position (mm): 0.000000	
326.493990	1976.301186
326.888308	1976.301186
327.282561	1976.301186
327.676750	1951.067691
328.070874	1950.959306
328.464933	1958.836109
328.858929	1966.123097
329.252859	1979.315796
329.646726	1994.560246
330.040528	2010.575991
330.434265	2029.208096
330.827938	2046.247196
331.221547	2066.033725
331.615091	2087.922415
332.008571	2108.477720
332.401986	2130.414301
332.795338	2150.067239
333.188625	2167.764209
333.581847	2187.991839
333.975006	2207.932123
334.368100	2221.860831
334.761129	2240.659294
335.154095	2254.991294
335.546996	2287.123609
335.939833	2336.617658
336.332606	2350.919411
336.725315	2361.490711
337.117960	2370.748790
337.510540	2376.014275
337.903056	2389.698487
338.295508	2394.737120
338.687896	2400.693243
339.080220	2408.829666
339.472480	2415.282343
339.864676	2414.349729
340.256807	2421.523291
340.648875	2421.304001
341.040879	2422.385328
341.432818	2424.091759
341.824694	2429.455547
342.216506	2425.326842
342.608253	2425.921698
342.999937	2424.628642
343.391557	2423.537232
343.783113	2421.770308
344.174605	2420.247879
344.566033	2418.216294
344.957397	2417.792837
345.348697	2414.778227
345.739934	2415.410892
346.131106	2410.624317
346.522215	2411.433422
346.913260	2409.840417
347.304241	2406.024264
347.695159	2402.805487
348.086012	2404.925292
348.476802	2400.189128
348.867528	2401.242729
349.258191	2401.512431
349.648789	2397.739127
350.039324	2396.315001
350.429796	2396.872049
350.820203	2393.517161
351.210548	2394.961452
351.600828	2394.898437
351.991045	2395.057233
352.381198	2393.628066
352.771288	2393.630587
353.161314	2390.895761
353.551276	2392.203940
353.941175	2389.315359
354.331010	2392.619836
354.720782	2392.435833
355.110490	2395.180742
355.500135	2392.995402
355.889717	2392.821482
356.279235	2393.123951
356.668689	2393.625546
357.058080	2393.612943
357.447408	2394.240567
357.836672	2391.059598
358.225873	2393.560011
358.615010	2393.769219
359.004084	2396.078067
359.393095	2394.646379
359.782043	2398.079405
360.170927	2399.198541
360.559748	2401.814900
360.948505	2401.088974
361.337199	2401.945970
361.725830	2400.055538
362.114398	2402.122411
362.502903	2398.460012
362.891344	2399.150650
363.279722	2399.695095
363.668037	2401.870353
364.056289	2404.280024
364.444478	2402.777761
364.832603	2404.428738
365.220665	2403.304561
365.608665	2405.305899
365.996601	2405.938564
366.384474	2403.067627
366.772284	2403.120559
367.160031	2406.785478
367.547715	2407.188770
367.935336	2406.140210
368.322893	2406.515776
368.710388	2407.075344
369.097820	2408.900242
369.485189	2407.927299
369.872495	2407.962587
370.259738	2408.048287
370.646918	2407.029974
371.034035	2407.269429
371.421090	2406.911507
371.808081	2407.808832
372.195010	2408.025602
372.581875	2407.859244
372.968678	2408.696075
373.355418	2409.961405
373.742096	2409.159861
374.128710	2411.297311
374.515262	2409.215314
374.901751	2410.962074
375.288177	2411.740932
375.674540	2410.684810
376.060841	2410.112639
376.447079	2410.200860
376.833254	2410.082392
377.219367	2406.810684
377.605417	2412.698751
377.991404	2404.832031
378.377329	2411.153638
378.763191	2408.456620
379.148991	2415.529359
379.534727	2414.080027
379.920402	2415.279822
380.306013	2413.041550
380.691563	2413.129770
381.077049	2411.889646
381.462474	2417.349216
381.847835	2413.396951
382.233134	2415.932652
382.618371	2414.742939
383.003545	2416.366191
383.388657	2416.288053
383.773706	2418.876685
384.158693	2414.926941
384.543618	2416.656057
384.928480	2418.773342
385.313280	2416.530028
385.698017	2417.470203
386.082692	2419.353074
386.467305	2418.238979
386.851856	2419.579926
387.236344	2420.552869
387.620770	2420.368867
388.005133	2416.020872
388.389435	2415.587333
388.773674	2418.990111
389.157851	2421.339289
389.541965	2416.277971
389.926018	2421.414906
390.310008	2418.357447
390.693936	2420.424320
391.077802	2417.858372
391.461606	2421.044382
391.845348	2420.799886
392.229027	2419.920204
392.612645	2420.915832
392.996200	2423.267530
393.379694	2424.001018
393.763125	2417.908784
394.146494	2425.231060
394.529801	2423.227201
394.913047	2426.256935
395.296230	2420.240318
395.679351	2424.532860
396.062410	2421.621594
396.445408	2423.943045
396.828343	2423.822057
397.211217	2418.803589
397.594028	2421.266192
397.976778	2418.659916
398.359466	2424.870617
398.742092	2418.904412
399.124656	2425.730134
399.507158	2423.123857
399.889598	2426.453540
400.271977	2425.725093
400.654294	2425.752819
401.036549	2427.333221
401.418742	2424.006059
401.800874	2427.161822
402.182944	2427.000505
402.564952	2427.429003
402.946898	2423.638055
403.328783	2426.372881
403.710606	2425.954465
404.092367	2428.273396
404.474067	2425.538570
404.855705	2428.291040
405.237282	2427.340783
405.618797	2428.202820
406.000250	2427.996133
406.381642	2427.426482
406.762972	2429.621905
407.144240	2429.526123
407.525447	2431.724066
407.906593	2429.863880
408.287677	2430.972934
408.668700	2429.422779
409.049661	2429.233736
409.430560	2431.930753
409.811399	2432.623912
410.192176	2430.988058
410.572891	2433.259097
410.953545	2432.835640
411.334138	2432.407142
411.714669	2433.710281
412.095139	2431.648449
412.475547	2430.715835
412.855894	2430.851946
413.236180	2431.406473
413.616405	2432.835640
413.996568	2434.647935
414.376670	2434.012750
414.756711	2432.245825
415.136691	2433.478387
415.516609	2431.003181
415.896466	2435.661207
416.276262	2433.843871
416.655997	2433.349838
417.035670	2428.154929
417.415283	2433.712801
417.794834	2428.409507
418.174324	2435.517534
418.553753	2434.025353
418.933121	2432.903696
419.312428	2431.832451
419.691674	2431.648449
420.070859	2436.669438
420.449983	2435.348656
420.829045	2436.372010
421.208047	2434.973090
421.586988	2433.329673
421.965867	2436.538368
422.344686	2437.755807
422.723444	2437.569284
423.102141	2433.818665
423.480777	2436.742535
423.859352	2435.028542
424.237866	2438.035591
424.616319	2436.397216
424.994712	2435.227668
425.373044	2435.436876
425.751314	2434.448810
426.129524	2436.742535
426.507673	2436.210693
426.885762	2436.147678
427.263789	2437.138265
427.641756	2437.246650
428.019662	2438.403595
428.397508	2435.204983
428.775292	2436.351845
429.153016	2442.449121
429.530679	2440.450303
429.908282	2436.291351
430.285824	2438.164140
430.663305	2437.997782
431.040726	2434.337904
431.418086	2436.548450
431.795385	2437.942329
432.172624	2435.714139
432.549802	2436.911413
432.926920	2438.398554
433.303977	2436.508121
433.680974	2440.621703
434.057910	2438.343101
434.434786	2438.655653
434.811601	2437.289500
435.188355	2441.859306
435.565050	2440.031888
435.941683	2440.031887
436.318257	2440.596497
436.694770	2436.780343
437.071222	2436.619026
437.447614	2435.963676
437.823946	2439.099274
438.200218	2438.814449
438.576429	2439.535334
438.952580	2441.045159
439.328670	2439.063986
439.704700	2442.340736
440.080670	2442.877619
440.456580	2440.654470
440.832429	2441.839141
441.208218	2441.745880
441.583947	2442.749069
441.959616	2445.040274
442.335224	2441.758483
442.710773	2440.755293
443.086261	2444.016920
443.461689	2442.965839
443.837057	2444.339553
444.212365	2441.198915
444.587612	2444.629420
444.962800	2443.941302
445.337927	2443.512804
445.712995	2442.645726
446.088002	2446.144287
446.462949	2443.243103
446.837837	2442.875098
447.212664	2444.929368
447.587431	2446.575305
447.962139	2448.869030
448.336786	2448.773248
448.711374	2449.050512
449.085901	2446.625717
449.460369	2448.929524
449.834776	2447.598659
450.209124	2445.660336
450.583412	2450.996397
450.957640	2448.722837
451.331808	2449.945317
451.705917	2444.901642
452.079965	2450.540173
452.453954	2451.195523
452.827883	2450.197374
453.201752	2448.342230
453.575562	2449.370625
453.949311	2450.295677
454.323001	2450.272992
454.696632	2451.137549
455.070202	2451.848352
455.443713	2454.583178
455.817164	2448.100254
456.190556	2449.552107
456.563888	2451.913887
456.937160	2449.143773
457.310373	2453.277519
457.683526	2453.711058
458.056619	2453.464042
458.429653	2454.505040
458.802628	2456.125771
459.175542	2454.260544
459.548398	2460.677933
459.921194	2458.666513
460.293930	2459.314301
460.666607	2464.000053
461.039224	2462.706997
461.411782	2463.001905
461.784280	2462.452419
462.156719	2463.594241
462.529099	2461.993674
462.901419	2461.234981
463.273680	2462.664148
463.645882	2459.296657
464.018024	2462.752368
464.390106	2463.130454
464.762130	2466.966772
465.134094	2465.961062
465.505999	2471.506332
465.877845	2478.495891
466.249631	2476.875160
466.621358	2477.356591
466.993026	2475.312403
467.364634	2478.034626
467.736184	2472.406178
468.107674	2470.326702
468.479105	2475.098154
468.850477	2469.872998
469.221790	2468.726135
469.593043	2468.196814
469.964238	2467.705302
470.335373	2466.732359
470.706449	2470.281331
471.077467	2472.355766
471.448425	2474.659573
471.819324	2480.025882
472.190164	2479.229379
472.560945	2473.626137
472.931667	2476.640747
473.302330	2471.327371
473.672934	2470.883749
474.043479	2470.326702
474.413965	2468.970631
474.784393	2469.588173
475.154761	2472.784264
475.525070	2465.814869
475.895321	2470.024232
476.265513	2468.698409
476.635645	2473.152268
477.005719	2470.419963
477.375734	2474.800726
477.745691	2476.849955
478.115588	2475.811477
478.485427	2479.549492
478.855207	2481.807929
479.224928	2482.362456
479.594591	2486.118116
479.964194	2484.028558
480.333739	2485.195585
480.703226	2482.022178
481.072653	2487.625421
481.442022	2486.707931
481.811333	2487.451501
482.180584	2487.953096
482.549777	2485.069556
482.918912	2484.552838
483.287988	2486.380256
483.657005	2483.872282
484.025964	2486.919659
484.394864	2485.538383
484.763706	2487.842191
485.132489	2486.899495
485.501213	2488.326141
485.869879	2486.274392
486.238487	2490.992912
486.607036	2486.221460
486.975527	2489.601553
487.343959	2489.324290
487.712333	2491.469301
488.080648	2491.683550
488.448905	2492.351503
488.817104	2491.774291
489.185244	2494.582213
489.553326	2498.451299
489.921350	2503.996568
490.289315	2511.402023
490.657222	2512.531242
491.025070	2514.996366
491.392861	2515.399658
491.760593	2517.262364
492.128267	2512.821108
492.495883	2510.963443
492.863440	2512.957219
493.230939	2512.198525
493.598380	2511.669204
493.965763	2509.067969
494.333088	2512.783299
494.700354	2510.829852
495.067563	2514.214987
495.434713	2514.462003
495.801805	2520.823940
496.168839	2520.571882
496.535815	2521.607839
496.902733	2526.487676
497.269593	2529.051103
497.636395	2530.538243
498.003139	2531.261649
498.369825	2534.724921
498.736453	2537.263142
499.103023	2534.445137
499.469535	2537.535365
499.835989	2542.447969
500.202385	2544.479554
500.568723	2546.700182
500.935003	2552.366439
501.301226	2551.426264
501.667390	2556.258210
502.033497	2562.350444
502.399546	2561.178376
502.765537	2560.913716
503.131470	2565.836402
503.497345	2570.464182
503.863163	2570.320509
504.228923	2569.597103
504.594625	2579.833166
504.960269	2578.169585
505.325856	2584.413054
505.691385	2582.812488
506.056856	2590.906060
506.422270	2591.755495
506.787625	2593.572831
507.152924	2600.290168
507.518164	2602.946856
507.883347	2602.316712
508.248472	2603.592124
508.613540	2609.780140
508.978550	2615.585029
509.343503	2615.617797
509.708398	2623.144239
510.073236	2625.732872
510.438016	2629.044910
510.802738	2626.534415
511.167403	2634.358286
511.532010	2638.302989
511.896561	2644.548978
512.261053	2650.719351
512.625488	2646.956129
512.989866	2650.064001
513.354186	2653.275216
513.718449	2653.068528
514.082655	2663.007163
514.446803	2667.030004
514.810894	2672.469409
515.174927	2676.063752
515.538904	2678.249092
515.902822	2681.941737
516.266684	2683.451563
516.630488	2686.382994
516.994235	2689.258972
517.357925	2694.312729
517.721558	2700.399922
518.085133	2706.449307
518.448651	2706.381251
518.812112	2706.880325
519.175516	2710.593135
519.538863	2716.221583
519.902152	2717.376007
520.265385	2719.866337
520.628560	2726.802965
520.991678	2727.198696
521.354739	2731.004767
521.717743	2738.221179
522.080690	2735.327556
522.443580	2743.650501
522.806413	2746.397930
523.169189	2749.651995
523.531908	2753.168200
523.894569	2751.678539
524.257174	2758.889909
524.619722	2762.383429
524.982213	2764.117586
525.344647	2763.684047
525.707025	2770.373658
526.069345	2773.829369
526.431608	2773.047990
526.793815	2782.381686
527.155964	2776.314658
527.518057	2783.609207
527.880093	2785.257665
528.242072	2789.716565
528.603995	2790.455094
528.965860	2793.245373
529.327669	2793.941052
529.689421	2795.823923
530.051117	2800.665951
530.412755	2801.220478
530.774337	2806.243988
531.135862	2802.682413
531.497331	2805.966725
531.858743	2807.849596
532.220098	2813.122642
532.581396	2812.797488
532.942638	2813.525935
533.303824	2818.312510
533.664953	2821.710248
534.026025	2822.710917
534.387040	2829.113182
534.747999	2831.167453
535.108902	2834.030828
535.469748	2829.251814
535.830537	2836.770695
536.191270	2841.826972
536.551947	2840.710357
536.912567	2844.034998
537.273131	2850.470031
537.633638	2849.431553
537.994089	2854.578571
538.354483	2851.674867
538.714821	2861.187524
539.075103	2867.398225
539.435328	2869.986858
539.795497	2870.138092
540.155609	2877.455327
540.515665	2883.383724
540.875665	2880.142262
541.235609	2888.634086
541.595496	2894.136505
541.955328	2901.582290
542.315102	2901.231929
542.674821	2903.089595
543.034483	2907.805594
543.394090	2910.820204
543.753640	2914.858168
544.113134	2929.164963
544.472571	2926.243614
544.831953	2944.931172
545.191278	2942.261881
545.550548	2945.359670
545.909761	2956.790486
546.268918	2966.688792
546.628019	2977.063486
546.987064	2977.093733
547.346053	2976.108188
547.704986	2991.529077
548.063863	2994.788183
548.422684	3004.953670
548.781449	3011.970956
549.140158	3024.775487
549.498811	3036.216385
549.857408	3036.120603
550.215949	3054.278840
550.574434	3059.284705
550.932864	3072.258115
551.291237	3089.365270
551.649555	3099.298864
552.007817	3113.996348
552.366022	3120.622945
552.724173	3136.154740
553.082267	3153.287101
553.440305	3175.679907
553.798288	3176.942716
554.156215	3199.436344
554.514086	3218.963253
554.871902	3229.748802
555.229661	3247.786051
555.587365	3261.674429
555.945014	3283.948768
556.302606	3300.246818
556.660143	3325.150118
557.017625	3347.943695
557.375050	3365.224771
557.732421	3394.675191
558.089735	3414.592790
558.446994	3435.294288
558.804197	3471.951039
559.161345	3495.334431
559.518437	3501.719052
559.875474	3530.761139
560.232455	3565.454360
560.589381	3595.033330
560.946251	3620.042495
561.303065	3662.471366
561.659825	3686.464738
562.016528	3708.366031
562.373177	3736.961976
562.729770	3777.729787
563.086307	3800.228457
563.442789	3849.795602
563.799216	3888.360429
564.155587	3916.752207
564.511904	3960.504381
564.868164	4000.158097
565.224370	4049.561405
565.580520	4085.167075
565.936615	4134.658603
566.292654	4168.729241
566.648638	4223.660174
567.004567	4270.288326
567.360441	4322.691121
567.716260	4364.590671
568.072023	4428.756998
568.427732	4481.366479
568.783385	4517.173795
569.138982	4582.116459
569.494525	4646.204648
569.850013	4689.006565
570.205445	4748.517386
570.560823	4809.603568
570.916145	4867.544069
571.271412	4928.910035
571.626625	4978.141944
571.981782	5049.368406
572.336884	5094.146455
572.691931	5178.283313
573.046923	5228.034460
573.401860	5283.603099
573.756743	5355.568091
574.111570	5426.408905
574.466342	5496.332230
574.821059	5566.958795
575.175722	5605.697542
575.530330	5681.955076
575.884882	5738.753757
576.239380	5807.595753
576.593823	5884.279265
576.948211	5952.647394
577.302544	6001.632286
577.656823	6077.872176
578.011047	6181.838412
578.365216	6242.622125
578.719330	6305.097144
579.073389	6379.832250
579.427394	6480.652806
579.781344	6558.969652
580.135239	6614.026614
580.489080	6716.271296
580.842866	6752.063488
581.196597	6893.243522
581.550273	6984.632080
581.903895	7070.475368
582.257463	7219.610343
582.610975	7252.118223
582.964434	7384.463635
583.317837	7440.669980
583.671186	7524.287599
584.024481	7658.374730
584.377721	7690.403701
584.730906	7828.511151
585.084037	7929.959331
585.437113	7991.103486
585.790135	8094.958817
586.143103	8150.998804
586.496016	8266.479036
586.848874	8374.266467
587.201679	8489.804672
587.554428	8523.129219
587.907124	8659.499993
588.259765	8738.275583
588.612352	8887.798727
588.964884	8913.206142
589.317362	9062.769615
589.669786	9164.623608
590.022155	9241.521369
590.374470	9419.075848
590.726731	9444.994941
591.078937	9468.920257
591.431090	9596.655534
591.783188	9642.703953
592.135232	9693.443167
592.487222	9850.490233
592.839157	9981.280449
593.191038	10024.047077
593.542866	10092.997459
593.894639	10092.591646
594.246358	10255.751111
594.598022	10363.677174
594.949633	10400.505323
595.301190	10493.817081
595.652692	10578.735317
596.004141	10757.502194
596.355535	10651.577470
596.706876	10759.485888
597.058162	10830.873668
597.409395	11051.313243
597.760573	11181.390136
598.111698	11210.459950
598.462768	11310.047944
598.813785	11444.556011
599.164748	11433.341964
599.515657	11646.749130
599.866511	11646.098821
600.217312	11902.358315
600.568060	11774.857452
600.918753	12077.167887
601.269392	12195.279601
601.619978	12224.024260
601.970510	12407.033268
602.320988	12574.749936
602.671412	12785.202985
603.021783	12850.059950
603.372100	12877.675391
603.722363	13036.159186
604.072572	13185.140405
604.422728	13325.972600
604.772830	13387.527609
605.122878	13548.703379
605.472872	13648.863545
605.822813	13857.761398
606.172701	13955.736223
606.522534	14149.709741
606.872314	14365.264438
607.222041	14426.832050
607.571714	14677.639536
607.921333	14629.970386
608.270899	14864.752044
608.620411	15115.693120
608.969870	15183.294993
609.319276	15314.914479
609.668627	15469.478777
610.017926	15774.423214
610.367171	15979.325953
610.716362	16146.472971
611.065500	16279.319977
611.414585	16480.734238
611.763616	16756.286228
612.112594	16859.057711
612.461518	17088.135303
612.810389	17349.851847
613.159207	17446.702494
613.507971	17624.685472
613.856682	17976.966344
614.205340	18077.045851
614.553945	18514.600360
614.902496	18438.806612
615.250994	18781.111041
615.599439	18971.908632
615.947830	19213.889057
616.296169	19390.301716
616.644454	19611.462176
616.992686	19831.599282
617.340864	20236.696323
617.688990	20258.771536
618.037063	20688.963440
618.385082	20834.652786
618.733048	21121.708689
619.080961	21287.991149
619.428821	21437.295002
619.776628	21641.572638
620.124382	21693.902336
620.472083	21903.712638
620.819731	22102.074481
621.167326	22080.561357
621.514868	22210.880225
621.862357	22129.019448
622.209793	22276.364813
622.557176	22250.140731
622.904506	22252.673911
623.251783	22204.689688
623.599007	22232.143812
623.946179	22251.645515
624.293297	22356.667873
624.640363	22176.275224
624.987376	22307.372950
625.334336	22319.123880
625.681243	22259.623141
626.028097	22370.392415
626.374899	22424.935179
626.721647	22536.909288
627.068343	22619.679993
627.414987	22616.476340
627.761577	22624.065797
628.108115	22935.248662
628.454600	22751.596907
628.801032	22980.238439
629.147412	23090.929575
629.493739	23218.314492
629.840014	23138.336586
630.186236	23459.155617
630.532405	23372.946845
630.878521	23614.241673
631.224585	23669.931300
631.570597	23610.995170
631.916556	23822.685823
632.262462	23915.105297
632.608316	24035.150293
632.954117	24087.608540
633.299866	24191.032853
633.645562	24258.521300
633.991206	24070.579523
634.336797	23924.607872
634.682336	24023.671586
635.027823	23993.636391
635.373257	23994.430373
635.718639	23946.783908
636.063968	23972.050171
636.409245	23706.756929
636.754470	23846.069215
637.099642	23798.594149
637.444762	23597.048818
637.789829	23788.211893
638.134845	23676.792310
638.479808	23732.613007
638.824719	23767.528038
639.169577	23613.455253
639.514383	23751.439196
639.859137	23641.421054
640.203839	23907.886364
640.548489	23748.074226
640.893086	23888.530854
641.237632	23822.469054
641.582125	23991.274611
641.926566	24042.578433
642.270955	24103.296611
