Dividing Wavelength (nm)	Counts (n)	Blue Motor Position (mm): 44.400000	Red Motor Position (mm): 0.000000	
326.493990	1973.344550
326.888308	1973.344550
327.282561	1973.344550
327.676750	1950.213215
328.070874	1951.677670
328.464933	1958.382405
328.858929	1965.515638
329.252859	1978.297483
329.646726	1993.705770
330.040528	2010.200425
330.434265	2028.777077
330.827938	2045.788451
331.221547	2063.377037
331.615091	2088.774370
332.008571	2107.842534
332.401986	2129.103601
332.795338	2150.422640
333.188625	2172.207987
333.581847	2187.606191
333.975006	2207.493543
334.368100	2224.083980
334.761129	2240.306413
335.154095	2256.513723
335.546996	2299.424024
335.939833	2384.427961
336.332606	2396.940104
336.725315	2409.623647
337.117960	2419.002714
337.510540	2425.669640
337.903056	2436.941660
338.295508	2439.414346
338.687896	2449.562189
339.080220	2457.035699
339.472480	2459.964610
339.864676	2461.466874
340.256807	2467.183542
340.648875	2465.918213
341.040879	2469.343677
341.432818	2473.502628
341.824694	2470.442648
342.216506	2470.356948
342.608253	2474.510859
342.999937	2471.408029
343.391557	2468.209417
343.783113	2470.160343
344.174605	2466.107256
344.566033	2465.154478
344.957397	2467.135651
345.348697	2462.482666
345.739934	2462.233129
346.131106	2458.787500
346.522215	2457.431430
346.913260	2455.273816
347.304241	2454.131995
347.695159	2454.341203
348.086012	2452.317179
348.476802	2453.244752
348.867528	2449.224432
349.258191	2448.992538
349.648789	2445.471292
350.039324	2447.023968
350.429796	2446.696293
350.820203	2444.878957
351.210548	2442.252516
351.600828	2440.974583
351.991045	2445.070521
352.381198	2443.583380
352.771288	2442.875098
353.161314	2441.425767
353.551276	2440.170519
353.941175	2438.083482
354.331010	2443.621189
354.720782	2443.805191
355.110490	2444.652105
355.500135	2440.848554
355.889717	2444.568926
356.279235	2440.160437
356.668689	2444.513473
357.058080	2442.499532
357.447408	2442.625561
357.836672	2444.200922
358.225873	2446.834925
358.615010	2443.505242
359.004084	2452.478496
359.393095	2449.307611
359.782043	2447.381890
360.170927	2449.733588
360.559748	2450.535132
360.948505	2450.227621
361.337199	2454.401697
361.725830	2454.144598
362.114398	2454.915894
362.502903	2457.837243
362.891344	2457.615432
363.279722	2457.164249
363.668037	2456.604681
364.056289	2456.912191
364.444478	2459.314301
364.832603	2458.399332
365.220665	2459.674743
365.608665	2460.231791
365.996601	2459.427727
366.384474	2462.966617
366.772284	2464.468881
367.160031	2464.743624
367.547715	2464.045424
367.935336	2464.945270
368.322893	2466.722277
368.710388	2464.249591
369.097820	2468.030456
369.485189	2468.751341
369.872495	2471.128245
370.259738	2470.084726
370.646918	2470.750158
371.034035	2469.779736
371.421090	2474.261322
371.808081	2472.075982
372.195010	2473.469861
372.581875	2472.895169
372.968678	2476.534883
373.355418	2478.679893
373.742096	2477.883391
374.128710	2481.129894
374.515262	2481.180306
374.901751	2483.453866
375.288177	2483.577374
375.674540	2482.675008
376.060841	2483.595018
376.447079	2484.721716
376.833254	2487.312869
377.219367	2481.681901
377.605417	2489.508292
377.991404	2485.356902
378.377329	2488.623569
378.763191	2487.958137
379.148991	2494.617501
379.534727	2497.652276
379.920402	2500.273676
380.306013	2502.459016
380.691563	2506.905314
381.077049	2512.929493
381.462474	2514.973681
381.847835	2520.357633
382.233134	2529.855167
382.618371	2536.811959
383.003545	2549.765204
383.388657	2563.835064
383.773706	2580.317117
384.158693	2595.682554
384.543618	2615.345574
384.928480	2636.594038
385.313280	2661.855260
385.698017	2693.032276
386.082692	2727.226422
386.467305	2755.126688
386.851856	2798.581434
387.236344	2852.247037
387.620770	2891.308418
388.005133	2945.273970
388.389435	3004.961232
388.773674	3062.740416
389.157851	3129.863380
389.541965	3198.629759
389.926018	3248.582553
390.310008	3339.701409
390.693936	3419.820467
391.077802	3504.418590
391.461606	3594.380501
391.845348	3688.009851
392.229027	3787.030716
392.612645	3923.567847
392.996200	4030.609187
393.379694	4160.678518
393.763125	4317.750790
394.146494	4429.800516
394.529801	4563.194488
394.913047	4744.184514
395.296230	4818.317202
395.679351	4925.287966
396.062410	5127.821363
396.445408	5156.601310
396.828343	5319.397812
397.211217	5468.636131
397.594028	5493.388196
397.976778	5684.750396
398.359466	5863.729002
398.742092	5936.881185
399.124656	6113.997084
399.507158	6314.526622
399.889598	6418.770122
400.271977	6641.417723
400.654294	6751.899651
401.036549	6967.787064
401.418742	7077.071718
401.800874	7380.387862
402.182944	7528.801952
402.564952	7894.010863
402.946898	7843.843821
403.328783	7969.441648
403.710606	8202.773975
404.092367	8494.492945
404.474067	8866.653607
404.855705	8777.251264
405.237282	8808.385430
405.618797	9243.411801
406.000250	9529.910657
406.381642	9913.524820
406.762972	9942.700498
407.144240	9833.509106
407.525447	10124.872675
407.906593	10135.943049
408.287677	10428.584550
408.668700	10617.158992
409.049661	10647.670576
409.430560	10848.890752
409.811399	10866.396159
410.192176	11066.509802
410.572891	11185.483553
410.953545	11683.504183
411.334138	11230.851417
411.714669	11820.414359
412.095139	11211.286699
412.475547	11713.012577
412.855894	11595.800709
413.236180	11929.464599
413.616405	11654.023515
413.996568	11945.465222
414.376670	11929.320927
414.756711	11834.096051
415.136691	12124.196811
415.516609	12308.960140
415.896466	12386.021739
416.276262	12685.791432
416.655997	13134.718784
417.035670	13181.500692
417.415283	13820.484586
417.794834	13926.868056
418.174324	13684.320500
418.553753	13581.836363
418.933121	14070.878698
419.312428	13886.138053
419.691674	13806.999500
420.070859	14256.955248
420.449983	13924.909567
420.829045	14465.112052
421.208047	14227.845105
421.586988	14670.135779
421.965867	14921.873358
422.344686	14917.384210
422.723444	15473.405836
423.102141	14196.990723
423.480777	15360.050450
423.859352	14878.542120
424.237866	15972.593492
424.616319	15671.676937
424.994712	16318.474619
425.373044	16118.393744
425.751314	16783.190866
426.129524	15927.281081
426.507673	17000.313362
426.885762	16712.075309
427.263789	16879.996143
427.641756	17057.948874
428.019662	17121.180067
428.397508	17162.691448
428.775292	17449.102083
429.153016	17413.319973
429.530679	17497.524887
429.908282	17521.470368
430.285824	17238.061739
430.663305	17945.701108
431.040726	17548.727886
431.418086	17374.568624
431.795385	18016.531840
432.172624	18443.089073
432.549802	17984.460019
432.926920	18186.398560
433.303977	18053.634732
433.680974	18313.780956
434.057910	18609.464793
434.434786	18636.757600
434.811601	18536.423515
435.188355	19572.284849
435.565050	19222.829544
435.941683	19167.782664
436.318257	20035.566887
436.694770	19849.192909
437.071222	20429.023904
437.447614	19525.452530
437.823946	19546.519512
438.200218	19699.359734
438.576429	19479.585591
438.952580	19747.351519
439.328670	19711.435818
439.704700	20122.373036
440.080670	19695.795639
440.456580	20288.476535
440.832429	20446.942685
441.208218	19454.604153
441.583947	19895.034642
441.959616	20005.997999
442.335224	20233.802701
442.710773	20366.616940
443.086261	20886.029706
443.461689	20261.062740
443.837057	20399.157588
444.212365	21024.177486
444.587612	21021.883761
444.962800	20606.008733
445.337927	21021.062053
445.712995	19784.688825
446.088002	21593.144794
446.462949	21776.113473
446.837837	21943.071447
447.212664	21908.206827
447.587431	24681.461504
447.962139	27562.236432
448.336786	29940.683063
448.711374	28427.656353
449.085901	24796.457785
449.460369	24722.995571
449.834776	24626.913699
450.209124	27067.910968
450.583412	26631.909133
450.957640	27166.715062
451.331808	25833.869274
451.705917	24487.745086
452.079965	24495.954605
452.453954	24873.491657
452.827883	24755.347176
453.201752	24562.424739
453.575562	24715.547266
453.949311	25814.559134
454.323001	25872.635747
454.696632	25640.273843
455.070202	27152.988001
455.443713	27310.430797
455.817164	27876.653197
456.190556	28424.548482
456.563888	27871.972486
456.937160	28316.985383
457.310373	26659.693453
457.683526	27093.819978
458.056619	27070.038335
458.429653	27012.816197
458.802628	27565.296412
459.175542	27685.323764
459.548398	28978.147833
459.921194	30525.517403
460.293930	31204.104602
460.666607	33203.859756
461.039224	34950.942198
461.411782	35338.808575
461.784280	34134.948269
462.156719	33661.372194
462.529099	33106.799901
462.901419	31817.759218
463.273680	30772.818767
463.645882	30861.885873
464.018024	30825.176191
464.390106	31641.754893
464.762130	34298.102692
465.134094	38306.329157
465.505999	43573.921551
465.877845	48156.332918
466.249631	49329.916054
466.621358	47585.956607
466.993026	45481.494167
467.364634	43388.921288
467.736184	41429.036619
468.107674	40206.075381
468.479105	39431.527298
468.850477	38752.599822
469.221790	37325.456729
469.593043	35611.159432
469.964238	34732.342644
470.335373	34652.546219
470.706449	36296.965563
471.077467	38809.249788
471.448425	43360.791649
471.819324	46217.583287
472.190164	44446.860354
472.560945	40892.249516
472.931667	37807.433887
473.302330	36709.571402
473.672934	35888.949694
474.043479	36390.998206
474.413965	35597.119818
474.784393	35242.784676
475.154761	36113.699456
475.525070	36138.171737
475.895321	35688.609199
476.265513	36283.268748
476.635645	37240.956909
477.005719	37069.638336
477.375734	37523.115331
477.745691	38206.254691
478.115588	39511.064103
478.485427	41464.160858
478.855207	44789.903312
479.224928	47409.314577
479.594591	49034.320437
479.964194	48039.720947
480.333739	48176.268161
480.703226	48182.718317
481.072653	48813.086879
481.442022	49320.995732
481.811333	49608.044073
482.180584	48304.096699
482.549777	47781.442471
482.918912	47266.009696
483.287988	46971.787793
483.657005	46148.441341
484.025964	45520.616041
484.394864	45523.560075
484.763706	45096.511330
485.132489	44232.157612
485.501213	44062.235439
485.869879	44229.165687
486.238487	43806.069207
486.607036	44014.049570
486.975527	43479.838497
487.343959	43685.920866
487.712333	43761.454995
488.080648	43671.548537
488.448905	44119.974295
488.817104	43928.342393
489.185244	44875.149223
489.553326	46528.511574
489.921350	49230.270087
490.289315	52148.205879
490.657222	52800.516063
491.025070	53081.983847
491.392861	52180.718801
491.760593	50929.950558
492.128267	49232.110108
492.495883	47703.632262
492.863440	46322.943402
493.230939	44981.338608
493.598380	43905.107715
493.965763	43559.864294
494.333088	42779.977629
494.700354	42294.764051
495.067563	42014.952286
495.434713	41885.049313
495.801805	41967.875471
496.168839	41586.791967
496.535815	41262.575198
496.902733	41288.849692
497.269593	40891.238765
497.636395	40819.311582
498.003139	41222.069527
498.369825	40693.552437
498.736453	40993.622079
499.103023	40530.322396
499.469535	40410.163974
499.835989	40501.345844
500.202385	40170.520123
500.568723	40182.213079
500.935003	40386.410057
501.301226	40176.413232
501.667390	40783.141303
502.033497	41047.280120
502.399546	40476.366927
502.765537	39809.737345
503.131470	40184.998317
503.497345	40530.637468
503.863163	39211.823731
504.228923	39817.684724
504.594625	40214.773892
504.960269	39510.615440
505.325856	40184.216938
505.691385	39558.201412
506.056856	39704.692302
506.422270	40137.654320
506.787625	39707.124658
507.152924	39895.116847
507.518164	40004.766984
507.883347	39226.122964
508.248472	39473.691509
508.613540	39925.172206
508.978550	40233.264844
509.343503	40000.134164
509.708398	40178.013798
510.073236	40703.531401
510.438016	40706.651875
510.802738	40156.488071
511.167403	40766.865937
511.532010	41011.165294
511.896561	41321.473519
512.261053	42137.391831
512.625488	41697.132742
512.989866	41562.521331
513.354186	41403.067115
513.718449	41403.120047
514.082655	42074.732809
514.446803	41748.282809
514.810894	42259.919596
515.174927	42186.346476
515.538904	42092.114707
515.902822	42772.294911
516.266684	42214.355127
516.630488	42620.904020
516.994235	42468.721667
517.357925	43059.640680
517.721558	43217.259917
518.085133	43527.064026
518.448651	43666.081405
518.812112	43448.091831
519.175516	43551.342223
519.538863	43881.724323
519.902152	43858.572824
520.265385	44307.444724
520.628560	44357.442888
520.991678	44143.866843
521.354739	44398.253549
521.717743	44693.466039
522.080690	44604.250218
522.443580	45156.818653
522.806413	45208.538371
523.169189	45146.882539
523.531908	45332.691908
523.894569	45197.203337
524.257174	45377.119597
524.619722	45660.928997
524.982213	45635.700542
525.344647	45564.917701
525.707025	45622.631351
526.069345	46012.191556
526.431608	45932.377487
526.793815	46251.192659
527.155964	45784.706968
527.518057	45952.595035
527.880093	45732.344503
528.242072	46262.467200
528.603995	45973.881307
528.965860	45977.768037
529.327669	46063.959164
529.689421	45957.951261
530.051117	45908.709270
530.412755	46054.582618
530.774337	46118.433873
531.135862	45925.342557
531.497331	46139.359702
531.858743	46027.451128
532.220098	46379.227885
532.581396	46095.042919
532.942638	45751.175733
533.303824	46043.121555
533.664953	45994.202198
534.026025	45725.788482
534.387040	46200.758436
534.747999	46150.266239
535.108902	46321.683114
535.469748	45834.379977
535.830537	45964.799668
536.191270	46127.828063
536.551947	45804.249001
536.912567	46095.892353
537.273131	46206.467542
537.633638	45696.254882
537.994089	46053.254274
538.354483	45636.093752
538.714821	46197.428754
539.075103	46552.704071
539.435328	46313.045097
539.795497	46183.391661
540.155609	46177.801021
540.515665	46651.568660
540.875665	46104.689167
541.235609	46410.684685
541.595496	46393.680873
541.955328	47067.211794
542.315102	46439.588140
542.674821	46218.483133
543.034483	46259.276150
543.394090	46216.060858
543.753640	46183.686568
544.113134	47178.538115
544.472571	46208.809158
544.831953	47442.301367
545.191278	46648.778381
545.550548	46359.839607
545.909761	46830.544745
546.268918	47036.463276
546.628019	47349.503807
546.987064	46900.180723
547.346053	46181.622216
547.704986	47062.021926
548.063863	46628.603683
548.422684	46813.944225
548.781449	46673.729572
549.140158	47061.381700
549.498811	46900.246258
549.857408	46358.415481
550.215949	47190.021864
550.574434	47124.552399
550.932864	46888.699495
551.291237	47601.364894
551.649555	47217.733086
552.007817	47455.685630
552.366022	47105.133874
552.724173	47290.857543
553.082267	47673.627314
553.440305	47991.449379
553.798288	47314.442582
554.156215	47611.837891
554.514086	47822.285900
554.871902	47567.558916
555.229661	47580.040813
555.587365	47410.494207
555.945014	47496.531579
556.302606	47438.104606
556.660143	47653.399684
557.017625	47751.543388
557.375050	47540.306439
557.732421	47900.927900
558.089735	47875.938900
558.446994	47804.268816
558.804197	48278.096948
559.161345	48217.346003
559.518437	47454.014488
559.875474	47778.687481
560.232455	47928.795398
560.589381	48102.823591
560.946251	47798.378228
561.303065	48493.500411
561.659825	48285.066343
562.016528	47971.226790
562.373177	47688.637349
562.729770	48173.992080
563.086307	47681.221812
563.442789	48154.497938
563.799216	48191.537816
564.155587	47991.837547
564.511904	48025.104122
564.868164	48111.466649
565.224370	48354.916571
565.580520	48089.288093
565.936615	48304.502512
566.292654	48023.385088
566.648638	48251.162063
567.004567	48193.637457
567.360441	48258.038197
567.716260	48113.515878
568.072023	48393.609947
568.427732	48388.919154
568.783385	47925.775747
569.138982	48351.536477
569.494525	48308.318665
569.850013	48069.960309
570.205445	48029.878094
570.560823	47997.402981
570.916145	47864.855923
571.271412	47882.368892
571.626625	47639.561717
571.981782	47724.492556
572.336884	47391.113491
572.691931	47720.124396
573.046923	47316.426276
573.401860	47176.075512
573.756743	47164.546393
574.111570	47277.871531
574.466342	47128.817215
574.821059	47242.659072
575.175722	46761.100330
575.530330	46778.325952
575.884882	46498.967892
576.239380	46472.564848
576.593823	46448.362269
576.948211	46362.997890
577.302544	45892.842238
577.656823	45920.094716
578.011047	46140.075546
578.365216	45872.450771
578.719330	45672.258990
579.073389	45524.059149
579.427394	45608.921933
579.781344	45576.227530
580.135239	45214.870060
580.489080	45312.633157
580.842866	44804.757072
581.196597	45249.354073
581.550273	45197.011773
581.903895	45064.462194
582.257463	45472.818341
582.610975	44871.451537
582.964434	45149.902190
583.317837	44796.464373
583.671186	44636.790867
584.024481	44866.475918
584.377721	44406.702523
584.730906	44677.205797
585.084037	44706.555395
585.437113	44420.621148
585.790135	44459.717817
586.143103	44052.742947
586.496016	44188.639851
586.848874	44221.099841
587.201679	44224.820213
587.554428	43704.951222
587.907124	43907.260288
588.259765	43650.983150
588.612352	43898.975151
588.964884	43286.752222
589.317362	43578.710647
589.669786	43505.495450
590.022155	43299.105570
590.374470	43716.631576
590.726731	43246.009617
591.078937	42743.522525
591.431090	42843.697814
591.783188	42502.424301
592.135232	42206.395145
592.487222	42433.534413
592.839157	42512.635158
593.191038	42187.591641
593.542866	41982.953562
593.894639	41369.840870
594.246358	41663.409943
594.598022	41622.342183
594.949633	41231.892215
595.301190	41183.106449
595.652692	41029.585670
596.004141	41348.720956
596.355535	40366.666378
596.706876	40322.674749
597.058162	40151.744345
597.409395	40623.556016
597.760573	40701.577954
598.111698	40288.820880
598.462768	40298.860338
598.813785	40336.996667
599.164748	39783.301534
599.515657	40167.686994
599.866511	39651.863530
600.217312	40272.527871
600.568060	39220.703724
600.918753	39973.658024
601.269392	39919.216083
601.619978	39571.489893
601.970510	39807.635184
602.320988	39979.538530
602.671412	40287.295931
603.021783	40038.701511
603.372100	39672.859936
603.722363	39789.539962
604.072572	39848.985248
604.422728	39865.066529
604.772830	39682.324702
605.122878	39781.325402
605.472872	39709.320081
605.822813	39987.921969
606.172701	39824.601187
606.522534	40067.146222
606.872314	40322.014358
607.222041	40070.521274
607.571714	40461.949227
607.921333	39901.188917
608.270899	40193.893433
608.620411	40533.359691
608.969870	40345.138130
609.319276	40321.449748
609.668627	40363.528259
610.017926	40842.914264
610.367171	41011.971879
610.716362	41095.259302
611.065500	41050.856819
611.414585	41239.978226
611.763616	41534.729450
612.112594	41459.313789
612.461518	41670.505367
612.810389	41955.806949
613.159207	41831.489574
613.507971	41891.688513
613.856682	42360.228475
614.205340	42230.567477
614.553945	42936.868419
614.902496	42395.299782
615.250994	42863.449055
615.599439	42945.735809
615.947830	43137.985252
616.296169	43174.798278
616.644454	43302.120180
616.992686	43458.920229
617.340864	43989.118544
617.688990	43697.923854
618.037063	44305.224096
618.385082	44252.183596
618.733048	44584.332620
619.080961	44578.137042
619.428821	44589.320841
619.776628	44687.013362
620.124382	44519.324420
620.472083	44662.525957
620.819731	44782.099606
621.167326	44452.040140
621.514868	44421.397486
621.862357	43980.664529
622.209793	43993.325387
622.557176	43690.026886
622.904506	43439.320223
623.251783	43085.375770
623.599007	42876.125036
623.946179	42653.351406
624.293297	42587.461005
624.640363	41999.410409
624.987376	41983.961793
625.334336	41740.872313
625.681243	41398.066290
626.028097	41348.398322
626.374899	41191.099198
626.721647	41162.281442
627.068343	41047.867415
627.414987	40822.172436
627.761577	40571.445609
628.108115	40913.997054
628.454600	40374.969158
628.801032	40552.286703
629.147412	40514.553667
629.493739	40515.771106
629.840014	40157.937403
630.186236	40483.157361
630.532405	40114.538109
630.878521	40316.307771
631.224585	40198.354854
631.570597	39897.851673
631.916556	40055.057535
632.262462	40014.267039
632.608316	40019.058655
632.954117	39932.615470
633.299866	39923.463255
633.645562	39835.464873
633.991206	39332.050209
634.336797	38903.068182
634.682336	38912.870705
635.027823	38654.403186
