Dividing Wavelength (nm)	Counts (n)	Blue Motor Position (mm): 10.600000	Red Motor Position (mm): 0.000000	
326.493990	1976.691876
326.888308	1976.691876
327.282561	1976.691876
327.676750	1951.165993
328.070874	1955.004832
328.464933	1961.475153
328.858929	1967.602675
329.252859	1979.565333
329.646726	1994.668630
330.040528	2009.920641
330.434265	2030.919568
330.827938	2050.486806
331.221547	2069.252502
331.615091	2091.282344
332.008571	2109.120467
332.401986	2132.821452
332.795338	2150.410037
333.188625	2173.513645
333.581847	2188.992508
333.975006	2209.298276
334.368100	2223.569783
334.761129	2241.531414
335.154095	2257.539598
335.546996	2285.490275
335.939833	2330.686740
336.332606	2342.541013
336.725315	2350.564010
337.117960	2361.636904
337.510540	2370.242154
337.903056	2380.821015
338.295508	2384.649771
338.687896	2395.331976
339.080220	2398.949004
339.472480	2407.420663
339.864676	2408.161713
340.256807	2412.398803
340.648875	2413.260840
341.040879	2416.835018
341.432818	2416.940882
341.824694	2417.951634
342.216506	2418.238979
342.608253	2416.227559
342.999937	2417.381983
343.391557	2416.472055
343.783113	2412.562640
344.174605	2414.460635
344.566033	2408.988462
344.957397	2406.840931
345.348697	2407.768503
345.739934	2406.911507
346.131106	2399.987482
346.522215	2402.084602
346.913260	2398.742317
347.304241	2398.989333
347.695159	2395.435320
348.086012	2394.764847
348.476802	2393.237377
348.867528	2389.748898
349.258191	2390.608415
349.648789	2387.487941
350.039324	2388.357540
350.429796	2387.165307
350.820203	2387.593805
351.210548	2386.167159
351.600828	2386.154556
351.991045	2385.547097
352.381198	2385.000132
352.771288	2386.212529
353.161314	2381.841849
353.551276	2381.390665
353.941175	2381.025182
354.331010	2382.484596
354.720782	2386.550286
355.110490	2385.073228
355.500135	2384.145656
355.889717	2386.043650
356.279235	2385.600029
356.668689	2384.611963
357.058080	2385.211860
357.447408	2385.035420
357.836672	2381.529297
358.225873	2387.543394
358.615010	2381.138608
359.004084	2388.362581
359.393095	2388.745709
359.782043	2388.193703
360.170927	2390.346275
360.559748	2387.616490
360.948505	2387.598846
361.337199	2390.245452
361.725830	2390.837788
362.114398	2389.663199
362.502903	2392.365257
362.891344	2392.594630
363.279722	2392.403066
363.668037	2395.773077
364.056289	2391.152860
364.444478	2392.085473
364.832603	2394.485062
365.220665	2393.880124
365.608665	2394.653941
365.996601	2394.018756
366.384474	2396.012532
366.772284	2396.824158
367.160031	2397.174518
367.547715	2395.231153
367.935336	2397.232491
368.322893	2397.897924
368.710388	2397.650907
369.097820	2399.120403
369.485189	2396.130999
369.872495	2400.506721
370.259738	2400.582338
370.646918	2399.460681
371.034035	2398.245763
371.421090	2401.366237
371.808081	2401.945970
372.195010	2401.701474
372.581875	2403.158368
372.968678	2402.301372
373.355418	2400.700805
373.742096	2398.732235
374.128710	2403.755744
374.515262	2401.865312
374.901751	2399.710218
375.288177	2403.886814
375.674540	2400.859602
376.060841	2403.178532
376.447079	2403.395302
376.833254	2403.296999
377.219367	2397.996226
377.605417	2401.739283
377.991404	2398.240722
378.377329	2401.542678
378.763191	2396.856925
379.148991	2404.436300
379.534727	2407.022412
379.920402	2402.394633
380.306013	2403.622154
380.691563	2404.426218
381.077049	2405.197514
381.462474	2405.197514
381.847835	2404.133831
382.233134	2405.573080
382.618371	2405.328584
383.003545	2405.991496
383.388657	2406.324212
383.773706	2404.181722
384.158693	2406.094840
384.543618	2407.246743
384.928480	2407.259346
385.313280	2407.713050
385.698017	2407.695406
386.082692	2408.151631
386.467305	2405.825138
386.851856	2409.900911
387.236344	2407.289593
387.620770	2408.859913
388.005133	2408.743966
388.389435	2410.475603
388.773674	2408.801939
389.157851	2413.069276
389.541965	2408.673390
389.926018	2413.102044
390.310008	2408.401168
390.693936	2411.897208
391.077802	2410.589028
391.461606	2410.420150
391.845348	2411.682959
392.229027	2411.524162
392.612645	2406.538461
392.996200	2410.982238
393.379694	2411.645150
393.763125	2413.482651
394.146494	2413.840573
394.529801	2413.296128
394.913047	2411.756056
395.296230	2412.542476
395.679351	2411.728329
396.062410	2411.037691
396.445408	2414.916859
396.828343	2413.180182
397.211217	2407.143400
397.594028	2410.957033
397.976778	2411.216652
398.359466	2415.015162
398.742092	2408.517114
399.124656	2414.574061
399.507158	2413.575912
399.889598	2415.289904
400.271977	2415.365522
400.654294	2413.933834
401.036549	2415.710841
401.418742	2416.920718
401.800874	2415.867117
402.182944	2416.051119
402.564952	2413.855696
402.946898	2417.437436
403.328783	2415.582291
403.710606	2414.906777
404.092367	2418.276788
404.474067	2416.091448
404.855705	2417.994483
405.237282	2419.300142
405.618797	2417.003897
406.000250	2419.993301
406.381642	2419.564803
406.762972	2417.765111
407.144240	2421.084711
407.525447	2420.313414
407.906593	2420.905750
408.287677	2419.065729
408.668700	2421.195616
409.049661	2423.000349
409.430560	2421.339289
409.811399	2421.460277
410.192176	2418.480955
410.572891	2421.666964
410.953545	2422.471028
411.334138	2420.119330
411.714669	2420.162180
412.095139	2419.635379
412.475547	2420.991449
412.855894	2418.765780
413.236180	2422.821388
413.616405	2421.765267
413.996568	2422.592016
414.376670	2420.492375
414.756711	2421.238466
415.136691	2421.240987
415.516609	2424.212747
415.896466	2423.602767
416.276262	2426.191400
416.655997	2417.276119
417.035670	2417.354257
417.415283	2423.149063
417.794834	2419.557241
418.174324	2427.126534
418.553753	2424.898344
418.933121	2424.931111
419.312428	2423.315421
419.691674	2425.772984
420.070859	2422.554207
420.449983	2425.715011
420.829045	2422.813827
421.208047	2425.868766
421.586988	2423.358271
421.965867	2425.654517
422.344686	2425.460432
422.723444	2426.498910
423.102141	2425.730134
423.480777	2426.342634
423.859352	2422.108065
424.237866	2427.466812
424.616319	2423.993457
424.994712	2425.475556
425.373044	2428.210382
425.751314	2426.435896
426.129524	2425.246183
426.507673	2424.631163
426.885762	2426.065371
427.263789	2424.658889
427.641756	2428.303643
428.019662	2423.310380
428.397508	2425.962027
428.775292	2425.954465
429.153016	2424.396749
429.530679	2427.449168
429.908282	2428.230546
430.285824	2425.720052
430.663305	2426.932449
431.040726	2428.515372
431.418086	2428.122162
431.795385	2427.411359
432.172624	2428.641400
432.549802	2427.595361
432.926920	2429.871442
433.303977	2426.251893
433.680974	2427.348344
434.057910	2425.276430
434.434786	2427.560073
434.811601	2431.222471
435.188355	2427.363468
435.565050	2431.093922
435.941683	2428.049065
436.318257	2428.906061
436.694770	2423.622932
437.071222	2428.343972
437.447614	2423.355751
437.823946	2427.779363
438.200218	2428.744744
438.576429	2428.185176
438.952580	2427.358427
439.328670	2428.709456
439.704700	2429.228695
440.080670	2430.395722
440.456580	2428.666606
440.832429	2430.241967
441.208218	2431.499735
441.583947	2429.790783
441.959616	2433.168357
442.335224	2430.816658
442.710773	2430.766247
443.086261	2432.303799
443.461689	2430.032759
443.837057	2431.328335
444.212365	2428.694332
444.587612	2433.395208
444.962800	2431.116607
445.337927	2429.798345
445.712995	2431.146854
446.088002	2433.700198
446.462949	2430.110897
446.837837	2433.022163
447.212664	2431.315733
447.587431	2433.017122
447.962139	2434.272369
448.336786	2432.485280
448.711374	2435.439396
449.085901	2436.288831
449.460369	2433.037287
449.834776	2436.389654
450.209124	2435.157092
450.583412	2433.049889
450.957640	2435.625919
451.331808	2434.889911
451.705917	2436.931578
452.079965	2438.514500
452.453954	2433.138110
452.827883	2437.433173
453.201752	2436.046855
453.575562	2435.537699
453.949311	2434.857143
454.323001	2436.256063
454.696632	2439.111877
455.070202	2437.317226
455.443713	2436.026691
455.817164	2432.938984
456.190556	2434.095929
456.563888	2436.984510
456.937160	2435.570466
457.310373	2439.469799
457.683526	2437.123142
458.056619	2438.912751
458.429653	2436.195569
458.802628	2439.573143
459.175542	2439.986517
459.548398	2442.181940
459.921194	2442.237392
460.293930	2442.978442
460.666607	2439.810077
461.039224	2443.958946
461.411782	2443.404419
461.784280	2446.376180
462.156719	2445.967846
462.529099	2443.923658
462.901419	2443.653957
463.273680	2446.456838
463.645882	2442.411312
464.018024	2446.393824
464.390106	2444.379883
464.762130	2449.678135
465.134094	2450.247786
465.505999	2450.474638
465.877845	2454.565534
466.249631	2455.132664
466.621358	2454.530246
466.993026	2456.009825
467.364634	2456.645010
467.736184	2453.169134
468.107674	2453.552262
468.479105	2453.436316
468.850477	2449.791561
469.221790	2452.246603
469.593043	2449.776438
469.964238	2448.314503
470.335373	2451.676953
470.706449	2451.583692
471.077467	2453.353137
471.448425	2457.784311
471.819324	2455.122582
472.190164	2459.107614
472.560945	2455.359516
472.931667	2453.985801
473.302330	2453.446398
473.672934	2453.937910
474.043479	2453.708538
474.413965	2450.368773
474.784393	2450.018413
475.154761	2451.651747
475.525070	2449.209308
475.895321	2451.558486
476.265513	2451.182920
476.635645	2455.286419
477.005719	2453.196861
477.375734	2455.334310
477.745691	2458.192644
478.115588	2454.285750
478.485427	2454.477314
478.855207	2460.569548
479.224928	2462.838067
479.594591	2463.014508
479.964194	2461.913016
480.333739	2463.014508
480.703226	2460.193982
481.072653	2462.777574
481.442022	2462.800259
481.811333	2462.301185
482.180584	2461.822275
482.549777	2464.884776
482.918912	2462.848150
483.287988	2460.960238
483.657005	2460.057871
484.025964	2459.899075
484.394864	2461.847481
484.763706	2461.053499
485.132489	2463.410238
485.501213	2461.134158
485.869879	2459.410083
486.238487	2464.110959
486.607036	2460.390587
486.975527	2460.670371
487.343959	2459.142902
487.712333	2463.009467
488.080648	2460.897223
488.448905	2461.166925
488.817104	2462.248253
489.185244	2463.362347
489.553326	2464.849488
489.921350	2466.621453
490.289315	2468.615230
490.657222	2471.745786
491.025070	2469.744448
491.392861	2470.946763
491.760593	2470.818214
492.128267	2469.696557
492.495883	2465.361165
492.863440	2465.333439
493.230939	2465.096504
493.598380	2468.025415
493.965763	2463.193469
494.333088	2464.161370
494.700354	2465.156998
495.067563	2463.445527
495.434713	2461.416462
495.801805	2466.331587
496.168839	2464.846967
496.535815	2466.518110
496.902733	2467.977524
497.269593	2468.632874
497.636395	2468.705971
498.003139	2470.692185
498.369825	2471.390385
498.736453	2470.654377
499.103023	2472.426342
499.469535	2474.347022
499.835989	2474.808287
500.202385	2473.001034
500.568723	2474.596559
500.935003	2476.834831
501.301226	2480.124184
501.667390	2480.038484
502.033497	2485.563589
502.399546	2482.569144
502.765537	2486.090390
503.131470	2486.201295
503.497345	2486.123157
503.863163	2487.028044
504.228923	2489.210864
504.594625	2490.637510
504.960269	2493.175731
505.325856	2495.159425
505.691385	2497.775784
506.056856	2498.766371
506.422270	2501.773419
506.787625	2503.132010
507.152924	2505.362721
507.518164	2506.670900
507.883347	2510.792043
508.248472	2512.329595
508.613540	2513.844462
508.978550	2518.263033
509.343503	2519.830832
509.708398	2522.711852
510.073236	2522.404341
510.438016	2525.789476
510.802738	2526.054137
511.167403	2525.857532
511.532010	2534.556043
511.896561	2536.249870
512.261053	2541.477547
512.625488	2541.464944
512.989866	2540.290355
513.354186	2545.167672
513.718449	2544.048535
514.082655	2555.607901
514.446803	2554.634958
514.810894	2561.261555
515.174927	2562.118551
515.538904	2562.214333
515.902822	2569.337484
516.266684	2568.598955
516.630488	2569.334963
516.994235	2574.446693
517.357925	2579.346695
517.721558	2583.157807
518.085133	2584.985225
518.448651	2590.654003
518.812112	2592.267172
519.175516	2595.448140
519.538863	2597.373861
519.902152	2601.963831
520.265385	2602.820828
520.628560	2609.303751
520.991678	2608.900459
521.354739	2611.458845
521.717743	2614.627210
522.080690	2620.238014
522.443580	2624.515433
522.806413	2626.524333
523.169189	2626.736061
523.531908	2633.460961
523.894569	2632.898872
524.257174	2637.942546
524.619722	2641.370531
524.982213	2641.839358
525.344647	2645.718526
525.707025	2646.792292
526.069345	2652.390493
526.431608	2653.698673
526.793815	2657.222439
527.155964	2656.635145
527.518057	2659.354847
527.880093	2662.124961
528.242072	2662.598830
528.603995	2665.794921
528.965860	2669.658966
529.327669	2675.257167
529.689421	2671.332629
530.051117	2675.920079
530.412755	2675.410922
530.774337	2679.988290
531.135862	2681.258661
531.497331	2682.783610
531.858743	2680.066428
532.220098	2687.933148
532.581396	2688.981708
532.942638	2689.115299
533.303824	2694.650486
533.664953	2693.213757
534.026025	2695.590661
534.387040	2704.639532
534.747999	2700.793132
535.108902	2704.493339
535.469748	2703.172557
535.830537	2706.572815
536.191270	2709.917620
536.551947	2709.819318
536.912567	2711.074565
537.273131	2714.822663
537.633638	2712.874257
537.994089	2715.261243
538.354483	2718.016234
538.714821	2719.636965
539.075103	2724.647872
539.435328	2726.187944
539.795497	2725.497306
540.155609	2727.360013
540.515665	2730.926629
540.875665	2730.994685
541.235609	2733.185066
541.595496	2731.667679
541.955328	2738.185891
542.315102	2736.119017
542.674821	2732.766650
543.034483	2737.336456
543.394090	2741.021540
543.753640	2737.817886
544.113134	2744.207549
544.472571	2740.141858
544.831953	2748.769793
545.191278	2744.641088
545.550548	2746.778537
545.909761	2751.867582
546.268918	2752.538056
546.628019	2755.366143
546.987064	2755.610639
547.346053	2749.510843
547.704986	2758.002666
548.063863	2755.570310
548.422684	2756.543252
548.781449	2755.910587
549.140158	2758.552152
549.498811	2762.275044
549.857408	2755.265320
550.215949	2762.557349
550.574434	2761.024838
550.932864	2761.526433
551.291237	2765.236722
551.649555	2768.742845
552.007817	2772.190994
552.366022	2770.287958
552.724173	2772.753082
553.082267	2775.094698
553.440305	2781.328085
553.798288	2777.395985
554.156215	2779.241047
554.514086	2783.173147
554.871902	2781.559978
555.229661	2786.505350
555.587365	2786.034002
555.945014	2791.428037
556.302606	2788.569703
556.660143	2793.913326
557.017625	2793.583130
557.375050	2795.370219
557.732421	2797.265693
558.089735	2801.533030
558.446994	2802.296765
558.804197	2810.907055
559.161345	2811.080975
559.518437	2806.470840
559.875474	2811.438897
560.232455	2815.413847
560.589381	2819.499702
560.946251	2824.986998
561.303065	2830.441527
561.659825	2833.970334
562.016528	2832.117710
562.373177	2833.461178
562.729770	2838.668690
563.086307	2841.315295
563.442789	2851.158148
563.799216	2854.495392
564.155587	2858.664426
564.511904	2864.892772
564.868164	2869.659183
565.224370	2878.559340
565.580520	2880.298538
565.936615	2889.589385
566.292654	2894.489386
566.648638	2902.015829
567.004567	2907.147723
567.360441	2914.654002
567.716260	2921.189858
568.072023	2935.894903
568.427732	2937.200562
568.783385	2942.755914
569.138982	2956.636731
569.494525	2963.933801
569.850013	2970.925881
570.205445	2987.281905
570.560823	2992.116372
570.916145	3006.965090
571.271412	3016.286184
571.626625	3023.978984
571.981782	3035.341745
572.336884	3046.633930
572.691931	3064.295612
573.046923	3068.875501
573.401860	3083.371338
573.756743	3096.062443
574.111570	3112.801595
574.466342	3120.983387
574.821059	3138.773619
575.175722	3145.322078
575.530330	3164.672547
575.884882	3174.144875
576.239380	3186.989735
576.593823	3204.389278
576.948211	3223.669171
577.302544	3231.102352
577.656823	3250.062132
578.011047	3271.497118
578.365216	3286.683594
578.719330	3304.894762
579.073389	3322.581650
579.427394	3345.130731
579.781344	3364.718135
580.135239	3379.524003
580.489080	3408.251019
580.842866	3418.900456
581.196597	3457.261116
581.550273	3480.057214
581.903895	3506.281296
582.257463	3542.590207
582.610975	3558.784914
582.964434	3592.563165
583.317837	3613.793984
583.671186	3639.463540
584.024481	3673.839168
584.377721	3689.376004
584.730906	3722.640058
585.084037	3754.855551
585.437113	3772.330711
585.790135	3808.080054
586.143103	3828.143846
586.496016	3860.238352
586.848874	3892.070718
587.201679	3932.810803
587.554428	3946.739511
587.907124	3988.518073
588.259765	4018.318854
588.612352	4071.306422
588.964884	4087.027261
589.317362	4134.986278
589.669786	4168.270496
590.022155	4201.547153
590.374470	4251.991458
590.726731	4269.960651
591.078937	4286.883805
591.431090	4323.268333
591.783188	4347.236499
592.135232	4371.416393
592.487222	4418.669649
592.839157	4464.264365
593.191038	4488.706399
593.542866	4516.115152
593.894639	4525.368190
594.246358	4582.423970
594.598022	4622.375114
594.949633	4640.364471
595.301190	4676.885110
595.652692	4710.403742
596.004141	4766.920118
596.355535	4749.921347
596.706876	4783.555926
597.058162	4812.199762
597.409395	4886.171133
597.760573	4933.923463
598.111698	4948.804949
598.462768	4991.614427
598.813785	5036.662178
599.164748	5046.270617
599.515657	5123.138131
599.866511	5133.031396
600.217312	5219.290579
600.568060	5194.049522
600.918753	5296.516015
601.269392	5339.806923
601.619978	5364.236355
601.970510	5423.295993
602.320988	5490.101364
602.671412	5560.672476
603.021783	5594.496098
603.372100	5614.499397
603.722363	5674.521895
604.072572	5733.223611
604.422728	5782.243791
604.772830	5819.119831
605.122878	5873.173603
605.472872	5926.057828
605.822813	6000.293859
606.172701	6043.584768
606.522534	6118.811386
606.872314	6206.527463
607.222041	6235.498974
607.571714	6333.425908
607.921333	6334.792061
608.270899	6423.350011
608.620411	6516.986923
608.969870	6560.081226
609.319276	6618.316636
609.668627	6686.899013
610.017926	6798.447145
610.367171	6884.882769
610.716362	6961.231044
611.065500	7025.505755
611.414585	7107.774865
611.763616	7213.140022
612.112594	7276.401462
612.461518	7371.505349
612.810389	7478.655074
613.159207	7537.518107
613.507971	7616.099613
613.856682	7751.479800
614.205340	7808.923748
614.553945	7981.779872
614.902496	7981.116961
615.250994	8120.943445
615.599439	8210.131539
615.947830	8324.979106
616.296169	8414.681397
616.644454	8517.785596
616.992686	8630.011763
617.340864	8802.262949
617.688990	8853.612142
618.037063	9034.403042
618.385082	9126.038616
618.733048	9260.055171
619.080961	9354.458338
619.428821	9435.504969
619.776628	9531.508702
620.124382	9581.582484
620.472083	9676.502369
620.819731	9767.734651
621.167326	9782.326271
621.514868	9850.230613
621.862357	9836.319549
622.209793	9900.886648
622.557176	9904.831351
622.904506	9924.406151
623.251783	9925.999156
623.599007	9944.583369
623.946179	9974.351383
624.293297	10033.784066
624.640363	9991.705555
624.987376	10060.774404
625.334336	10085.095450
625.681243	10097.073232
626.028097	10165.096041
626.374899	10212.888700
626.721647	10287.097006
627.068343	10341.044913
627.414987	10373.623370
627.761577	10408.430017
628.108115	10555.843438
628.454600	10524.510146
628.801032	10649.760134
629.147412	10723.371062
629.493739	10810.456995
629.840014	10818.525362
630.186236	10983.050979
630.532405	10992.167906
630.878521	11126.544903
631.224585	11183.903151
631.570597	11201.557272
631.916556	11332.927221
632.262462	11401.252499
632.608316	11495.315389
632.954117	11554.463247
633.299866	11619.705860
633.645562	11681.013853
633.991206	11629.452931
634.336797	11586.812331
634.682336	11662.122129
635.027823	11670.671926
635.373257	11690.685306
635.718639	11699.338447
636.063968	11727.205945
636.409245	11641.713017
636.754470	11730.109650
637.099642	11737.416802
637.444762	11678.440344
637.789829	11788.224072
638.134845	11769.397882
638.479808	11825.750421
638.824719	11872.630631
639.169577	11840.762977
639.514383	11934.697317
639.859137	11917.822055
640.203839	12060.088457
640.548489	12040.415354
640.893086	12121.212448
641.237632	12133.994293
641.582125	12242.812640
641.926566	12295.898511
642.270955	12363.119777
642.615292	12444.867128
642.959576	12520.159281
643.303809	12599.086106
643.647990	12722.412894
