Dividing Wavelength (nm)	Counts (n)	Blue Motor Position (mm): 22.200000	Red Motor Position (mm): 0.000000	
326.493990	1971.431432
326.888308	1971.431432
327.282561	1971.431432
327.676750	1948.436208
328.070874	1951.803699
328.464933	1956.834771
328.858929	1963.768878
329.252859	1976.117184
329.646726	1990.403814
330.040528	2006.578356
330.434265	2028.280524
330.827938	2045.440611
331.221547	2067.956925
331.615091	2085.122054
332.008571	2105.828593
332.401986	2128.115534
332.795338	2148.504481
333.188625	2166.433345
333.581847	2186.794565
333.975006	2204.350383
334.368100	2223.216902
334.761129	2239.608213
335.154095	2255.107241
335.546996	2289.966820
335.939833	2358.231605
336.332606	2371.391537
336.725315	2380.107692
337.117960	2392.367778
337.510540	2400.796587
337.903056	2408.234810
338.295508	2414.339647
338.687896	2424.058992
339.080220	2428.200299
339.472480	2433.619540
339.864676	2439.547937
340.256807	2442.376024
340.648875	2445.186467
341.040879	2445.758638
341.432818	2445.418360
341.824694	2446.557661
342.216506	2444.909204
342.608253	2447.470110
342.999937	2446.940789
343.391557	2442.229831
343.783113	2443.646395
344.174605	2440.987186
344.566033	2439.777309
344.957397	2438.658173
345.348697	2435.744386
345.739934	2432.384457
346.131106	2430.909920
346.522215	2431.139292
346.913260	2429.561411
347.304241	2428.916143
347.695159	2426.506472
348.086012	2425.316759
348.476802	2420.976326
348.867528	2423.600247
349.258191	2422.408014
349.648789	2419.894998
350.039324	2416.550193
350.429796	2418.967426
350.820203	2417.049267
351.210548	2415.090779
351.600828	2419.088414
351.991045	2415.778896
352.381198	2413.611200
352.771288	2415.075655
353.161314	2414.765624
353.551276	2415.708320
353.941175	2412.333268
354.331010	2412.643299
354.720782	2416.628331
355.110490	2414.604307
355.500135	2413.487692
355.889717	2412.265212
356.279235	2414.526170
356.668689	2416.744277
357.058080	2416.053639
357.447408	2415.627662
357.836672	2416.930800
358.225873	2414.881571
358.615010	2409.714388
359.004084	2417.316448
359.393095	2420.482293
359.782043	2419.257293
360.170927	2418.518763
360.559748	2421.059505
360.948505	2417.518094
361.337199	2421.472880
361.725830	2423.075967
362.114398	2422.178641
362.502903	2424.321132
362.891344	2421.412386
363.279722	2422.377767
363.668037	2424.706780
364.056289	2423.844743
364.444478	2426.027562
364.832603	2427.791966
365.220665	2424.043868
365.608665	2428.124682
365.996601	2426.103179
366.384474	2423.196954
366.772284	2428.190217
367.160031	2426.025042
367.547715	2425.130237
367.935336	2426.186358
368.322893	2426.947573
368.710388	2428.719538
369.097820	2430.720876
369.485189	2432.684406
369.872495	2434.796649
370.259738	2428.258273
370.646918	2433.090219
371.034035	2428.812800
371.421090	2430.183993
371.808081	2434.063161
372.195010	2429.410176
372.581875	2433.372523
372.968678	2433.087698
373.355418	2432.472677
373.742096	2433.705239
374.128710	2435.562905
374.515262	2432.281113
374.901751	2434.867225
375.288177	2436.041814
375.674540	2436.190528
376.060841	2436.971907
376.447079	2434.209355
376.833254	2432.981834
377.219367	2430.799014
377.605417	2435.525096
377.991404	2433.798501
378.377329	2433.291865
378.763191	2431.310691
379.148991	2439.361414
379.534727	2435.855292
379.920402	2439.580704
380.306013	2436.893769
380.691563	2438.857299
381.077049	2437.385282
381.462474	2439.603389
381.847835	2440.596497
382.233134	2440.180602
382.618371	2440.104984
383.003545	2439.333688
383.388657	2439.552978
383.773706	2440.321754
384.158693	2438.958122
384.543618	2442.098761
384.928480	2440.984666
385.313280	2445.244441
385.698017	2441.816456
386.082692	2443.906014
386.467305	2443.648915
386.851856	2444.982301
387.236344	2443.880808
387.620770	2445.824173
388.005133	2446.227466
388.389435	2443.021292
388.773674	2443.419543
389.157851	2447.160079
389.541965	2446.045984
389.926018	2444.967177
390.310008	2446.960953
390.693936	2448.274174
391.077802	2447.916252
391.461606	2450.371294
391.845348	2444.906683
392.229027	2449.123608
392.612645	2449.973043
392.996200	2449.784000
393.379694	2449.509257
393.763125	2448.967333
394.146494	2448.553958
394.529801	2453.335492
394.913047	2450.769545
395.296230	2452.158383
395.679351	2451.583692
396.062410	2452.826336
396.445408	2450.015893
396.828343	2451.530759
397.211217	2447.061777
397.594028	2453.590071
397.976778	2447.802826
398.359466	2451.593774
398.742092	2448.884154
399.124656	2453.065791
399.507158	2452.259206
399.889598	2455.709876
400.271977	2453.403548
400.654294	2455.296501
401.036549	2452.783486
401.418742	2453.763991
401.800874	2456.128292
402.182944	2456.672736
402.564952	2454.633590
402.946898	2456.881944
403.328783	2454.258024
403.710606	2458.096862
404.092367	2457.806996
404.474067	2457.270113
404.855705	2455.793055
405.237282	2455.125102
405.618797	2458.981585
406.000250	2459.422686
406.381642	2456.753395
406.762972	2459.417645
407.144240	2460.251956
407.525447	2461.988633
407.906593	2457.572582
408.287677	2460.446040
408.668700	2460.042748
409.049661	2461.844960
409.430560	2461.078705
409.811399	2461.366051
410.192176	2463.006946
410.572891	2461.481997
410.953545	2461.436627
411.334138	2461.900413
411.714669	2464.075671
412.095139	2463.889148
412.475547	2462.470063
412.855894	2463.190948
413.236180	2461.671040
413.616405	2466.384519
413.996568	2463.553911
414.376670	2464.806638
414.756711	2462.608695
415.136691	2464.768829
415.516609	2464.557101
415.896466	2466.795373
416.276262	2467.634725
416.655997	2461.950824
417.035670	2464.529375
417.415283	2466.739921
417.794834	2463.095166
418.174324	2466.709674
418.553753	2468.101032
418.933121	2470.971969
419.312428	2466.581124
419.691674	2468.317802
420.070859	2472.451548
420.449983	2471.932309
420.829045	2470.165385
421.208047	2467.909468
421.586988	2471.042545
421.965867	2472.446507
422.344686	2470.437607
422.723444	2472.317957
423.102141	2471.869295
423.480777	2474.984728
423.859352	2472.895169
424.237866	2476.731487
424.616319	2474.059676
424.994712	2477.480099
425.373044	2477.628813
425.751314	2477.800212
426.129524	2476.854996
426.507673	2475.561940
426.885762	2475.519090
427.263789	2476.277784
427.641756	2479.720892
428.019662	2475.181333
428.397508	2478.415233
428.775292	2479.892291
429.153016	2480.890439
429.530679	2480.081334
429.908282	2478.747949
430.285824	2478.395068
430.663305	2481.071921
431.040726	2480.751808
431.418086	2482.654843
431.795385	2480.877837
432.172624	2478.632003
432.549802	2480.492188
432.926920	2482.795996
433.303977	2480.219966
433.680974	2484.204998
434.057910	2485.999649
434.434786	2487.920328
434.811601	2484.956130
435.188355	2486.491161
435.565050	2486.894454
435.941683	2486.055102
436.318257	2481.649133
436.694770	2484.593167
437.071222	2484.724237
437.447614	2486.839001
437.823946	2487.393528
438.200218	2491.050885
438.576429	2485.888743
438.952580	2487.595174
439.328670	2488.527787
439.704700	2489.770432
440.080670	2489.168014
440.456580	2489.692294
440.832429	2492.885865
441.208218	2489.949393
441.583947	2493.037100
441.959616	2491.965854
442.335224	2489.722541
442.710773	2493.190855
443.086261	2495.154384
443.461689	2494.476349
443.837057	2495.398880
444.212365	2494.932573
444.587612	2494.839312
444.962800	2496.775115
445.337927	2499.000785
445.712995	2496.170177
446.088002	2499.189828
446.462949	2501.617143
446.837837	2499.673779
447.212664	2500.301402
447.587431	2506.766682
447.962139	2511.548217
448.336786	2516.806140
448.711374	2514.456962
449.085901	2509.451097
449.460369	2512.299348
449.834776	2510.068638
450.209124	2516.042405
450.583412	2516.231448
450.957640	2517.716068
451.331808	2520.982736
451.705917	2516.811181
452.079965	2515.823115
452.453954	2517.436284
452.827883	2519.901408
453.201752	2521.161697
453.575562	2524.151101
453.949311	2525.371060
454.323001	2526.535567
454.696632	2529.656041
455.070202	2531.627132
455.443713	2534.477905
455.817164	2536.126362
456.190556	2534.644263
456.563888	2537.258101
456.937160	2536.519572
457.310373	2541.618699
457.683526	2538.462937
458.056619	2542.503422
458.429653	2543.904863
458.802628	2547.784030
459.175542	2549.382076
459.548398	2554.216543
459.921194	2563.184755
460.293930	2566.484191
460.666607	2575.064234
461.039224	2581.806778
461.411782	2585.597725
461.784280	2584.090420
462.156719	2583.414906
462.529099	2586.701738
462.901419	2579.860892
463.273680	2582.401634
463.645882	2586.008579
464.018024	2589.497058
464.390106	2595.198603
464.762130	2608.219903
465.134094	2630.116155
465.505999	2656.746050
465.877845	2679.968125
466.249631	2685.573888
466.621358	2685.047088
466.993026	2682.080369
467.364634	2677.928979
467.736184	2678.100378
468.107674	2678.612055
468.479105	2679.592559
468.850477	2681.936696
469.221790	2681.026768
469.593043	2676.991324
469.964238	2681.795544
470.335373	2687.202181
470.706449	2708.299410
471.077467	2734.876373
471.448425	2779.425050
471.819324	2812.850420
472.190164	2810.012251
472.560945	2795.579427
472.931667	2785.968467
473.302330	2790.679426
473.672934	2803.783905
474.043479	2820.210505
474.413965	2829.967658
474.784393	2841.128773
475.154761	2875.065820
475.525070	2892.213305
475.895321	2909.748959
476.265513	2935.650407
476.635645	2978.853096
477.005719	3005.465347
477.375734	3040.627395
477.745691	3082.176585
478.115588	3141.969711
478.485427	3219.119529
478.855207	3339.761903
479.224928	3448.555044
479.594591	3533.415307
479.964194	3552.619582
480.333739	3599.189762
480.703226	3663.131757
481.072653	3759.120368
481.442022	3851.058411
481.811333	3933.110751
482.180584	3961.653764
482.549777	4018.981766
482.918912	4087.554061
483.287988	4156.827077
483.657005	4212.022670
484.025964	4268.597019
484.394864	4355.607335
484.763706	4431.242286
485.132489	4485.386799
485.501213	4573.773350
485.869879	4690.909600
486.238487	4777.531747
486.607036	4899.840222
486.975527	4984.776102
487.343959	5114.278303
487.712333	5240.491152
488.080648	5358.479357
488.448905	5526.979925
488.817104	5649.200179
489.185244	5876.856166
489.553326	6191.900555
489.921350	6631.012782
490.289315	7109.554393
490.657222	7374.666153
491.025070	7602.042356
491.392861	7674.783685
491.760593	7707.006741
492.128267	7685.017228
492.495883	7690.393618
492.863440	7713.172072
493.230939	7739.164261
493.598380	7796.295658
493.965763	7953.103269
494.333088	8040.050570
494.700354	8172.320364
495.067563	8335.978903
495.434713	8516.769804
495.801805	8737.610151
496.168839	8893.449860
496.535815	9044.901245
496.902733	9266.817879
497.269593	9410.478160
497.636395	9621.977249
498.003139	9914.666642
498.369825	10042.956445
498.736453	10327.947996
499.103023	10468.739861
499.469535	10673.040182
499.835989	10930.988463
500.202385	11096.504667
500.568723	11344.907523
500.935003	11637.710341
501.301226	11841.544356
501.667390	12247.390008
502.033497	12583.745875
502.399546	12695.218389
502.765537	12763.979728
503.131470	13152.783759
503.497345	13518.577444
503.863163	13402.134352
504.228923	13843.119367
504.594625	14255.485752
504.960269	14311.762673
505.325856	14795.632783
505.691385	14874.978024
506.056856	15190.312280
506.422270	15633.580937
506.787625	15775.471774
507.152924	16133.265148
507.518164	16463.158255
507.883347	16459.304293
508.248472	16836.995101
508.613540	17312.257442
508.978550	17758.828055
509.343503	17961.482440
509.708398	18349.366461
510.073236	18878.140649
510.438016	19202.813642
510.802738	19253.273072
511.167403	19839.927268
511.532010	20252.439846
511.896561	20702.929957
512.261053	21419.116602
512.625488	21512.420797
512.989866	21753.907190
513.354186	21991.159014
513.718449	22277.841871
514.082655	22954.518472
514.446803	23083.385488
514.810894	23676.048740
515.174927	23948.626449
515.538904	24186.614281
515.902822	24866.978487
516.266684	24852.036507
516.630488	25391.024073
516.994235	25593.000422
517.357925	26230.724028
517.721558	26624.216333
518.085133	27130.885062
518.448651	27501.402308
518.812112	27638.809038
519.175516	27995.558893
519.538863	28494.257557
519.902152	28752.006712
520.265385	29353.980976
520.628560	29657.919703
520.991678	29778.249524
521.354739	30217.374354
521.717743	30696.435204
522.080690	30891.096839
522.443580	31542.817208
522.806413	31834.168174
523.169189	32070.194997
523.531908	32447.968984
523.894569	32589.050716
524.257174	32967.124651
524.619722	33430.222687
524.982213	33663.202133
525.344647	33849.283724
525.707025	34116.573263
526.069345	34659.797919
526.431608	34811.214016
526.793815	35282.854288
527.155964	35134.790558
527.518057	35481.828630
527.880093	35535.814347
528.242072	36173.331265
528.603995	36117.530733
528.965860	36331.726839
529.327669	36604.317151
529.689421	36719.202527
530.051117	36869.086113
530.412755	37175.537855
530.774337	37405.971518
531.135862	37435.187525
531.497331	37775.142776
531.858743	37860.739048
532.220098	38330.733382
532.581396	38252.224973
532.942638	38124.293091
533.303824	38536.851040
533.664953	38659.285543
534.026025	38587.562527
534.387040	39142.409563
534.747999	39234.549253
535.108902	39532.945231
535.469748	39241.758103
535.830537	39482.145524
536.191270	39800.849791
536.551947	39620.774734
536.912567	40014.007419
537.273131	40240.433365
537.633638	39915.281462
537.994089	40334.753353
538.354483	40115.977359
538.714821	40734.668088
539.075103	41161.510146
539.435328	41051.441593
539.795497	41064.261247
540.155609	41156.796667
540.515665	41679.198837
540.875665	41274.913422
541.235609	41687.236957
541.595496	41760.527772
541.955328	42474.566885
542.315102	41996.380675
542.674821	41882.296843
543.034483	42005.147242
543.394090	42066.490523
543.753640	42117.711166
544.113134	43135.436949
544.472571	42301.584732
544.831953	43536.468299
545.191278	42859.612737
545.550548	42686.744009
545.909761	43205.851786
546.268918	43460.155312
546.628019	43813.749404
546.987064	43497.774922
547.346053	42873.362484
547.704986	43759.415848
548.063863	43408.392744
548.422684	43664.682485
548.781449	43588.041823
549.140158	44009.943550
549.498811	43932.143423
549.857408	43447.310452
550.215949	44314.252802
550.574434	44289.843535
550.932864	44135.934588
551.291237	44872.800046
551.649555	44536.081216
552.007817	44812.991796
552.366022	44539.854519
552.724173	44757.551707
553.082267	45182.165575
553.440305	45526.524273
553.798288	44904.740796
554.156215	45245.132107
554.514086	45488.801319
554.871902	45271.749399
555.229661	45346.063569
555.587365	45210.781685
555.945014	45328.888357
556.302606	45293.043233
556.660143	45549.154013
557.017625	45667.772363
557.375050	45499.763308
557.732421	45879.110135
558.089735	45883.422842
558.446994	45810.305947
558.804197	46291.017775
559.161345	46268.453570
559.518437	45567.929791
559.875474	45903.128713
560.232455	46094.624503
560.589381	46289.112219
560.946251	46005.529671
561.303065	46692.361677
561.659825	46528.410751
562.016528	46232.116933
562.373177	45968.880482
562.729770	46481.079357
563.086307	46007.634352
563.442789	46488.678897
563.799216	46537.978861
564.155587	46344.322936
564.511904	46408.116217
564.868164	46505.801176
565.224370	46755.681089
565.580520	46504.077101
565.936615	46734.157883
566.292654	46475.695405
566.648638	46703.185034
567.004567	46689.208435
567.360441	46730.661843
567.716260	46606.790611
568.072023	46910.013494
568.427732	46901.428409
568.783385	46483.799060
569.138982	46869.878347
569.494525	46836.921804
569.850013	46614.876621
570.205445	46596.554548
570.560823	46551.955460
570.916145	46451.989379
571.271412	46466.608725
571.626625	46255.959070
571.981782	46317.319995
572.336884	46018.465272
572.691931	46344.285127
573.046923	45948.781402
573.401860	45793.607125
573.756743	45789.362473
574.111570	45910.090546
574.466342	45761.817609
574.821059	45899.244504
575.175722	45433.303257
575.530330	45461.137988
575.884882	45180.103743
576.239380	45144.654349
576.593823	45131.275127
576.948211	45056.081276
577.302544	44588.819247
577.656823	44631.732069
578.011047	44859.849321
578.365216	44575.198049
578.719330	44390.371705
579.073389	44245.556999
579.427394	44324.002394
579.781344	44298.594978
580.135239	43980.160413
580.489080	44054.860231
580.842866	43555.685177
581.196597	44018.652144
581.550273	43943.750680
581.903895	43806.553157
582.257463	44234.824382
582.610975	43642.700534
582.964434	43910.163992
583.317837	43589.551649
583.671186	43427.120631
584.024481	43645.032068
584.377721	43177.487733
584.730906	43479.664577
585.084037	43494.568749
585.437113	43211.328999
585.790135	43244.686314
586.143103	42857.036707
586.496016	42984.653517
586.848874	43011.011189
587.201679	43037.147052
587.554428	42522.326777
587.907124	42706.180178
588.259765	42479.096362
588.612352	42731.708581
588.964884	42141.129846
589.317362	42408.931062
589.669786	42375.505692
590.022155	42133.593321
590.374470	42543.373594
590.726731	42089.490787
591.078937	41628.008440
591.431090	41714.902809
591.783188	41380.354196
592.135232	41067.507750
592.487222	41309.639410
592.839157	41389.980279
593.191038	41074.353637
593.542866	40850.460871
593.894639	40264.872879
594.246358	40537.233818
594.598022	40504.206699
594.949633	40124.322989
595.301190	40080.961504
595.652692	39942.803642
596.004141	40256.355849
596.355535	39280.638002
596.706876	39252.069783
597.058162	39079.027136
597.409395	39532.718379
597.760573	39601.484759
598.111698	39188.105102
598.462768	39207.180828
598.813785	39256.153117
599.164748	38715.570026
599.515657	39113.891756
599.866511	38591.892878
600.217312	39196.906957
600.568060	38189.107206
600.918753	38926.766646
601.269392	38884.017661
601.619978	38551.787979
601.970510	38742.366279
602.320988	38937.441289
602.671412	39228.008356
603.021783	38957.923497
603.372100	38634.858632
603.722363	38755.614432
604.072572	38824.632869
604.422728	38843.380920
604.772830	38655.605501
605.122878	38751.316848
605.472872	38693.792241
605.822813	38969.356834
606.172701	38796.523395
606.522534	39022.354484
606.872314	39286.435329
607.222041	39055.893281
607.571714	39444.989699
607.921333	38897.157429
608.270899	39189.859424
608.620411	39519.152634
608.969870	39324.397738
609.319276	39335.316877
609.668627	39392.574302
610.017926	39862.624090
610.367171	40022.411023
610.716362	40108.390422
611.065500	40064.144215
611.414585	40262.997569
611.763616	40542.141381
612.112594	40468.089352
612.461518	40683.555829
612.810389	40966.480506
613.159207	40835.294560
613.507971	40930.378283
613.856682	41404.415623
614.205340	41275.989708
614.553945	41975.303611
614.902496	41429.631475
615.250994	41898.431056
615.599439	41967.444452
615.947830	42172.339630
616.296169	42235.888415
616.644454	42365.486398
616.992686	42541.364694
617.340864	43055.834609
617.688990	42784.688588
618.037063	43363.672668
618.385082	43335.404398
618.733048	43640.386644
619.080961	43655.406762
619.428821	43669.489225
619.776628	43768.656283
620.124382	43607.835914
620.472083	43725.289757
620.819731	43841.379969
621.167326	43536.183474
621.514868	43508.661294
621.862357	43066.000096
622.209793	43101.366310
622.557176	42782.518371
622.904506	42511.752957
623.251783	42174.035978
623.599007	41954.382823
623.946179	41749.855649
624.293297	41712.591440
624.640363	41124.344239
624.987376	41107.652979
625.334336	40880.153267
625.681243	40516.398729
626.028097	40502.129743
626.374899	40343.182162
626.721647	40323.698103
627.068343	40220.263708
627.414987	39976.639866
627.761577	39761.256568
628.108115	40106.517633
628.454600	39552.852748
628.801032	39729.265406
629.147412	39702.191889
629.493739	39726.959078
629.840014	39379.883198
630.186236	39705.498886
630.532405	39343.143268
630.878521	39559.597812
631.224585	39430.246845
631.570597	39136.491249
631.916556	39311.429369
632.262462	39269.925550
632.608316	39282.122622
632.954117	39173.034573
633.299866	39155.466152
633.645562	39070.696629
633.991206	38593.090152
634.336797	38171.538785
634.682336	38159.069491
635.027823	37911.967253
635.373257	37743.673373
635.718639	37494.315219
636.063968	37365.705302
636.409245	36806.870713
636.754470	36851.207661
637.099642	36620.085880
637.444762	36143.323797
637.789829	36299.891953
638.134845	35945.193847
638.479808	35907.682622
