Dividing Wavelength (nm)	Counts (n)	Blue Motor Position (mm): 35.000000	Red Motor Position (mm): 0.000000	
326.493990	1968.021091
326.888308	1968.021091
327.282561	1968.021091
327.676750	1944.360436
328.070874	1946.112237
328.464933	1954.818309
328.858929	1963.940277
329.252859	1975.308079
329.646726	1989.173773
330.040528	2004.571977
330.434265	2023.156191
330.827938	2047.144521
331.221547	2062.721687
331.615091	2082.601477
332.008571	2103.749117
332.401986	2124.092694
332.795338	2144.839562
333.188625	2164.568118
333.581847	2184.861283
333.975006	2202.056658
334.368100	2220.492158
334.761129	2236.686865
335.154095	2251.699421
335.546996	2290.949845
335.939833	2372.616537
336.332606	2384.680018
336.725315	2397.265259
337.117960	2407.861764
337.510540	2414.274112
337.903056	2424.908426
338.295508	2428.439754
338.687896	2438.910231
339.080220	2444.145469
339.472480	2450.209977
339.864676	2453.796758
340.256807	2457.144084
340.648875	2456.360185
341.040879	2461.434106
341.432818	2464.297482
341.824694	2462.202882
342.216506	2459.919239
342.608253	2464.075671
342.999937	2459.919239
343.391557	2459.838581
343.783113	2456.914712
344.174605	2457.035699
344.566033	2452.642334
344.957397	2453.862293
345.348697	2452.816254
345.739934	2450.678804
346.131106	2452.145780
346.522215	2448.712754
346.913260	2444.203442
347.304241	2445.120932
347.695159	2443.336364
348.086012	2442.522218
348.476802	2437.886877
348.867528	2440.898966
349.258191	2435.114242
349.648789	2434.605085
350.039324	2434.095929
350.429796	2434.035435
350.820203	2436.513162
351.210548	2434.095929
351.600828	2432.129879
351.991045	2432.104673
352.381198	2430.524271
352.771288	2432.765064
353.161314	2431.426638
353.551276	2431.335897
353.941175	2430.425969
354.331010	2428.502769
354.720782	2433.896803
355.110490	2433.712801
355.500135	2429.768098
355.889717	2431.300609
356.279235	2430.942687
356.668689	2432.565939
357.058080	2431.156936
357.447408	2428.835485
357.836672	2429.919333
358.225873	2431.686257
358.615010	2434.753799
359.004084	2434.771443
359.393095	2435.812442
359.782043	2437.478543
360.170927	2439.187494
360.559748	2437.375199
360.948505	2439.754624
361.337199	2438.481733
361.725830	2442.996086
362.114398	2441.536672
362.502903	2440.472988
362.891344	2443.159923
363.279722	2438.849737
363.668037	2440.261260
364.056289	2440.140272
364.444478	2443.139759
364.832603	2441.776127
365.220665	2444.793257
365.608665	2448.213680
365.996601	2446.945830
366.384474	2447.127312
366.772284	2447.560851
367.160031	2445.640171
367.547715	2446.439194
367.935336	2446.348453
368.322893	2448.127981
368.710388	2448.478341
369.097820	2447.903649
369.485189	2450.945986
369.872495	2451.654268
370.259738	2451.961778
370.646918	2452.659978
371.034035	2450.751901
371.421090	2454.560493
371.808081	2450.464555
372.195010	2452.481017
372.581875	2453.433795
372.968678	2451.039247
373.355418	2455.140226
373.742096	2455.898919
374.128710	2454.994032
374.515262	2457.489403
374.901751	2458.137192
375.288177	2458.472428
375.674540	2456.599640
376.060841	2461.955866
376.447079	2459.526029
376.833254	2458.477469
377.219367	2453.602674
377.605417	2457.242387
377.991404	2459.155505
378.377329	2457.648200
378.763191	2457.451595
379.148991	2463.405197
379.534727	2464.181535
379.920402	2465.313274
380.306013	2465.877883
380.691563	2464.736062
381.077049	2468.489201
381.462474	2463.763119
381.847835	2466.593727
382.233134	2465.774540
382.618371	2468.645477
383.003545	2467.911989
383.388657	2468.406022
383.773706	2470.543471
384.158693	2474.024388
384.543618	2470.450210
384.928480	2472.343163
385.313280	2474.770479
385.698017	2473.079172
386.082692	2473.921044
386.467305	2475.360294
386.851856	2475.622434
387.236344	2479.443628
387.620770	2473.220324
388.005133	2477.606128
388.389435	2477.724595
388.773674	2480.335912
389.157851	2484.336068
389.541965	2480.973618
389.926018	2480.799699
390.310008	2483.058136
390.693936	2482.901860
391.077802	2484.706593
391.461606	2481.938999
391.845348	2485.329175
392.229027	2483.849597
392.612645	2485.422437
392.996200	2486.687766
393.379694	2491.746564
393.763125	2491.464260
394.146494	2491.920484
394.529801	2493.132882
394.913047	2493.082470
395.296230	2493.987357
395.679351	2493.402583
396.062410	2494.521719
396.445408	2496.064312
396.828343	2496.500372
397.211217	2493.916781
397.594028	2497.957266
397.976778	2496.628922
398.359466	2500.084633
398.742092	2498.100939
399.124656	2502.068327
399.507158	2504.112515
399.889598	2506.824655
400.271977	2508.964625
400.654294	2508.301713
401.036549	2509.662825
401.418742	2507.956394
401.800874	2513.960409
402.182944	2515.059380
402.564952	2516.881757
402.946898	2517.960564
403.328783	2520.924763
403.710606	2521.408713
404.092367	2526.724610
404.474067	2528.146216
404.855705	2532.257277
405.237282	2533.651156
405.618797	2538.775488
406.000250	2543.693134
406.381642	2550.695297
406.762972	2555.005483
407.144240	2560.802810
407.525447	2567.787329
407.906593	2572.475602
408.287677	2586.023703
408.668700	2598.487956
409.049661	2612.603187
409.430560	2625.291771
409.811399	2640.672331
410.192176	2660.093376
410.572891	2679.219514
410.953545	2710.514997
411.334138	2722.351626
411.714669	2762.438882
412.095139	2770.976076
412.475547	2820.079435
412.855894	2847.639423
413.236180	2899.938873
413.616405	2930.614295
413.996568	2984.854589
414.376670	3036.743186
414.756711	3081.838828
415.136691	3154.751556
415.516609	3227.215622
415.896466	3296.034934
416.276262	3390.465828
416.655997	3504.075792
417.035670	3590.188782
417.415283	3741.257039
417.794834	3840.555167
418.174324	3909.319026
418.553753	3997.708097
418.933121	4161.369156
419.312428	4245.390068
419.691674	4340.861960
420.070859	4525.847100
420.449983	4595.972071
420.829045	4812.335873
421.208047	4896.376949
421.586988	5115.228561
421.965867	5305.756450
422.344686	5444.612512
422.723444	5720.961004
423.102141	5552.331887
423.480777	5992.853116
423.859352	6021.176839
424.237866	6472.879347
424.616319	6565.019037
424.994712	6918.948366
425.373044	7030.481374
425.751314	7430.900224
426.129524	7323.826116
426.507673	7869.876339
426.885762	7958.709032
427.263789	8220.574289
427.641756	8471.601065
428.019662	8683.677366
428.397508	8892.809634
428.775292	9204.809166
429.153016	9386.820025
429.530679	9609.674313
429.908282	9824.162807
430.285824	9878.486281
430.663305	10405.087732
431.040726	10412.399926
431.418086	10514.437921
431.795385	11029.908504
432.172624	11449.095570
432.549802	11409.530074
432.926920	11702.942872
433.303977	11821.800677
433.680974	12150.914926
434.057910	12515.352541
434.434786	12730.851785
434.811601	12875.885781
435.188355	13713.002145
435.565050	13692.497252
435.941683	13834.148634
436.318257	14594.382360
436.694770	14649.424198
437.071222	15237.797428
437.447614	14786.679694
437.823946	14963.659482
438.200218	15236.839609
438.576429	15240.640639
438.952580	15611.974552
439.328670	15742.177473
439.704700	16199.934407
440.080670	16024.542583
440.456580	16632.780479
440.832429	16917.668686
441.208218	16265.660971
441.583947	16729.051394
441.959616	16951.739324
442.335224	17282.731404
442.710773	17517.460130
443.086261	18101.687011
443.461689	17668.268768
443.837057	17902.735353
444.212365	18568.631447
444.587612	18690.854222
444.962800	18423.693233
445.337927	18898.287621
445.712995	17855.023353
446.088002	19592.827551
446.462949	19854.176090
446.837837	20093.293140
447.212664	20153.895371
447.587431	22784.021608
447.962139	25536.002616
448.336786	27788.054918
448.711374	26454.727699
449.085901	23171.577954
449.460369	23181.897196
449.834776	23176.498120
450.209124	25550.662292
450.583412	25203.004158
450.957640	25749.440029
451.331808	24551.931577
451.705917	23309.085508
452.079965	23384.763309
452.453954	23776.317290
452.827883	23714.432086
453.201752	23565.045053
453.575562	23747.958279
453.949311	24837.525545
454.323001	24930.270173
454.696632	24740.798406
455.070202	26254.785455
455.443713	26419.742091
455.817164	26998.128796
456.190556	27530.943469
456.563888	27025.593002
456.937160	27451.446993
457.310373	25888.172583
457.683526	26307.977190
458.056619	26311.241337
458.429653	26277.132890
458.802628	26851.829470
459.175542	26971.062841
459.548398	28240.500996
459.921194	29789.042635
460.293930	30480.043675
460.666607	32451.664150
461.039224	34176.676420
461.411782	34550.425045
461.784280	33369.562483
462.156719	32880.038718
462.529099	32299.151602
462.901419	31055.892158
463.273680	30044.717355
463.645882	30137.270419
464.018024	30119.767533
464.390106	30957.972786
464.762130	33596.593367
465.134094	37627.552915
465.505999	42871.076320
465.877845	47383.350114
466.249631	48476.766301
466.621358	46715.409832
466.993026	44543.557247
467.364634	42466.150679
467.736184	40552.019522
468.107674	39334.359058
468.479105	38576.083820
468.850477	37901.164060
469.221790	36502.561461
469.593043	34830.897201
469.964238	33981.419928
470.335373	33901.348761
470.706449	35522.324219
471.077467	38029.282465
471.448425	42536.822615
471.819324	45381.986831
472.190164	43583.035957
472.560945	40084.210528
472.931667	37027.257356
473.302330	35950.459333
473.672934	35157.274104
474.043479	35651.586965
474.413965	34894.403137
474.784393	34535.946852
475.154761	35404.845170
475.525070	35436.445642
475.895321	34982.688864
476.265513	35579.760605
476.635645	36511.978336
477.005719	36352.395570
477.375734	36804.960115
477.745691	37482.372725
478.115588	38779.761558
478.485427	40712.290406
478.855207	44013.737019
479.224928	46637.476114
479.594591	48238.087831
479.964194	47204.132053
480.333739	47288.100032
480.703226	47322.732759
481.072653	47943.707131
481.442022	48453.758474
481.811333	48725.993385
482.180584	47430.058925
482.549777	46926.104857
482.918912	46405.610763
483.287988	46113.780888
483.657005	45297.542463
484.025964	44646.747145
484.394864	44645.912834
484.763706	44217.969284
485.132489	43362.089746
485.501213	43204.238616
485.869879	43356.995660
486.238487	42962.653921
486.607036	43159.518541
486.975527	42640.146104
487.343959	42844.814429
487.712333	42921.034155
488.080648	42832.587111
488.448905	43258.269703
488.817104	43071.908328
489.185244	44007.647305
489.553326	45668.415110
489.921350	48378.546980
490.289315	51310.255205
490.657222	51952.193215
491.025070	52220.581725
491.392861	51314.956081
491.760593	50001.019660
492.128267	48296.406419
492.495883	46765.392872
492.863440	45392.474952
493.230939	44051.402000
493.598380	43006.890046
493.965763	42666.279445
494.333088	41891.247412
494.700354	41419.944898
495.067563	41147.750316
495.434713	41034.082379
495.801805	41093.557912
496.168839	40727.426470
496.535815	40403.103838
496.902733	40436.549373
497.269593	40040.400380
497.636395	39967.724586
498.003139	40361.189164
498.369825	39845.292603
498.736453	40125.200150
499.103023	39683.534579
499.469535	39556.474817
499.835989	39652.818828
500.202385	39313.700409
500.568723	39333.363430
500.935003	39532.922546
501.301226	39350.778096
501.667390	39927.924676
502.033497	40173.862408
502.399546	39604.887538
502.765537	38945.983524
503.131470	39316.636881
503.497345	39660.161269
503.863163	38357.995943
504.228923	38957.368970
504.594625	39354.652222
504.960269	38643.151330
505.325856	39327.203140
505.691385	38704.098880
506.056856	38823.009617
506.422270	39260.793500
506.787625	38846.234213
507.152924	39042.614882
507.518164	39118.975760
507.883347	38360.085501
508.248472	38606.360990
508.613540	39054.378414
508.978550	39353.941420
509.343503	39096.557748
509.708398	39292.313314
510.073236	39820.732101
510.438016	39825.130508
510.802738	39278.629102
511.167403	39880.615968
511.532010	40104.055030
511.896561	40398.060163
512.261053	41212.067878
512.625488	40765.477100
512.989866	40653.485346
513.354186	40488.647177
513.718449	40483.588379
514.082655	41138.870324
514.446803	40835.642399
514.810894	41334.159583
515.174927	41256.029260
515.538904	41166.107678
515.902822	41813.406955
516.266684	41267.381938
516.630488	41661.789212
516.994235	41532.103009
517.357925	42077.316400
517.721558	42243.581216
518.085133	42535.779096
518.448651	42679.341075
518.812112	42452.350520
519.175516	42553.392887
519.538863	42883.132240
519.902152	42856.449412
520.265385	43290.321359
520.628560	43335.737114
520.991678	43131.169612
521.354739	43366.702402
521.717743	43680.501626
522.080690	43580.807767
522.443580	44121.723575
522.806413	44163.736551
523.169189	44111.258140
523.531908	44286.806240
523.894569	44138.992048
524.257174	44314.015868
524.619722	44601.069250
524.982213	44579.576291
525.344647	44517.106312
525.707025	44558.897478
526.069345	44946.320233
526.431608	44880.202980
526.793815	45184.335792
527.155964	44721.406634
527.518057	44892.480710
527.880093	44675.219582
528.242072	45186.349733
528.603995	44897.358027
528.965860	44912.635243
529.327669	44994.740516
529.689421	44896.082615
530.051117	44855.927304
530.412755	45019.159865
530.774337	45088.881543
531.135862	44880.490326
531.497331	45077.110449
531.858743	44977.676210
532.220098	45317.470144
532.581396	45036.309871
532.942638	44698.290423
533.303824	44990.637017
533.664953	44958.595443
534.026025	44687.504874
534.387040	45145.723074
534.747999	45104.128513
535.108902	45264.134736
535.469748	44800.041072
535.830537	44918.697231
536.191270	45103.619357
536.551947	44765.055464
536.912567	45065.765333
537.273131	45169.489593
537.633638	44665.832954
537.994089	45029.476587
538.354483	44633.619981
538.714821	45185.349063
539.075103	45523.376073
539.435328	45310.538558
539.795497	45196.416917
540.155609	45191.491709
540.515665	45647.398540
540.875665	45118.689886
541.235609	45442.069823
541.595496	45395.907977
541.955328	46062.477065
542.315102	45460.555734
542.674821	45250.284166
543.034483	45264.054078
543.394090	45248.005565
543.753640	45222.373818
544.113134	46214.183028
544.472571	45247.808960
544.831953	46469.353633
545.191278	45696.459049
545.550548	45437.661334
545.909761	45887.095323
546.268918	46094.027127
546.628019	46388.208700
546.987064	45952.635364
547.346053	45253.422284
547.704986	46119.064017
548.063863	45694.384614
548.422684	45903.400935
548.781449	45763.662671
549.140158	46145.913203
549.498811	46002.220153
549.857408	45444.285410
550.215949	46269.429033
550.574434	46211.475929
550.932864	45993.738412
551.291237	46707.868266
551.649555	46314.418811
552.007817	46553.172898
552.366022	46203.031996
552.724173	46390.018475
553.082267	46786.830379
553.440305	47081.969772
553.798288	46409.986485
554.156215	46714.696509
554.514086	46930.609128
554.871902	46692.245730
555.229661	46696.508026
555.587365	46539.642441
555.945014	46634.022924
556.302606	46565.140597
556.660143	46789.837427
557.017625	46868.597894
557.375050	46675.123451
557.732421	47013.150460
558.089735	47002.879109
558.446994	46915.767971
558.804197	47388.572749
559.161345	47323.861978
559.518437	46588.647498
559.875474	46909.244718
560.232455	47056.045638
560.589381	47242.717045
560.946251	46923.191070
561.303065	47604.747508
561.659825	47420.178263
562.016528	47107.510778
562.373177	46821.042170
562.729770	47292.027091
563.086307	46817.483115
563.442789	47282.080895
563.799216	47324.348449
564.155587	47116.237015
564.511904	47139.378432
564.868164	47240.072960
565.224370	47480.309146
565.580520	47212.306284
565.936615	47417.022501
566.292654	47147.885379
566.648638	47386.369765
567.004567	47337.112651
567.360441	47371.450470
567.716260	47256.809590
568.072023	47513.726955
568.427732	47516.313067
568.783385	47057.928509
569.138982	47461.997155
569.494525	47430.373997
569.850013	47177.179524
570.205445	47156.593973
570.560823	47114.916233
570.916145	46982.399422
571.271412	47000.754263
571.626625	46769.856814
571.981782	46816.555543
572.336884	46517.345418
572.691931	46826.968046
573.046923	46434.889785
573.401860	46277.124355
573.756743	46254.240037
574.111570	46373.901906
574.466342	46247.169819
574.821059	46353.240737
575.175722	45874.046296
575.530330	45888.199336
575.884882	45630.520757
576.239380	45573.603609
576.593823	45551.203242
576.948211	45477.345297
577.302544	44992.840001
577.656823	45041.648452
578.011047	45253.384476
578.365216	44976.506663
578.719330	44792.950689
579.073389	44618.040295
579.427394	44702.535074
579.781344	44683.119070
580.135239	44349.603894
580.489080	44428.964258
580.842866	43916.223459
581.196597	44365.410432
581.550273	44310.882791
581.903895	44169.208724
582.257463	44606.312050
582.610975	43980.707379
582.964434	44276.086227
583.317837	43907.441769
583.671186	43764.474646
584.024481	43973.753107
584.377721	43519.167059
584.730906	43802.041325
585.084037	43816.965661
585.437113	43548.355340
585.790135	43594.348307
586.143103	43179.443701
586.496016	43309.921366
586.848874	43321.924353
587.201679	43354.679250
587.554428	42837.159437
587.907124	43019.427396
588.259765	42774.848255
588.612352	42999.282945
588.964884	42424.447734
589.317362	42713.794841
589.669786	42640.816577
590.022155	42437.990793
590.374470	42833.449148
590.726731	42370.136863
591.078937	41897.110274
591.431090	41985.902637
591.783188	41645.158446
592.135232	41339.876251
592.487222	41565.997207
592.839157	41667.372290
593.191038	41330.585405
593.542866	41105.702052
593.894639	40514.495694
594.246358	40789.959463
594.598022	40763.717737
594.949633	40380.237164
595.301190	40318.601496
595.652692	40172.075319
596.004141	40477.690229
596.355535	39523.709837
596.706876	39482.546296
597.058162	39322.048560
597.409395	39772.556315
597.760573	39844.591882
598.111698	39430.183831
598.462768	39432.021331
598.813785	39481.212910
599.164748	38939.724932
599.515657	39330.472328
599.866511	38808.365065
600.217312	39398.994212
600.568060	38395.789473
600.918753	39121.556830
601.269392	39083.544010
601.619978	38739.225640
601.970510	38956.108682
602.320988	39140.352772
602.671412	39428.348851
603.021783	39183.588228
603.372100	38836.219961
603.722363	38949.136766
604.072572	39019.838949
604.422728	39029.071822
604.772830	38851.706386
605.122878	38925.178682
605.472872	38886.618897
605.822813	39155.249382
606.172701	38983.943413
606.522534	39214.815656
606.872314	39477.971448
607.222041	39235.249973
607.571714	39604.423752
607.921333	39079.009492
608.270899	39359.280002
608.620411	39716.720495
608.969870	39503.540181
609.319276	39497.553811
609.668627	39561.369777
610.017926	40018.171412
610.367171	40157.929841
610.716362	40268.694073
611.065500	40218.758924
611.414585	40411.618347
611.763616	40698.018899
612.112594	40623.561057
612.461518	40852.159740
612.810389	41128.851031
613.159207	40985.830975
613.507971	41063.162275
613.856682	41527.825590
614.205340	41409.855028
614.553945	42109.884775
614.902496	41581.730648
615.250994	42028.797815
615.599439	42111.429888
615.947830	42313.068481
616.296169	42367.555792
616.644454	42491.411901
616.992686	42664.257943
617.340864	43170.593956
617.688990	42904.584870
618.037063	43490.316535
618.385082	43470.469513
618.733048	43762.518678
619.080961	43772.664001
619.428821	43784.825784
619.776628	43883.997883
620.124382	43718.090990
620.472083	43832.207589
620.819731	43961.626611
621.167326	43622.283861
621.514868	43612.365391
621.862357	43165.653625
622.209793	43195.663614
622.557176	42865.394940
622.904506	42618.922846
623.251783	42273.692028
623.599007	42040.543704
623.946179	41837.249092
624.293297	41798.706951
624.640363	41203.933976
624.987376	41190.973169
625.334336	40932.298963
625.681243	40591.259864
626.028097	40571.339744
626.374899	40420.253843
626.721647	40385.230427
627.068343	40270.047623
627.414987	40053.608203
627.761577	39812.343621
628.108115	40168.402838
628.454600	39636.994647
628.801032	39809.271038
629.147412	39781.209455
629.493739	39788.052822
629.840014	39436.455026
630.186236	39766.287640
630.532405	39396.201413
630.878521	39600.642886
631.224585	39472.705963
631.570597	39190.068632
631.916556	39363.978357
632.262462	39307.509872
632.608316	39317.274587
632.954117	39215.327333
633.299866	39213.953619
633.645562	39130.232656
633.991206	38633.578179
634.336797	38209.891884
634.682336	38201.437869
635.027823	37956.160528
635.373257	37769.499204
635.718639	37528.511886
636.063968	37392.236894
