Dividing Wavelength (nm)	Counts (n)	Blue Motor Position (mm): 23.000000	Red Motor Position (mm): 0.000000	
326.493990	1972.769858
326.888308	1972.769858
327.282561	1972.769858
327.676750	1947.296908
328.070874	1951.569286
328.464933	1955.433330
328.858929	1966.687706
329.252859	1976.298666
329.646726	1993.932622
330.040528	2007.261433
330.434265	2024.963444
330.827938	2044.071938
331.221547	2066.661348
331.615091	2086.662126
332.008571	2108.419746
332.401986	2128.120576
332.795338	2148.880047
333.188625	2169.843685
333.581847	2187.676767
333.975006	2206.893646
334.368100	2223.968034
334.761129	2239.325909
335.154095	2254.454412
335.546996	2290.256686
335.939833	2358.556759
336.332606	2373.849099
336.725315	2382.577857
337.117960	2390.588251
337.510540	2400.242060
337.903056	2410.384862
338.295508	2418.296953
338.687896	2426.138468
339.080220	2428.023859
339.472480	2433.284303
339.864676	2439.368976
340.256807	2441.370314
340.648875	2446.560182
341.040879	2443.434666
341.432818	2446.960953
341.824694	2445.778803
342.216506	2446.678649
342.608253	2448.553958
342.999937	2447.245779
343.391557	2443.943823
343.783113	2443.580860
344.174605	2442.940633
344.566033	2441.801332
344.957397	2440.528441
345.348697	2436.608944
345.739934	2435.638522
346.131106	2433.816145
346.522215	2433.400250
346.913260	2426.365319
347.304241	2430.078129
347.695159	2424.976482
348.086012	2426.166194
348.476802	2423.552356
348.867528	2421.848446
349.258191	2423.330545
349.648789	2420.401634
350.039324	2420.454567
350.429796	2420.383990
350.820203	2418.047416
351.210548	2419.068249
351.600828	2415.090779
351.991045	2415.652868
352.381198	2414.024575
352.771288	2415.761252
353.161314	2413.664132
353.551276	2414.987435
353.941175	2411.476272
354.331010	2415.557086
354.720782	2418.319638
355.110490	2417.906263
355.500135	2415.012641
355.889717	2414.165727
356.279235	2412.973494
356.668689	2417.427354
357.058080	2414.216139
357.447408	2416.479617
357.836672	2410.460479
358.225873	2417.515574
358.615010	2415.743608
359.004084	2417.775193
359.393095	2418.816192
359.782043	2420.620925
360.170927	2419.128743
360.559748	2419.249731
360.948505	2421.545976
361.337199	2423.549835
361.725830	2423.038158
362.114398	2423.317942
362.502903	2423.983374
362.891344	2424.464804
363.279722	2423.494382
363.668037	2425.568817
364.056289	2425.273910
364.444478	2425.465473
364.832603	2426.597212
365.220665	2426.282140
365.608665	2427.658375
365.996601	2427.549991
366.384474	2426.866914
366.772284	2427.812131
367.160031	2426.882038
367.547715	2429.720207
367.935336	2429.231215
368.322893	2427.807089
368.710388	2428.971596
369.097820	2432.084508
369.485189	2429.193407
369.872495	2434.277410
370.259738	2431.517379
370.646918	2431.930753
371.034035	2430.935125
371.421090	2433.727925
371.808081	2431.540064
372.195010	2431.245156
372.581875	2433.644746
372.968678	2434.277410
373.355418	2435.270518
373.742096	2433.410332
374.128710	2434.544592
374.515262	2434.131217
374.901751	2436.888728
375.288177	2437.415529
375.674540	2435.731783
376.060841	2436.243460
376.447079	2435.005857
376.833254	2435.283121
377.219367	2432.505445
377.605417	2434.746238
377.991404	2432.124838
378.377329	2433.755651
378.763191	2434.809252
379.148991	2437.902000
379.534727	2439.353852
379.920402	2439.467278
380.306013	2438.489294
380.691563	2442.018102
381.077049	2439.694130
381.462474	2440.639347
381.847835	2441.766044
382.233134	2442.204625
382.618371	2443.079265
383.003545	2439.242947
383.388657	2441.602207
383.773706	2442.038267
384.158693	2444.921807
384.543618	2444.374842
384.928480	2444.349636
385.313280	2444.894080
385.698017	2445.456169
386.082692	2444.936930
386.467305	2445.229317
386.851856	2444.435335
387.236344	2446.580346
387.620770	2447.812908
388.005133	2445.370469
388.389435	2444.616817
388.773674	2445.264605
389.157851	2447.180244
389.541965	2447.495316
389.926018	2448.017075
390.310008	2449.103444
390.693936	2447.938937
391.077802	2448.800975
391.461606	2449.221911
391.845348	2445.562033
392.229027	2451.293825
392.612645	2450.588064
392.996200	2451.664350
393.379694	2449.942796
393.763125	2453.078394
394.146494	2449.131170
394.529801	2450.517487
394.913047	2451.132508
395.296230	2452.705348
395.679351	2455.046964
396.062410	2447.754935
396.445408	2452.014710
396.828343	2452.866665
397.211217	2449.060594
397.594028	2453.650565
397.976778	2448.463217
398.359466	2451.387087
398.742092	2448.097734
399.124656	2453.907663
399.507158	2452.115533
399.889598	2454.615946
400.271977	2455.709876
400.654294	2453.370781
401.036549	2456.670216
401.418742	2454.802468
401.800874	2457.174331
402.182944	2453.942952
402.564952	2455.205761
402.946898	2457.789352
403.328783	2457.733899
403.710606	2460.365382
404.092367	2461.386215
404.474067	2456.589557
404.855705	2459.447892
405.237282	2459.853704
405.618797	2458.454784
406.000250	2459.490741
406.381642	2458.084259
406.762972	2457.675926
407.144240	2463.160701
407.525447	2460.632563
407.906593	2462.470063
408.287677	2460.309929
408.668700	2463.720269
409.049661	2462.144909
409.430560	2462.913685
409.811399	2463.132975
410.192176	2462.893520
410.572891	2462.971658
410.953545	2462.563325
411.334138	2465.673717
411.714669	2463.349745
412.095139	2466.276134
412.475547	2464.768829
412.855894	2465.693881
413.236180	2464.604992
413.616405	2465.517441
413.996568	2464.635239
414.376670	2466.654221
414.756711	2466.767647
415.136691	2466.165229
415.516609	2467.004581
415.896466	2469.411732
416.276262	2470.014150
416.655997	2469.320991
417.035670	2466.220682
417.415283	2468.978193
417.794834	2464.441154
418.174324	2471.534058
418.553753	2472.002885
418.933121	2472.305354
419.312428	2472.796867
419.691674	2469.875518
420.070859	2475.871971
420.449983	2473.122021
420.829045	2470.702267
421.208047	2474.198308
421.586988	2471.977679
421.965867	2475.647639
422.344686	2472.721250
422.723444	2475.652681
423.102141	2472.267546
423.480777	2475.511528
423.859352	2475.501446
424.237866	2479.902373
424.616319	2477.815336
424.994712	2475.435911
425.373044	2476.330716
425.751314	2478.042188
426.129524	2477.853144
426.507673	2477.041518
426.885762	2479.431025
427.263789	2480.323310
427.641756	2478.606797
428.019662	2482.233907
428.397508	2483.456387
428.775292	2479.776344
429.153016	2480.903042
429.530679	2480.025882
429.908282	2485.026706
430.285824	2481.165182
430.663305	2484.462097
431.040726	2484.759525
431.418086	2482.145687
431.795385	2483.143835
432.172624	2484.966212
432.549802	2484.867910
432.926920	2487.607777
433.303977	2484.870430
433.680974	2486.965030
434.057910	2485.243476
434.434786	2487.781697
434.811601	2490.385453
435.188355	2490.710607
435.565050	2490.062819
435.941683	2487.494351
436.318257	2488.454691
436.694770	2485.608959
437.071222	2489.447798
437.447614	2488.938642
437.823946	2487.872437
438.200218	2490.766060
438.576429	2491.262613
438.952580	2492.754795
439.328670	2495.068685
439.704700	2494.183962
440.080670	2492.001142
440.456580	2491.938128
440.832429	2492.139774
441.208218	2493.432830
441.583947	2496.117245
441.959616	2493.919302
442.335224	2495.043479
442.710773	2496.356699
443.086261	2496.765033
443.461689	2498.952894
443.837057	2498.942811
444.212365	2500.283758
444.587612	2498.201762
444.962800	2499.981289
445.337927	2501.720487
445.712995	2500.704695
446.088002	2502.685868
446.462949	2504.972031
446.837837	2505.090498
447.212664	2505.834069
447.587431	2515.039216
447.962139	2518.820081
448.336786	2524.209074
448.711374	2523.803262
449.085901	2518.326048
449.460369	2517.905112
449.834776	2517.411078
450.209124	2524.292253
450.583412	2524.889630
450.957640	2524.385515
451.331808	2526.986750
451.705917	2521.905267
452.079965	2527.120341
452.453954	2526.404497
452.827883	2530.896165
453.201752	2528.667975
453.575562	2532.771474
453.949311	2534.558563
454.323001	2536.322967
454.696632	2540.363452
455.070202	2542.450490
455.443713	2544.857641
455.817164	2545.016437
456.190556	2547.136242
456.563888	2549.976932
456.937160	2548.774617
457.310373	2550.259237
457.683526	2553.357026
458.056619	2557.402552
458.429653	2554.324927
458.802628	2559.986143
459.175542	2562.562173
459.548398	2569.856723
459.921194	2575.989286
460.293930	2583.906418
460.666607	2591.841194
461.039224	2601.358893
461.411782	2608.595469
461.784280	2605.243102
462.156719	2606.914244
462.529099	2606.117742
462.901419	2606.180757
463.273680	2607.816611
463.645882	2611.826849
464.018024	2617.412447
464.390106	2624.185237
464.762130	2644.067548
465.134094	2677.399657
465.505999	2718.399362
465.877845	2752.447315
466.249631	2765.655138
466.621358	2762.045672
466.993026	2761.720517
467.364634	2760.477873
467.736184	2757.198602
468.107674	2763.764705
468.479105	2772.937085
468.850477	2777.832045
469.221790	2780.965122
469.593043	2782.059052
469.964238	2790.104734
470.335373	2803.849440
470.706449	2841.413598
471.077467	2892.261196
471.448425	2970.404122
471.819324	3031.429810
472.190164	3030.298071
472.560945	3008.938702
472.931667	2997.215499
473.302330	3011.078672
473.672934	3025.539222
474.043479	3068.918350
474.413965	3085.498705
474.784393	3109.096347
475.154761	3164.964934
475.525070	3201.495655
475.895321	3233.418762
476.265513	3287.838018
476.635645	3357.446270
477.005719	3405.294382
477.375734	3467.204792
477.745691	3544.246226
478.115588	3644.545023
478.485427	3775.957821
478.855207	3979.834686
479.224928	4167.715969
479.594591	4313.669976
479.964194	4343.246425
480.333739	4424.061163
480.703226	4527.757697
481.072653	4673.295809
481.442022	4817.092202
481.811333	4945.603816
482.180584	4980.183611
482.549777	5065.878185
482.918912	5159.298328
483.287988	5263.541827
483.657005	5328.807126
484.025964	5409.674795
484.394864	5528.028485
484.763706	5624.866529
485.132489	5698.885791
485.501213	5818.749306
485.869879	5971.135825
486.238487	6085.587662
486.607036	6250.735862
486.975527	6358.853488
487.343959	6530.991248
487.712333	6704.555654
488.080648	6847.197623
488.448905	7070.210707
488.817104	7230.537044
489.185244	7530.949484
489.553326	7965.832182
489.921350	8565.404335
490.289315	9228.943690
490.657222	9578.938398
491.025070	9862.125216
491.392861	9937.339231
491.760593	9949.808525
492.128267	9889.087827
492.495883	9854.727322
492.863440	9851.924441
493.230939	9846.558133
493.598380	9883.189677
493.965763	10053.933558
494.333088	10150.307817
494.700354	10293.204363
495.067563	10475.656324
495.434713	10685.121308
495.801805	10951.100146
496.168839	11116.714653
496.535815	11285.941146
496.902733	11540.287523
497.269593	11703.411699
497.636395	11940.628235
498.003139	12288.659414
498.369825	12426.295517
498.736453	12768.610028
499.103023	12923.723811
499.469535	13165.943691
499.835989	13468.362511
500.202385	13638.940033
500.568723	13918.653496
500.935003	14266.031845
501.301226	14486.201719
501.667390	14966.898423
502.033497	15345.216855
502.399546	15442.823676
502.765537	15490.843187
503.131470	15913.052424
503.497345	16340.383474
503.863163	16147.728218
504.228923	16663.665108
504.594625	17131.640461
504.960269	17151.696692
505.325856	17736.788131
505.691385	17777.228267
506.056856	18142.338875
506.422270	18645.637593
506.787625	18774.308004
507.152924	19155.457043
507.518164	19509.507360
507.883347	19454.583989
508.248472	19876.405057
508.613540	20411.536141
508.978550	20863.155470
509.343503	21044.780682
509.708398	21450.969132
510.073236	22031.657123
510.438016	22346.202438
510.802738	22354.696782
511.167403	22993.196725
511.532010	23444.972330
511.896561	23923.760958
512.261053	24713.369488
512.625488	24762.820686
512.989866	24992.062116
513.354186	25201.259919
513.718449	25479.219059
514.082655	26206.599586
514.446803	26300.717928
514.810894	26923.028206
515.174927	27162.036872
515.538904	27401.436227
515.902822	28115.651780
516.266684	28032.497947
516.630488	28610.751061
516.994235	28791.373083
517.357925	29446.360120
517.721558	29853.473622
518.085133	30328.511631
518.448651	30697.942509
518.812112	30812.515333
519.175516	31139.388789
519.538863	31644.220018
519.902152	31873.819370
520.265385	32472.945381
520.628560	32752.235386
520.991678	32826.547035
521.354739	33256.348250
521.717743	33739.404215
522.080690	33886.114394
522.443580	34561.119853
522.806413	34834.491544
523.169189	35028.671749
523.531908	35384.909927
523.894569	35496.072410
524.257174	35843.203743
524.619722	36307.582233
524.982213	36497.273290
525.344647	36651.618298
525.707025	36876.274798
526.069345	37422.945083
526.431608	37538.231230
526.793815	37983.458376
527.155964	37790.251114
527.518057	38117.553069
527.880093	38109.696430
528.242072	38741.327802
528.603995	38666.985906
528.965860	38818.447373
529.327669	39083.549051
529.689421	39155.680401
530.051117	39270.651476
530.412755	39559.214684
530.774337	39772.820975
531.135862	39742.979865
531.497331	40071.869783
531.858743	40129.560748
532.220098	40576.380898
532.581396	40431.772880
532.942638	40264.948496
533.303824	40662.380462
533.664953	40759.281522
534.026025	40633.928190
534.387040	41173.649244
534.747999	41231.430950
535.108902	41508.722138
535.469748	41186.773888
535.830537	41385.924671
536.191270	41683.206554
536.551947	41466.310910
536.912567	41825.848523
537.273131	42048.967472
537.633638	41657.726042
537.994089	42062.734863
538.354483	41794.535396
538.714821	42398.702561
539.075103	42820.037158
539.435328	42694.046121
539.795497	42660.106553
540.155609	42728.585586
540.515665	43247.942900
540.875665	42794.801142
541.235609	43165.946012
541.595496	43208.526118
541.955328	43931.546046
542.315102	43393.491093
542.674821	43259.890434
543.034483	43359.637225
543.394090	43377.765214
543.753640	43419.304322
544.113134	44431.827633
544.472571	43554.359354
544.831953	44791.264423
545.191278	44086.800982
545.550548	43893.147578
545.909761	44370.171801
546.268918	44624.732427
546.628019	44958.388756
546.987064	44585.789513
547.346053	43928.007156
547.704986	44829.932594
548.063863	44434.242346
548.422684	44678.677814
548.781449	44576.513790
549.140158	44987.297252
549.498811	44874.390530
549.857408	44362.743661
550.215949	45209.690275
550.574434	45170.276013
550.932864	44977.063710
551.291237	45716.290948
551.649555	45367.680036
552.007817	45615.997193
552.366022	45317.535679
552.724173	45493.666033
553.082267	45905.543425
553.440305	46225.956643
553.798288	45597.513802
554.156215	45907.832109
554.514086	46139.599157
554.871902	45898.644606
555.229661	45948.083202
555.587365	45803.084494
555.945014	45901.596202
556.302606	45846.902203
556.660143	46081.293172
557.017625	46181.924685
557.375050	45998.547673
557.732421	46359.902622
558.089735	46349.439707
558.446994	46279.370189
558.804197	46747.476612
559.161345	46705.035137
559.518437	45996.674884
559.875474	46291.925182
560.232455	46471.594426
560.589381	46648.586817
560.946251	46346.904006
561.303065	47042.752116
561.659825	46859.838890
562.016528	46552.570480
562.373177	46290.710264
562.729770	46773.980478
563.086307	46289.288659
563.442789	46761.599404
563.799216	46809.616394
564.155587	46623.933054
564.511904	46629.934548
564.868164	46757.654701
565.224370	47000.963471
565.580520	46730.296359
565.936615	46948.419524
566.292654	46687.456634
566.648638	46921.865247
567.004567	46897.725681
567.360441	46913.161694
567.716260	46800.940569
568.072023	47095.971577
568.427732	47094.413860
568.783385	46645.403328
569.138982	47033.486475
569.494525	47005.702156
569.850013	46770.295394
570.205445	46762.209384
570.560823	46696.911318
570.916145	46591.344515
571.271412	46627.900442
571.626625	46378.217133
571.981782	46441.960003
572.336884	46147.191135
572.691931	46470.392111
573.046923	46074.273365
573.401860	45913.778150
573.756743	45901.366829
574.111570	46025.298556
574.466342	45887.480971
574.821059	45997.015162
575.175722	45531.547783
575.530330	45555.735239
575.884882	45294.381659
576.239380	45251.063024
576.593823	45226.331124
576.948211	45149.945040
577.302544	44695.805134
577.656823	44735.025311
578.011047	44948.140090
578.365216	44689.995204
578.719330	44477.843286
579.073389	44333.406666
579.427394	44433.579434
579.781344	44408.537503
580.135239	44058.338627
580.489080	44148.033357
580.842866	43633.621416
581.196597	44093.084780
581.550273	44032.739648
581.903895	43904.240637
582.257463	44315.102237
582.610975	43708.888363
582.964434	44001.368548
583.317837	43646.136080
583.671186	43485.973581
584.024481	43711.048498
584.377721	43265.944860
584.730906	43537.534503
585.084037	43569.870984
585.437113	43293.167091
585.790135	43332.672093
586.143103	42934.894807
586.496016	43057.843509
586.848874	43073.105602
587.201679	43103.591980
587.554428	42594.387550
587.907124	42771.405147
588.259765	42546.552042
588.612352	42801.175681
588.964884	42206.705176
589.317362	42477.435302
589.669786	42421.188628
590.022155	42205.422202
590.374470	42615.850263
590.726731	42164.931654
591.078937	41675.002077
591.431090	41776.893878
591.783188	41437.624224
592.135232	41124.702161
592.487222	41373.757846
592.839157	41475.059833
593.191038	41133.239355
593.542866	40902.031875
593.894639	40320.754069
594.246358	40589.361869
594.598022	40556.211242
594.949633	40180.914982
595.301190	40146.894755
595.652692	39989.499850
596.004141	40304.410648
596.355535	39343.851550
596.706876	39302.594747
597.058162	39135.523347
597.409395	39594.538049
597.760573	39675.516624
598.111698	39253.856872
598.462768	39258.817367
598.813785	39302.035179
599.164748	38766.294116
599.515657	39163.589971
599.866511	38641.581011
600.217312	39251.558106
600.568060	38236.425997
600.918753	38965.938932
601.269392	38933.728479
601.619978	38582.125643
601.970510	38805.715939
602.320988	38977.306734
602.671412	39276.342939
603.021783	39018.581181
603.372100	38691.092703
603.722363	38802.343407
604.072572	38861.592088
604.422728	38887.382631
604.772830	38701.139723
605.122878	38803.066813
605.472872	38728.147705
605.822813	39025.132160
606.172701	38855.141932
606.522534	39077.182074
606.872314	39334.926187
607.222041	39109.619378
607.571714	39489.296401
607.921333	38945.512176
608.270899	39224.643385
608.620411	39562.985467
608.969870	39366.410714
609.319276	39368.696877
609.668627	39421.016492
610.017926	39898.345706
610.367171	40053.817411
610.716362	40139.454012
611.065500	40096.906674
611.414585	40284.263677
611.763616	40576.567421
612.112594	40502.885916
612.461518	40733.180947
612.810389	41017.229802
613.159207	40870.338141
613.507971	40962.855917
613.856682	41436.333689
614.205340	41309.906592
614.553945	41995.130469
614.902496	41466.494912
615.250994	41926.076744
615.599439	41995.160716
615.947830	42219.976013
616.296169	42262.898918
616.644454	42395.375399
616.992686	42561.456213
617.340864	43090.124537
617.688990	42812.646827
618.037063	43408.788475
618.385082	43371.236920
618.733048	43678.850648
619.080961	43690.273903
619.428821	43701.480388
619.776628	43790.139160
620.124382	43619.478459
620.472083	43749.275567
620.819731	43879.415474
621.167326	43555.125609
621.514868	43534.565263
621.862357	43092.519085
622.209793	43125.556287
622.557176	42803.504694
622.904506	42543.340827
623.251783	42194.326622
623.599007	41980.979950
623.946179	41770.231993
624.293297	41739.178486
624.640363	41142.809986
624.987376	41132.949489
625.334336	40889.383620
625.681243	40540.863449
626.028097	40504.826761
626.374899	40358.698834
626.721647	40332.343682
627.068343	40228.626982
627.414987	40001.344041
627.761577	39779.127459
628.108115	40116.957863
628.454600	39557.190661
628.801032	39760.253379
629.147412	39722.631247
629.493739	39731.851518
629.840014	39378.038135
630.186236	39727.692566
630.532405	39358.405362
630.878521	39568.366899
631.224585	39443.651273
631.570597	39161.581071
631.916556	39328.160959
632.262462	39280.214545
632.608316	39282.354515
632.954117	39180.157723
633.299866	39163.980661
633.645562	39076.110828
633.991206	38593.352292
634.336797	38188.870272
634.682336	38189.447484
635.027823	37923.423275
635.373257	37753.080166
635.718639	37512.080245
636.063968	37381.615183
636.409245	36796.667417
636.754470	36850.479214
637.099642	36630.455534
637.444762	36154.641187
637.789829	36304.771790
638.134845	35953.703315
638.479808	35903.969812
