Dividing Wavelength (nm)	Counts (n)	Blue Motor Position (mm): 29.400000	Red Motor Position (mm): 0.000000	
326.493990	1972.616103
326.888308	1972.616103
327.282561	1972.616103
327.676750	1945.900508
328.070874	1949.484768
328.464933	1955.350151
328.858929	1966.196193
329.252859	1976.896042
329.646726	1991.207878
330.040528	2004.909734
330.434265	2024.744154
330.827938	2044.538245
331.221547	2064.367623
331.615091	2083.846642
332.008571	2105.952102
332.401986	2125.715945
332.795338	2146.384676
333.188625	2168.827893
333.581847	2186.088804
333.975006	2203.480784
334.368100	2220.966027
334.761129	2237.972359
335.154095	2254.741757
335.546996	2293.578807
335.939833	2370.605117
336.332606	2383.843187
336.725315	2391.636811
337.117960	2403.291958
337.510540	2411.652712
337.903056	2417.250913
338.295508	2426.151070
338.687896	2436.659356
339.080220	2440.979624
339.472480	2445.120932
339.864676	2449.816767
340.256807	2454.265585
340.648875	2456.733230
341.040879	2452.639813
341.432818	2457.131481
341.824694	2458.754733
342.216506	2458.016204
342.608253	2458.333797
342.999937	2454.651234
343.391557	2455.399845
343.783113	2455.377160
344.174605	2454.724330
344.566033	2449.753753
344.957397	2449.741150
345.348697	2446.237548
345.739934	2446.073710
346.131106	2445.436004
346.522215	2445.665377
346.913260	2438.877463
347.304241	2438.519541
347.695159	2437.155909
348.086012	2437.337391
348.476802	2434.267328
348.867528	2436.901331
349.258191	2431.724066
349.648789	2434.176587
350.039324	2427.978489
350.429796	2432.916299
350.820203	2426.027562
351.210548	2431.255239
351.600828	2426.418252
351.991045	2426.388005
352.381198	2425.588982
352.771288	2427.338262
353.161314	2423.832140
353.551276	2426.554363
353.941175	2422.962541
354.331010	2427.597882
354.720782	2427.078643
355.110490	2427.474373
355.500135	2426.229208
355.889717	2424.366502
356.279235	2426.060330
356.668689	2427.938159
357.058080	2429.067378
357.447408	2425.286512
357.836672	2423.708631
358.225873	2426.060330
358.615010	2428.152408
359.004084	2431.240115
359.393095	2432.192893
359.782043	2435.250353
360.170927	2431.782039
360.559748	2433.669951
360.948505	2433.254056
361.337199	2437.254212
361.725830	2433.622060
362.114398	2435.172215
362.502903	2433.107863
362.891344	2436.939140
363.279722	2433.334715
363.668037	2439.263112
364.056289	2432.697009
364.444478	2437.932247
364.832603	2438.317895
365.220665	2436.419901
365.608665	2438.857299
365.996601	2439.689089
366.384474	2438.058276
366.772284	2443.207814
367.160031	2441.347629
367.547715	2440.735128
367.935336	2438.433842
368.322893	2441.627413
368.710388	2444.226127
369.097820	2445.463731
369.485189	2442.832248
369.872495	2443.832917
370.259738	2445.244441
370.646918	2445.471292
371.034035	2448.919442
371.421090	2444.964657
371.808081	2446.555141
372.195010	2446.214863
372.581875	2446.686211
372.968678	2447.691921
373.355418	2446.615634
373.742096	2448.949689
374.128710	2447.886005
374.515262	2448.558999
374.901751	2448.362394
375.288177	2451.981943
375.674540	2446.839966
376.060841	2451.503033
376.447079	2451.235852
376.833254	2450.678804
377.219367	2447.054215
377.605417	2449.640327
377.991404	2449.753753
378.377329	2450.666202
378.763191	2450.769545
379.148991	2454.575616
379.534727	2455.752726
379.920402	2458.860597
380.306013	2455.661985
380.691563	2458.043930
381.077049	2455.130143
381.462474	2456.067798
381.847835	2457.312963
382.233134	2455.868672
382.618371	2456.450926
383.003545	2458.285906
383.388657	2456.380349
383.773706	2461.124075
384.158693	2459.679785
384.543618	2461.126596
384.928480	2461.570217
385.313280	2460.463684
385.698017	2457.912860
386.082692	2461.885289
386.467305	2464.617595
386.851856	2463.599282
387.236344	2462.265897
387.620770	2462.152471
388.005133	2464.357975
388.389435	2464.403346
388.773674	2466.145064
389.157851	2467.218830
389.541965	2467.145733
389.926018	2465.343521
390.310008	2468.456433
390.693936	2464.239508
391.077802	2468.406022
391.461606	2469.278142
391.845348	2470.606486
392.229027	2470.387195
392.612645	2470.152782
392.996200	2472.441466
393.379694	2469.623461
393.763125	2472.421301
394.146494	2472.088585
394.529801	2473.651342
394.913047	2474.480612
395.296230	2477.313741
395.679351	2469.769654
396.062410	2472.559933
396.445408	2474.578915
396.828343	2475.040180
397.211217	2471.723101
397.594028	2474.281487
397.976778	2470.971969
398.359466	2477.827938
398.742092	2468.514407
399.124656	2476.469348
399.507158	2479.055459
399.889598	2480.131746
400.271977	2477.167547
400.654294	2479.083186
401.036549	2480.986221
401.418742	2479.728453
401.800874	2482.972436
402.182944	2480.908083
402.564952	2483.468990
402.946898	2483.589977
403.328783	2485.982005
403.710606	2484.898157
404.092367	2485.576192
404.474067	2484.336068
404.855705	2489.077273
405.237282	2487.650627
405.618797	2487.234732
406.000250	2492.931235
406.381642	2490.360247
406.762972	2491.534836
407.144240	2490.829074
407.525447	2493.498365
407.906593	2488.855463
408.287677	2491.532315
408.668700	2491.764208
409.049661	2493.826040
409.430560	2493.619353
409.811399	2495.038438
410.192176	2494.950218
410.572891	2495.333345
410.953545	2497.392657
411.334138	2495.671103
411.714669	2497.254025
412.095139	2496.291164
412.475547	2495.885352
412.855894	2496.356699
413.236180	2500.422390
413.616405	2498.962976
413.996568	2500.941629
414.376670	2501.927174
414.756711	2501.236536
415.136691	2502.282576
415.516609	2505.317350
415.896466	2503.822648
416.276262	2504.498163
416.655997	2504.972031
417.035670	2506.325581
417.415283	2509.370438
417.794834	2506.728873
418.174324	2512.029647
418.553753	2509.753566
418.933121	2511.971673
419.312428	2512.062414
419.691674	2513.347908
420.070859	2516.246572
420.449983	2519.188085
420.829045	2517.988291
421.208047	2520.839063
421.586988	2522.268230
421.965867	2523.861235
422.344686	2524.355268
422.723444	2525.988602
423.102141	2525.502130
423.480777	2529.847605
423.859352	2530.807945
424.237866	2535.977648
424.616319	2536.287679
424.994712	2538.309182
425.373044	2538.712474
425.751314	2544.822353
426.129524	2544.353525
426.507673	2552.545400
426.885762	2551.675801
427.263789	2559.292985
427.641756	2560.243242
428.019662	2567.535271
428.397508	2567.620971
428.775292	2575.593556
429.153016	2581.617734
429.530679	2590.291040
429.908282	2594.863366
430.285824	2605.016250
430.663305	2618.292129
431.040726	2626.052985
431.418086	2635.542957
431.795385	2652.642551
432.172624	2672.613082
432.549802	2685.316790
432.926920	2702.504604
433.303977	2722.243242
433.680974	2745.752662
434.057910	2776.440687
434.434786	2802.296765
434.811601	2828.465394
435.188355	2878.839124
435.565050	2909.005389
435.941683	2945.132818
436.318257	3005.868639
436.694770	3041.781819
437.071222	3107.452930
437.447614	3124.045888
437.823946	3177.938343
438.200218	3241.172057
438.576429	3296.539049
438.952580	3371.909341
439.328670	3435.979885
439.704700	3527.958258
440.080670	3581.835590
440.456580	3687.165458
440.832429	3786.549286
441.208218	3803.560659
441.583947	3918.035181
441.959616	4018.714585
442.335224	4136.622132
442.710773	4249.400305
443.086261	4401.358326
443.461689	4449.612251
443.837057	4568.507864
444.212365	4747.234412
444.587612	4875.196541
444.962800	4947.774033
445.337927	5122.311382
445.712995	5080.704219
446.088002	5454.523420
446.462949	5636.899764
446.837837	5804.656761
447.212664	5957.360873
447.587431	6604.861796
447.962139	7321.398801
448.336786	7966.497614
448.711374	7868.101853
449.085901	7317.880075
449.460369	7483.154304
449.834776	7669.298910
450.209124	8438.311806
450.583412	8554.245741
450.957640	8875.863795
451.331808	8761.273327
451.705917	8606.575439
452.079965	8818.568561
452.453954	9123.301270
452.827883	9313.607348
453.201752	9458.631262
453.575562	9718.164985
453.949311	10287.885946
454.323001	10537.249142
454.696632	10705.366581
455.070202	11456.070006
455.443713	11752.590676
455.817164	12213.490769
456.190556	12683.593488
456.563888	12731.176940
456.937160	13160.468998
457.310373	12734.998134
457.683526	13161.693999
458.056619	13416.915015
458.429653	13647.467145
458.802628	14147.400892
459.175542	14461.457215
459.548398	15326.741026
459.921194	16360.674118
460.293930	16979.692522
460.666607	18322.691195
461.039224	19541.140600
461.411782	20061.556556
461.784280	19708.196877
462.156719	19742.761548
462.529099	19746.434029
462.901419	19301.915165
463.273680	18989.494697
463.645882	19319.460901
464.018024	19585.217929
464.390106	20368.628360
464.762130	22303.917239
465.134094	25159.796428
465.505999	28926.317210
465.877845	32385.287277
466.249631	33600.724593
466.621358	32734.868611
466.993026	31602.575046
467.364634	30504.889002
467.736184	29478.242897
468.107674	28888.659790
468.479105	28644.998140
468.850477	28447.833572
469.221790	27682.384772
469.593043	26689.310232
469.964238	26298.333463
470.335373	26469.868805
470.706449	27981.549526
471.077467	30181.619970
471.448425	34025.038512
471.819324	36603.689527
472.190164	35404.204943
472.560945	32795.579227
472.931667	30555.691229
473.302330	29883.239115
473.672934	29426.195504
474.043479	30056.024663
474.413965	29608.788617
474.784393	29478.590737
475.154761	30410.742933
475.525070	30626.937857
475.895321	30415.917677
476.265513	31091.578486
476.635645	32079.102716
477.005719	32100.905706
477.375734	32671.080371
477.745691	33429.395938
478.115588	34750.606744
478.485427	36650.093349
478.855207	39798.301487
479.224928	42360.982127
479.594591	44040.097212
479.964194	43277.960450
480.333739	43539.079617
480.703226	43721.597112
481.072653	44479.048122
481.442022	45090.419095
481.811333	45500.418658
482.180584	44416.958750
482.549777	44057.466508
482.918912	43674.986604
483.287988	43524.195610
483.657005	42850.768032
484.025964	42367.757438
484.394864	42483.711538
484.763706	42172.080010
485.132489	41448.137551
485.501213	41383.686399
485.869879	41598.391662
486.238487	41312.094452
486.607036	41591.087030
486.975527	41146.394246
487.343959	41424.504621
487.712333	41552.320557
488.080648	41541.182127
488.448905	42012.799713
488.817104	41911.583427
489.185244	42853.172662
489.553326	44533.195155
489.921350	47244.050430
490.289315	50215.137628
490.657222	50910.779050
491.025070	51245.415884
491.392861	50369.888448
491.760593	49120.345206
492.128267	47453.064230
492.495883	45968.487272
492.863440	44652.002548
493.230939	43358.805434
493.598380	42349.362268
493.965763	42069.346336
494.333088	41302.629686
494.700354	40857.374814
495.067563	40624.009720
495.434713	40515.634994
495.801805	40611.590837
496.168839	40249.494839
496.535815	39950.042739
496.902733	39999.120892
497.269593	39613.255853
497.636395	39567.265407
498.003139	39969.468825
498.369825	39456.728026
498.736453	39759.434191
499.103023	39310.660593
499.469535	39196.102893
499.835989	39312.190584
500.202385	38983.487188
500.568723	39013.509780
500.935003	39200.143378
501.301226	39034.470898
501.667390	39630.052978
502.033497	39875.438703
502.399546	39331.929222
502.765537	38684.970222
503.131470	39060.576513
503.497345	39396.087987
503.863163	38097.393494
504.228923	38713.286383
504.594625	39097.424827
504.960269	38409.972759
505.325856	39085.038712
505.691385	38461.107703
506.056856	38595.668702
506.422270	39052.926562
506.787625	38626.767580
507.152924	38819.359822
507.518164	38902.092718
507.883347	38145.728077
508.248472	38400.855832
508.613540	38858.522026
508.978550	39153.525307
509.343503	38921.566696
509.708398	39113.596848
510.073236	39623.320517
510.438016	39627.577771
510.802738	39107.958318
511.167403	39706.623063
511.532010	39929.709245
511.896561	40232.581768
512.261053	41046.501262
512.625488	40609.498758
512.989866	40491.936530
513.354186	40334.556748
513.718449	40333.866110
514.082655	40985.659576
514.446803	40668.984374
514.810894	41175.713597
515.174927	41109.797990
515.538904	41024.433611
515.902822	41660.380210
516.266684	41132.757925
516.630488	41542.797817
516.994235	41406.908474
517.357925	41947.123561
517.721558	42124.241981
518.085133	42426.794391
518.448651	42568.786051
518.812112	42339.872296
519.175516	42440.140846
519.538863	42782.311683
519.902152	42740.870878
520.265385	43186.823950
520.628560	43232.496804
520.991678	43021.002756
521.354739	43244.935851
521.717743	43573.694699
522.080690	43477.126356
522.443580	44010.596380
522.806413	44061.595213
523.169189	44005.945915
523.531908	44189.854769
523.894569	44048.624324
524.257174	44222.975150
524.619722	44500.944373
524.982213	44503.056617
525.344647	44428.044248
525.707025	44472.986134
526.069345	44871.199479
526.431608	44788.088496
526.793815	45097.426299
527.155964	44631.243077
527.518057	44811.131611
527.880093	44598.266369
528.242072	45124.025948
528.603995	44824.830946
528.965860	44810.292258
529.327669	44913.124235
529.689421	44825.443446
530.051117	44784.073217
530.412755	44939.219768
530.774337	44987.330020
531.135862	44826.446636
531.497331	45017.357653
531.858743	44921.611018
532.220098	45254.138128
532.581396	44969.476773
532.942638	44631.878262
533.303824	44926.868941
533.664953	44886.358229
534.026025	44626.731244
534.387040	45076.218165
534.747999	45017.491243
535.108902	45199.144181
535.469748	44717.403958
535.830537	44841.517165
536.191270	45049.857972
536.551947	44689.276840
536.912567	44972.526672
537.273131	45102.154902
537.633638	44620.555831
537.994089	44961.794055
538.354483	44565.153550
538.714821	45115.539165
539.075103	45463.053626
539.435328	45242.460295
539.795497	45117.739629
540.155609	45121.583508
540.515665	45556.751032
540.875665	45030.930959
541.235609	45341.526530
541.595496	45303.029759
541.955328	45988.828328
542.315102	45381.132355
542.674821	45152.947047
543.034483	45196.046392
543.394090	45164.861814
543.753640	45123.184075
544.113134	46111.774509
544.472571	45156.092727
544.831953	46369.395114
545.191278	45590.259582
545.550548	45337.027300
545.909761	45777.422500
546.268918	45981.904303
546.628019	46291.204298
546.987064	45856.823194
547.346053	45147.351366
547.704986	46000.223856
548.063863	45581.112408
548.422684	45785.337112
548.781449	45626.818029
549.140158	46005.451533
549.498811	45868.551438
549.857408	45317.626420
550.215949	46139.163098
550.574434	46084.179232
550.932864	45852.530652
551.291237	46558.514001
551.649555	46162.334761
552.007817	46407.609581
552.366022	46073.083653
552.724173	46246.322905
553.082267	46631.764487
553.440305	46923.682583
553.798288	46255.535613
554.156215	46574.290292
554.514086	46777.836961
554.871902	46529.691204
555.229661	46518.381375
555.587365	46380.399953
555.945014	46471.538973
556.302606	46397.386121
556.660143	46619.695964
557.017625	46697.054991
557.375050	46516.264090
557.732421	46849.809514
558.089735	46828.140114
558.446994	46753.341994
558.804197	47194.594190
559.161345	47141.490676
559.518437	46415.801456
559.875474	46728.368118
560.232455	46896.777944
560.589381	47057.278201
560.946251	46761.869106
561.303065	47431.525900
561.659825	47251.241636
562.016528	46930.243644
562.373177	46639.374108
562.729770	47118.084598
563.086307	46662.817994
563.442789	47112.922457
563.799216	47150.196748
564.155587	46956.863457
564.511904	46977.265007
564.868164	47068.653564
565.224370	47330.443204
565.580520	47055.874239
565.936615	47275.330790
566.292654	46983.500914
566.648638	47219.111842
567.004567	47189.043880
567.360441	47217.841471
567.716260	47097.655322
568.072023	47384.139054
568.427732	47372.665388
568.783385	46906.734223
569.138982	47307.223649
569.494525	47282.252294
569.850013	47041.325469
570.205445	47004.162083
570.560823	46971.520612
570.916145	46857.512397
571.271412	46881.059627
571.626625	46633.531411
571.981782	46709.849439
572.336884	46391.147693
572.691931	46713.400932
573.046923	46312.838409
573.401860	46163.325348
573.756743	46148.728687
574.111570	46265.547345
574.466342	46111.610671
574.821059	46223.642754
575.175722	45755.682524
575.530330	45787.131763
575.884882	45516.202511
576.239380	45464.659233
576.593823	45433.845181
576.948211	45354.769641
577.302544	44893.370474
577.656823	44937.473008
578.011047	45156.133056
578.365216	44871.179315
578.719330	44676.038770
579.073389	44514.963822
579.427394	44600.393736
579.781344	44579.954378
580.135239	44242.917955
580.489080	44316.851517
580.842866	43826.163246
581.196597	44267.594403
581.550273	44203.622161
581.903895	44065.638218
582.257463	44493.760729
582.610975	43889.205395
582.964434	44152.509902
583.317837	43814.442563
583.671186	43649.712779
584.024481	43878.286256
584.377721	43408.869133
584.730906	43697.165160
585.084037	43712.152510
585.437113	43419.115278
585.790135	43468.619409
586.143103	43059.156729
586.496016	43185.709855
586.848874	43210.522415
587.201679	43233.731887
587.554428	42718.445305
587.907124	42910.538473
588.259765	42654.707477
588.612352	42910.939244
588.964884	42325.260511
589.317362	42598.279321
589.669786	42544.485168
590.022155	42316.388080
590.374470	42726.773292
590.726731	42251.475663
591.078937	41792.629840
591.431090	41867.682538
591.783188	41543.463249
592.135232	41219.450648
592.487222	41455.459827
592.839157	41547.236553
593.191038	41215.871428
593.542866	40992.974290
593.894639	40410.221947
594.246358	40671.636021
594.598022	40643.546712
594.949633	40251.682700
595.301190	40222.771682
595.652692	40068.356099
596.004141	40378.757585
596.355535	39412.958208
596.706876	39359.136329
597.058162	39205.000529
597.409395	39653.002831
597.760573	39731.717927
598.111698	39309.889297
598.462768	39335.263945
598.813785	39369.609326
599.164748	38830.074794
599.515657	39227.978109
599.866511	38712.714212
600.217312	39314.650667
600.568060	38286.961044
600.918753	39023.637458
601.269392	38985.551541
601.619978	38640.759303
601.970510	38862.474290
602.320988	39034.632215
602.671412	39335.866363
603.021783	39083.365049
603.372100	38750.018751
603.722363	38849.069862
604.072572	38918.753732
604.422728	38943.619223
604.772830	38758.422354
605.122878	38857.521357
605.472872	38783.497053
605.822813	39067.598840
606.172701	38894.367150
606.522534	39111.416549
606.872314	39378.164164
607.222041	39153.658898
607.571714	39538.508144
607.921333	38991.177468
608.270899	39291.050505
608.620411	39616.542685
608.969870	39414.410060
609.319276	39412.819576
609.668627	39460.430754
610.017926	39962.698555
610.367171	40099.276016
610.716362	40201.132529
611.065500	40141.044496
611.414585	40334.702942
611.763616	40627.150359
612.112594	40552.397609
612.461518	40774.709973
612.810389	41054.448641
613.159207	40932.127563
613.507971	41006.794614
613.856682	41480.993271
614.205340	41364.328368
614.553945	42057.197155
614.902496	41500.910870
615.250994	41958.597227
615.599439	42042.388766
615.947830	42261.046293
616.296169	42296.881336
616.644454	42443.155456
616.992686	42613.382618
617.340864	43117.344248
617.688990	42836.103316
618.037063	43443.138897
618.385082	43414.936162
618.733048	43701.601375
619.080961	43712.651585
619.428821	43726.620622
619.776628	43834.672713
620.124382	43656.351978
620.472083	43792.846260
620.819731	43910.980659
621.167326	43587.444447
621.514868	43563.360334
621.862357	43126.998057
622.209793	43156.342614
622.557176	42828.095443
622.904506	42576.892226
623.251783	42238.610638
623.599007	42020.058975
623.946179	41807.723054
624.293297	41760.716815
624.640363	41171.118585
624.987376	41162.473006
625.334336	40929.430546
625.681243	40574.414848
626.028097	40537.992512
626.374899	40398.695349
626.721647	40371.699970
627.068343	40257.248133
627.414987	40049.451772
627.761577	39820.280918
628.108115	40149.508593
628.454600	39597.925704
628.801032	39786.868150
629.147412	39753.740208
629.493739	39759.416547
629.840014	39416.003065
630.186236	39756.800188
630.532405	39387.684383
630.878521	39603.581879
631.224585	39475.778547
631.570597	39182.569915
631.916556	39334.008698
632.262462	39314.300307
632.608316	39323.714661
632.954117	39199.417452
633.299866	39197.015342
633.645562	39120.157910
633.991206	38622.938824
634.336797	38196.580717
634.682336	38202.506593
635.027823	37960.879048
635.373257	37781.590412
635.718639	37542.329688
636.063968	37390.212871
636.409245	36825.401994
636.754470	36887.390543
