Dividing Wavelength (nm)	Counts (n)	Blue Motor Position (mm): 39.800000	Red Motor Position (mm): 0.000000	
326.493990	1973.563840
326.888308	1973.563840
327.282561	1973.563840
327.676750	1947.861517
328.070874	1948.595005
328.464933	1953.628597
328.858929	1962.042283
329.252859	1975.981073
329.646726	1989.123361
330.040528	2007.034581
330.434265	2026.614422
330.827938	2043.711496
331.221547	2064.050031
331.615091	2084.862434
332.008571	2106.793974
332.401986	2126.325925
332.795338	2144.874850
333.188625	2167.207162
333.581847	2185.451098
333.975006	2203.972297
334.368100	2220.093907
334.761129	2239.577967
335.154095	2254.976171
335.546996	2293.218364
335.939833	2377.448483
336.332606	2390.260576
336.725315	2403.866650
337.117960	2412.842424
337.510540	2420.565472
337.903056	2430.730959
338.295508	2434.519386
338.687896	2443.739656
339.080220	2451.019082
339.472480	2456.985288
339.864676	2457.985957
340.256807	2462.384364
340.648875	2465.111628
341.040879	2464.108438
341.432818	2467.667493
341.824694	2468.325363
342.216506	2463.906792
342.608253	2467.453244
342.999937	2464.781432
343.391557	2463.455609
343.783113	2466.649180
344.174605	2462.807821
344.566033	2461.555094
344.957397	2459.039558
345.348697	2454.769701
345.739934	2454.563013
346.131106	2455.064608
346.522215	2455.782973
346.913260	2450.192333
347.304241	2450.172168
347.695159	2446.771910
348.086012	2447.553289
348.476802	2446.119081
348.867528	2445.325099
349.258191	2442.943154
349.648789	2439.991558
350.039324	2441.466096
350.429796	2440.843513
350.820203	2440.563729
351.210548	2438.030549
351.600828	2437.312185
351.991045	2441.130859
352.381198	2436.472833
352.771288	2435.696495
353.161314	2434.484098
353.551276	2437.067689
353.941175	2436.674479
354.331010	2436.848399
354.720782	2438.685899
355.110490	2439.227823
355.500135	2438.017947
355.889717	2437.037442
356.279235	2441.095571
356.668689	2439.704213
357.058080	2437.982658
357.447408	2438.764037
357.836672	2433.957297
358.225873	2439.860488
358.615010	2436.800508
359.004084	2439.517690
359.393095	2443.848041
359.782043	2442.350818
360.170927	2444.180757
360.559748	2443.601024
360.948505	2445.060438
361.337199	2448.344750
361.725830	2447.598659
362.114398	2446.310645
362.502903	2446.290480
362.891344	2450.444391
363.279722	2447.520522
363.668037	2451.792899
364.056289	2451.291305
364.444478	2452.002107
364.832603	2450.749381
365.220665	2451.954216
365.608665	2452.286933
365.996601	2455.341872
366.384474	2454.099227
366.772284	2455.372119
367.160031	2455.941769
367.547715	2456.105607
367.935336	2453.827005
368.322893	2455.772890
368.710388	2455.863631
369.097820	2456.014866
369.485189	2456.143415
369.872495	2459.432768
370.259738	2457.733899
370.646918	2460.849332
371.034035	2462.076853
371.421090	2461.063581
371.808081	2460.496452
372.195010	2465.635908
372.581875	2463.395115
372.968678	2465.104066
373.355418	2462.054168
373.742096	2469.835189
374.128710	2464.113479
374.515262	2469.827627
374.901751	2468.151444
375.288177	2469.454582
375.674540	2467.629684
376.060841	2469.212607
376.447079	2469.260497
376.833254	2471.755869
377.219367	2468.012812
377.605417	2471.239150
377.991404	2473.061528
378.377329	2472.287710
378.763191	2469.010960
379.148991	2476.771817
379.534727	2478.707620
379.920402	2480.895481
380.306013	2476.814667
380.691563	2480.146869
381.077049	2477.401961
381.462474	2480.479585
381.847835	2482.049905
382.233134	2483.733650
382.618371	2483.138794
383.003545	2485.369505
383.388657	2487.542242
383.773706	2488.996615
384.158693	2489.372181
384.543618	2490.030051
384.928480	2493.321925
385.313280	2492.046513
385.698017	2494.599857
386.082692	2494.652789
386.467305	2494.917450
386.851856	2498.526916
387.236344	2497.977430
387.620770	2498.486587
388.005133	2503.353821
388.389435	2501.594458
388.773674	2505.637464
389.157851	2506.590242
389.541965	2510.787002
389.926018	2509.244409
390.310008	2513.713392
390.693936	2517.753877
391.077802	2519.293949
391.461606	2523.094979
391.845348	2528.136133
392.229027	2535.508821
392.612645	2541.447300
392.996200	2550.690256
393.379694	2561.979920
393.763125	2572.392423
394.146494	2587.208374
394.529801	2603.740838
394.913047	2624.255814
395.296230	2640.707619
395.679351	2657.411482
396.062410	2689.198478
396.445408	2707.656663
396.828343	2740.716550
397.211217	2773.287445
397.594028	2799.438430
397.976778	2846.737056
398.359466	2897.078019
398.742092	2938.034873
399.124656	2999.300016
399.507158	3063.405849
399.889598	3122.233593
400.271977	3202.662682
400.654294	3269.780605
401.036549	3356.296887
401.418742	3428.886982
401.800874	3546.391237
402.182944	3632.360554
402.564952	3771.569497
402.946898	3830.480421
403.328783	3924.800409
403.710606	4055.172209
404.092367	4201.708469
404.474067	4382.257394
404.855705	4442.468936
405.237282	4534.699366
405.618797	4758.519035
406.000250	4941.412097
406.381642	5169.869627
406.762972	5279.565135
407.144240	5339.328014
407.525447	5546.532040
407.906593	5654.753010
408.287677	5876.871290
408.668700	6070.121402
409.049661	6192.618920
409.430560	6396.596607
409.811399	6518.597571
410.192176	6728.274283
410.572891	6900.734677
410.953545	7272.504650
411.334138	7164.714698
411.714669	7600.504804
412.095139	7392.093422
412.475547	7802.730691
412.855894	7855.284719
413.236180	8178.949482
413.616405	8140.084706
413.996568	8441.109646
414.376670	8561.396618
414.756711	8618.412068
415.136691	8925.501516
415.516609	9169.579062
415.896466	9351.045477
416.276262	9671.811576
416.655997	10103.873748
417.035670	10263.748902
417.415283	10856.084478
417.794834	11054.632843
418.174324	11002.953455
418.553753	11056.911445
418.933121	11546.130220
419.312428	11535.836184
419.691674	11579.074160
420.070859	12056.738611
420.449983	11895.099054
420.829045	12461.059314
421.208047	12364.695137
421.586988	12862.572094
421.965867	13176.083972
422.344686	13281.345785
422.723444	13864.201472
423.102141	12814.257676
423.480777	13943.198874
423.859352	13596.891769
424.237866	14664.955993
424.616319	14489.644827
424.994712	15144.505835
425.373044	15037.643456
425.751314	15731.233128
426.129524	15005.284289
426.507673	16060.400310
426.885762	15855.913466
427.263789	16083.942498
427.641756	16302.947866
428.019662	16404.872435
428.397508	16504.137795
428.775292	16819.164540
429.153016	16825.939851
429.530679	16941.248683
429.908282	17012.765012
430.285824	16773.080832
430.663305	17476.765415
431.040726	17125.059235
431.418086	16995.904873
431.795385	17633.608314
432.172624	18072.090396
432.549802	17652.920975
432.926920	17864.886370
433.303977	17768.675949
433.680974	18029.550620
434.057910	18343.047374
434.434786	18381.589516
434.811601	18302.813926
435.188355	19325.497683
435.565050	18997.278238
435.941683	18954.206620
436.318257	19830.878397
436.694770	19642.629110
437.071222	20229.532843
437.447614	19324.708742
437.823946	19355.537919
438.200218	19516.282671
438.576429	19299.833169
438.952580	19584.822198
439.328670	19543.325941
439.704700	19948.485996
440.080670	19539.408964
440.456580	20123.237594
440.832429	20287.848911
441.208218	19316.597526
441.583947	19740.999665
441.959616	19852.769608
442.335224	20082.003476
442.710773	20214.885771
443.086261	20750.284036
443.461689	20108.945923
443.837057	20249.747870
444.212365	20887.552134
444.587612	20873.840196
444.962800	20466.199893
445.337927	20878.039477
445.712995	19641.583070
446.088002	21455.506171
446.462949	21640.874439
446.837837	21802.266979
447.212664	21779.733021
447.587431	24548.138109
447.962139	27430.301874
448.336786	29790.822162
448.711374	28258.946578
449.085901	24637.361491
449.460369	24564.627723
449.834776	24475.263189
450.209124	26917.813133
450.583412	26495.087177
450.957640	27010.761927
451.331808	25677.099471
451.705917	24343.895761
452.079965	24362.260684
452.453954	24712.726741
452.827883	24607.162458
453.201752	24413.995525
453.575562	24575.584671
453.949311	25655.477963
454.323001	25712.788320
454.696632	25486.478321
455.070202	27017.020520
455.443713	27179.058328
455.817164	27744.448937
456.190556	28263.677701
456.563888	27722.610659
456.937160	28138.546180
457.310373	26503.644535
457.683526	26917.886229
458.056619	26903.019867
458.429653	26845.278490
458.802628	27421.063959
459.175542	27534.540332
459.548398	28829.970677
459.921194	30386.542874
460.293930	31082.595150
460.666607	33077.823348
461.039224	34824.641129
461.411782	35192.761307
461.784280	33971.244359
462.156719	33451.844196
462.529099	32891.315780
462.901419	31599.462133
463.273680	30577.968088
463.645882	30670.833704
464.018024	30644.864200
464.390106	31484.733033
464.762130	34163.158566
465.134094	38228.259328
465.505999	43530.151733
465.877845	48089.068802
466.249631	49195.647442
466.621358	47406.234432
466.993026	45238.371920
467.364634	43131.315805
467.736184	41193.551720
468.107674	39956.321496
468.479105	39180.558495
468.850477	38495.526181
469.221790	37091.511903
469.593043	35386.442437
469.964238	34496.981253
470.335373	34409.429013
470.706449	36079.585968
471.077467	38602.252449
471.448425	43183.854711
471.819324	46041.473098
472.190164	44252.846507
472.560945	40689.307786
472.931667	37607.511808
473.302330	36496.645667
473.672934	35694.706475
474.043479	36188.936157
474.413965	35422.322850
474.784393	35045.330242
475.154761	35931.766734
475.525070	35952.737934
475.895321	35522.142737
476.265513	36100.917610
476.635645	37052.127888
477.005719	36871.392441
477.375734	37341.225459
477.745691	38042.641523
478.115588	39346.939257
478.485427	41299.917545
478.855207	44649.303010
479.224928	47262.140611
479.594591	48896.681813
479.964194	47849.440075
480.333739	47948.148388
480.703226	47964.932909
481.072653	48606.593656
481.442022	49113.620307
481.811333	49388.237163
482.180584	48090.777753
482.549777	47568.410871
482.918912	47047.112714
483.287988	46732.151504
483.657005	45917.874088
484.025964	45267.015756
484.394864	45284.049815
484.763706	44839.949367
485.132489	43961.583762
485.501213	43817.525229
485.869879	43963.264986
486.238487	43562.377309
486.607036	43763.794090
486.975527	43229.514962
487.343959	43440.882981
487.712333	43495.461033
488.080648	43416.834156
488.448905	43856.266496
488.817104	43671.493084
489.185244	44614.229183
489.553326	46270.737213
489.921350	48997.913223
490.289315	51926.964760
490.657222	52571.486362
491.025070	52856.621585
491.392861	51916.872370
491.760593	50637.868625
492.128267	48925.607954
492.495883	47380.554794
492.863440	45993.839235
493.230939	44639.452596
493.598380	43586.005197
493.965763	43255.648303
494.333088	42452.658031
494.700354	41970.764052
495.067563	41704.865872
495.434713	41567.728843
495.801805	41649.657676
496.168839	41258.537234
496.535815	40948.907044
496.902733	40970.369757
497.269593	40571.196072
497.636395	40498.391728
498.003139	40895.395196
498.369825	40356.193381
498.736453	40649.991827
499.103023	40186.266167
499.469535	40071.859701
499.835989	40155.126959
500.202385	39831.777269
500.568723	39848.082882
500.935003	40047.276514
501.301226	39839.291109
501.667390	40451.572011
502.033497	40702.560979
502.399546	40129.588474
502.765537	39462.278337
503.131470	39834.504534
503.497345	40183.264160
503.863163	38855.066315
504.228923	39467.006939
504.594625	39866.442764
504.960269	39158.742902
505.325856	39829.329789
505.691385	39204.032628
506.056856	39339.191004
506.422270	39772.977251
506.787625	39355.332778
507.152924	39546.657170
507.518164	39647.069392
507.883347	38864.236173
508.248472	39119.494998
508.613540	39582.615720
508.978550	39879.000278
509.343503	39637.481118
509.708398	39826.040436
510.073236	40345.301968
510.438016	40344.230722
510.802738	39806.258949
511.167403	40424.811046
511.532010	40636.743674
511.896561	40944.075098
512.261053	41762.816456
512.625488	41318.768940
512.989866	41185.876563
513.354186	41049.253732
513.718449	41025.709023
514.082655	41701.069883
514.446803	41370.917156
514.810894	41883.796587
515.174927	41796.844244
515.538904	41705.475852
515.902822	42370.366235
516.266684	41828.243071
516.630488	42248.198913
516.994235	42108.198509
517.357925	42651.002229
517.721558	42824.947242
518.085133	43138.418791
518.448651	43259.018315
518.812112	43037.988924
519.175516	43131.709015
519.538863	43475.540913
519.902152	43441.505563
520.265385	43897.493052
520.628560	43923.404583
520.991678	43729.698246
521.354739	43966.259432
521.717743	44282.284325
522.080690	44168.525648
522.443580	44731.874590
522.806413	44785.754442
523.169189	44723.355040
523.531908	44902.598306
523.894569	44742.818935
524.257174	44930.354899
524.619722	45229.406228
524.982213	45217.897273
525.344647	45154.585422
525.707025	45204.787753
526.069345	45591.913080
526.431608	45517.220824
526.793815	45828.880078
527.155964	45368.675664
527.518057	45530.511826
527.880093	45334.605026
528.242072	45857.735643
528.603995	45559.153142
528.965860	45567.544142
529.327669	45671.099525
529.689421	45570.417600
530.051117	45533.440737
530.412755	45694.782865
530.774337	45762.924142
531.135862	45575.368013
531.497331	45783.784437
531.858743	45689.842535
532.220098	46034.843980
532.581396	45752.337719
532.942638	45429.043482
533.303824	45694.747577
533.664953	45695.138267
534.026025	45424.216577
534.387040	45882.908645
534.747999	45840.580596
535.108902	46005.186872
535.469748	45535.016097
535.830537	45655.245096
536.191270	45851.877822
536.551947	45514.518766
536.912567	45814.366596
537.273131	45938.126923
537.633638	45448.998889
537.994089	45784.313758
538.354483	45403.721766
538.714821	45970.105483
539.075103	46313.952504
539.435328	46092.671056
539.795497	45975.877604
540.155609	45961.530480
540.515665	46428.265709
540.875665	45882.233130
541.235609	46207.261524
541.595496	46176.301278
541.955328	46855.450565
542.315102	46240.220588
542.674821	46030.972374
543.034483	46071.823364
543.394090	46034.624690
543.753640	45986.587535
544.113134	46985.340935
544.472571	46042.607357
544.831953	47253.268180
545.191278	46470.424878
545.550548	46196.982612
545.909761	46651.092271
546.268918	46853.197169
546.628019	47156.488108
546.987064	46730.467758
547.346053	46028.512291
547.704986	46889.228817
548.063863	46448.526106
548.422684	46643.845612
548.781449	46496.346492
549.140158	46901.272133
549.498811	46749.384688
549.857408	46180.182966
550.215949	47004.807351
550.574434	46947.204606
550.932864	46713.151395
551.291237	47425.942822
551.649555	47039.820685
552.007817	47297.683266
552.366022	46919.977334
552.724173	47104.299563
553.082267	47495.097371
553.440305	47789.518400
553.798288	47123.123232
554.156215	47431.518339
554.514086	47639.975091
554.871902	47371.599184
555.229661	47398.135818
555.587365	47207.716314
555.945014	47303.974626
556.302606	47237.174296
556.660143	47445.943600
557.017625	47538.766366
557.375050	47333.175509
557.732421	47678.933128
558.089735	47645.759815
558.446994	47582.826051
558.804197	48058.330367
559.161345	47972.676122
559.518437	47238.792507
559.875474	47528.779840
560.232455	47693.620530
560.589381	47865.546561
560.946251	47553.151299
561.303065	48245.281557
561.659825	48046.687822
562.016528	47728.626302
562.373177	47448.658262
562.729770	47916.794931
563.086307	47426.479705
563.442789	47879.180362
563.799216	47923.303061
564.155587	47723.108759
564.511904	47757.358359
564.868164	47830.669338
565.224370	48094.939226
565.580520	47814.237698
565.936615	48025.257877
566.292654	47740.137777
566.648638	47973.888519
567.004567	47925.314481
567.360441	47969.109505
567.716260	47828.035336
568.072023	48121.138102
568.427732	48102.385010
568.783385	47667.232610
569.138982	48062.106191
569.494525	48030.094864
569.850013	47768.947971
570.205445	47730.778875
570.560823	47705.167293
570.916145	47574.699711
571.271412	47594.524048
571.626625	47345.478445
571.981782	47408.137467
572.336884	47086.118642
572.691931	47413.445802
573.046923	47019.709002
573.401860	46856.405864
573.756743	46842.472115
574.111570	46967.956516
574.466342	46825.259095
574.821059	46936.497196
575.175722	46448.669779
575.530330	46463.319372
575.884882	46186.754110
576.239380	46155.264543
576.593823	46121.365304
576.948211	46035.751388
577.302544	45570.573876
577.656823	45595.759480
578.011047	45811.478015
578.365216	45544.289300
578.719330	45330.456156
579.073389	45203.101487
579.427394	45268.026507
579.781344	45234.679274
580.135239	44880.651643
580.489080	44989.064177
580.842866	44477.850848
581.196597	44918.109936
581.550273	44867.642945
581.903895	44727.017438
582.257463	45135.408873
582.610975	44545.528338
582.964434	44806.050127
583.317837	44465.144619
583.671186	44305.130834
584.024481	44518.535480
584.377721	44076.882512
584.730906	44334.760216
585.084037	44352.119429
585.437113	44071.848920
585.790135	44101.972334
586.143103	43701.298906
586.496016	43836.580790
586.848874	43851.671484
587.201679	43864.796128
587.554428	43354.225546
587.907124	43548.791399
588.259765	43308.139318
588.612352	43541.025502
588.964884	42927.040690
589.317362	43223.931884
589.669786	43162.139941
590.022155	42925.964403
590.374470	43357.386350
590.726731	42863.769168
591.078937	42392.703588
591.431090	42474.710558
591.783188	42134.954433
592.135232	41835.066273
592.487222	42069.454721
592.839157	42155.114007
593.191038	41829.596621
593.542866	41582.726276
593.894639	40989.432880
594.246358	41263.596032
594.598022	41251.189752
594.949633	40852.983969
595.301190	40810.965951
595.652692	40635.170834
596.004141	40969.212812
596.355535	39987.995065
596.706876	39944.157192
597.058162	39758.657853
597.409395	40241.996123
597.760573	40322.684831
598.111698	39892.792875
598.462768	39909.947922
598.813785	39939.305081
599.164748	39391.077080
599.515657	39794.908791
599.866511	39268.400601
600.217312	39892.734902
600.568060	38854.652940
600.918753	39585.353067
601.269392	39543.098115
601.619978	39209.212413
601.970510	39422.281822
602.320988	39592.637534
602.671412	39892.979398
603.021783	39637.256787
603.372100	39286.674783
603.722363	39392.302080
604.072572	39462.734561
604.422728	39487.915124
604.772830	39305.566507
605.122878	39396.493799
605.472872	39336.171353
605.822813	39615.882294
606.172701	39443.310995
606.522534	39678.458137
606.872314	39933.041447
607.222041	39697.392711
607.571714	40073.475391
607.921333	39554.050022
608.270899	39833.564358
608.620411	40169.027941
608.969870	39962.242331
609.319276	39972.619546
609.668627	40004.772025
610.017926	40500.478765
610.367171	40652.293113
610.716362	40735.754457
611.065500	40691.543537
611.414585	40890.598538
611.763616	41176.288288
612.112594	41093.068921
612.461518	41329.786382
612.810389	41617.427058
613.159207	41487.889569
613.507971	41551.103118
613.856682	42031.462065
614.205340	41917.872266
614.553945	42613.261630
614.902496	42071.965216
615.250994	42524.403732
615.599439	42609.069911
615.947830	42823.502952
616.296169	42871.003224
616.644454	43002.534489
616.992686	43166.412318
617.340864	43683.654868
617.688990	43409.968105
618.037063	43998.061551
618.385082	43963.751458
618.733048	44279.317606
619.080961	44286.087876
619.428821	44302.136389
619.776628	44397.736831
620.124382	44230.027724
620.472083	44371.532913
620.819731	44491.078835
621.167326	44159.862425
621.514868	44136.960463
621.862357	43699.410994
622.209793	43714.504209
622.557176	43387.671081
622.904506	43132.525682
623.251783	42798.642501
623.599007	42578.449943
623.946179	42356.137578
624.293297	42310.578151
624.640363	41726.280693
624.987376	41708.150184
625.334336	41465.403503
625.681243	41128.727522
626.028097	41083.463002
626.374899	40935.043871
626.721647	40910.818606
627.068343	40795.484568
627.414987	40566.379249
627.761577	40354.731446
628.108115	40681.390653
628.454600	40150.592442
628.801032	40327.524339
629.147412	40295.840687
629.493739	40283.825097
629.840014	39959.484820
630.186236	40289.241816
630.532405	39903.775029
630.878521	40106.462181
631.224585	39995.072845
631.570597	39703.512672
631.916556	39879.121266
632.262462	39815.161626
632.608316	39828.792906
632.954117	39735.937373
633.299866	39722.986649
633.645562	39643.873301
633.991206	39134.789859
634.336797	38710.617092
634.682336	38716.114471
635.027823	38457.934297
635.373257	38280.790671
