Dividing Wavelength (nm)	Counts (n)	Blue Motor Position (mm): 24.000000	Red Motor Position (mm): 0.000000	
326.493990	1975.492081
326.888308	1975.492081
327.282561	1975.492081
327.676750	1947.458225
328.070874	1950.871086
328.464933	1955.602209
328.858929	1966.481019
329.252859	1978.582308
329.646726	1991.122179
330.040528	2007.697492
330.434265	2025.384381
330.827938	2044.044212
331.221547	2066.469785
331.615091	2086.571386
332.008571	2105.543768
332.401986	2128.080246
332.795338	2147.529018
333.188625	2167.572646
333.581847	2186.635769
333.975006	2206.084540
334.368100	2222.990050
334.761129	2240.233317
335.154095	2254.734196
335.546996	2290.339865
335.939833	2357.800586
336.332606	2373.667618
336.725315	2384.629607
337.117960	2394.974054
337.510540	2399.984961
337.903056	2413.805285
338.295508	2416.945923
338.687896	2426.030083
339.080220	2432.628953
339.472480	2438.209510
339.864676	2439.714295
340.256807	2443.772424
340.648875	2443.802671
341.040879	2446.232507
341.432818	2449.713423
341.824694	2447.906170
342.216506	2448.546396
342.608253	2450.028496
342.999937	2446.925665
343.391557	2445.912393
343.783113	2446.479523
344.174605	2444.465582
344.566033	2442.386106
344.957397	2440.747731
345.348697	2436.263625
345.739934	2435.532658
346.131106	2431.754313
346.522215	2433.377564
346.913260	2431.552667
347.304241	2430.776329
347.695159	2427.718869
348.086012	2427.194589
348.476802	2425.004208
348.867528	2421.919022
349.258191	2420.653692
349.648789	2424.779877
350.039324	2420.023548
350.429796	2421.326686
350.820203	2417.182858
351.210548	2416.242683
351.600828	2418.748136
351.991045	2417.991963
352.381198	2415.221849
352.771288	2419.194278
353.161314	2414.911818
353.551276	2413.401992
353.941175	2412.726478
354.331010	2412.396282
354.720782	2419.411048
355.110490	2417.699576
355.500135	2415.602456
355.889717	2416.250244
356.279235	2417.477765
356.668689	2417.477765
357.058080	2418.140677
357.447408	2416.459452
357.836672	2417.104720
358.225873	2417.155131
358.615010	2412.645819
359.004084	2418.238979
359.393095	2420.081521
359.782043	2420.504978
360.170927	2421.641758
360.559748	2425.029414
360.948505	2420.406676
361.337199	2426.274579
361.725830	2422.324835
362.114398	2424.033786
362.502903	2422.319793
362.891344	2424.265679
363.279722	2421.881213
363.668037	2428.563263
364.056289	2423.897675
364.444478	2425.525967
364.832603	2428.958993
365.220665	2427.829775
365.608665	2428.243149
365.996601	2430.506627
366.384474	2431.177101
366.772284	2429.949580
367.160031	2430.589806
367.547715	2429.352203
367.935336	2428.432193
368.322893	2430.728438
368.710388	2428.222985
369.097820	2432.535692
369.485189	2430.655341
369.872495	2434.191711
370.259738	2435.625919
370.646918	2431.088881
371.034035	2431.734148
371.421090	2433.506114
371.808081	2431.156936
372.195010	2432.848243
372.581875	2431.797163
372.968678	2433.773295
373.355418	2434.809252
373.742096	2432.528130
374.128710	2436.707247
374.515262	2436.954263
374.901751	2436.203131
375.288177	2435.777154
375.674540	2433.276741
376.060841	2435.386464
376.447079	2437.685230
376.833254	2437.869232
377.219367	2435.199942
377.605417	2439.908379
377.991404	2433.997626
378.377329	2437.997782
378.763191	2434.786567
379.148991	2440.346960
379.534727	2441.216559
379.920402	2439.215221
380.306013	2442.537341
380.691563	2443.674121
381.077049	2439.742021
381.462474	2440.830910
381.847835	2444.778134
382.233134	2443.845520
382.618371	2442.267639
383.003545	2442.920469
383.388657	2444.117743
383.773706	2443.742177
384.158693	2444.337033
384.543618	2444.899122
384.928480	2441.287135
385.313280	2445.388113
385.698017	2445.367949
386.082692	2445.388113
386.467305	2443.311158
386.851856	2447.056735
387.236344	2445.655295
387.620770	2449.630244
388.005133	2449.902467
388.389435	2445.582198
388.773674	2447.618824
389.157851	2449.504216
389.541965	2451.016562
389.926018	2450.628393
390.310008	2450.706531
390.693936	2450.288115
391.077802	2449.204267
391.461606	2448.652261
391.845348	2448.634617
392.229027	2450.961109
392.612645	2451.558486
392.996200	2450.550255
393.379694	2452.738116
393.763125	2453.300204
394.146494	2454.376491
394.529801	2453.597632
394.913047	2454.709207
395.296230	2454.598302
395.679351	2453.675770
396.062410	2457.323045
396.445408	2453.063270
396.828343	2456.466049
397.211217	2454.033692
397.594028	2456.534105
397.976778	2452.899433
398.359466	2456.382870
398.742092	2448.990018
399.124656	2453.355657
399.507158	2454.933538
399.889598	2457.156687
400.271977	2456.322376
400.654294	2457.665844
401.036549	2459.929322
401.418742	2455.661985
401.800874	2460.206585
402.182944	2459.193313
402.564952	2462.381843
402.946898	2457.081070
403.328783	2460.403190
403.710606	2460.017542
404.092367	2459.636935
404.474067	2461.623149
404.855705	2462.641463
405.237282	2462.616257
405.618797	2462.656586
406.000250	2462.833026
406.381642	2465.126751
406.762972	2464.473922
407.144240	2463.987451
407.525447	2465.908130
407.906593	2464.189097
408.287677	2464.766309
408.668700	2464.899899
409.049661	2463.495938
409.430560	2466.460137
409.811399	2465.895527
410.192176	2466.445013
410.572891	2466.651700
410.953545	2469.424335
411.334138	2467.387709
411.714669	2468.587503
412.095139	2470.125055
412.475547	2469.520117
412.855894	2468.103553
413.236180	2467.884263
413.616405	2470.508183
413.996568	2470.104891
414.376670	2469.389047
414.756711	2469.263018
415.136691	2469.215127
415.516609	2470.699747
415.896466	2471.476085
416.276262	2472.975828
416.655997	2469.497432
417.035670	2470.654377
417.415283	2473.106898
417.794834	2467.639767
418.174324	2475.546816
418.553753	2474.339460
418.933121	2475.564460
419.312428	2473.321147
419.691674	2475.498925
420.070859	2474.964563
420.449983	2477.621251
420.829045	2474.173102
421.208047	2478.281642
421.586988	2476.963381
421.965867	2479.133597
422.344686	2477.822897
422.723444	2478.707620
423.102141	2477.636375
423.480777	2480.930769
423.859352	2478.135449
424.237866	2482.924545
424.616319	2479.914976
424.994712	2480.840028
425.373044	2480.035964
425.751314	2482.894298
426.129524	2482.125522
426.507673	2480.598053
426.885762	2485.125009
427.263789	2483.388331
427.641756	2483.164000
428.019662	2486.271871
428.397508	2485.046871
428.775292	2485.036788
429.153016	2484.305821
429.530679	2485.223311
429.908282	2488.134577
430.285824	2487.501913
430.663305	2486.972592
431.040726	2486.705410
431.418086	2488.575678
431.795385	2491.255052
432.172624	2489.732623
432.549802	2491.529795
432.926920	2489.052068
433.303977	2489.843529
433.680974	2491.807058
434.057910	2491.388642
434.434786	2492.366626
434.811601	2497.082626
435.188355	2492.243118
435.565050	2493.483242
435.941683	2491.988540
436.318257	2492.197747
436.694770	2489.649444
437.071222	2492.999291
437.447614	2493.067347
437.823946	2493.601709
438.200218	2497.334683
438.576429	2498.345435
438.952580	2497.327122
439.328670	2496.800321
439.704700	2498.819303
440.080670	2497.793428
440.456580	2501.528923
440.832429	2501.309633
441.208218	2500.966835
441.583947	2502.464057
441.959616	2501.435662
442.335224	2502.930364
442.710773	2505.324912
443.086261	2507.195180
443.461689	2505.173678
443.837057	2506.504542
444.212365	2509.120901
444.587612	2510.923113
444.962800	2511.575943
445.337927	2510.945799
445.712995	2510.870181
446.088002	2512.213649
446.462949	2513.690707
446.837837	2517.824453
447.212664	2517.189268
447.587431	2526.238139
447.962139	2529.620753
448.336786	2539.130890
448.711374	2537.817669
449.085901	2530.417255
449.460369	2529.285516
449.834776	2529.749302
450.209124	2539.939995
450.583412	2538.717515
450.957640	2540.224820
451.331808	2544.066179
451.705917	2537.202648
452.079965	2541.633823
452.453954	2540.887732
452.827883	2544.615665
453.201752	2546.463248
453.575562	2547.133722
453.949311	2554.032541
454.323001	2556.492624
454.696632	2556.527912
455.070202	2566.655590
455.443713	2568.840930
455.817164	2572.062227
456.190556	2575.459965
456.563888	2581.128742
456.937160	2582.356263
457.310373	2585.653178
457.683526	2591.752974
458.056619	2596.312698
458.429653	2600.927874
458.802628	2607.002465
459.175542	2617.598970
459.548398	2629.342338
459.921194	2647.233393
460.293930	2662.326608
460.666607	2684.865606
461.039224	2705.942671
461.411782	2720.730895
461.784280	2724.274827
462.156719	2730.349417
462.529099	2737.616240
462.901419	2737.197824
463.273680	2747.892632
463.645882	2760.795466
464.018024	2778.782302
464.390106	2807.476550
464.762130	2860.554859
465.134094	2947.441666
465.505999	3059.551887
465.877845	3161.259686
466.249631	3201.755275
466.621358	3202.700491
466.993026	3200.653783
467.364634	3203.872559
467.736184	3208.399516
468.107674	3228.065057
468.479105	3252.489447
468.850477	3284.861217
469.221790	3296.234060
469.593043	3301.948208
469.964238	3329.120027
470.335373	3374.157695
470.706449	3477.410608
471.077467	3623.669605
471.448425	3846.617154
471.819324	4009.330477
472.190164	4015.349615
472.560945	3955.387610
472.931667	3913.256167
473.302330	3942.688944
473.672934	3983.456755
474.043479	4078.490067
474.413965	4120.515646
474.784393	4182.756252
475.154761	4309.432886
475.525070	4395.326586
475.895321	4464.463490
476.265513	4582.406326
476.635645	4738.674533
477.005719	4828.172658
477.375734	4962.030416
477.745691	5112.723107
478.115588	5325.326209
478.485427	5606.602429
478.855207	6026.709505
479.224928	6414.343989
479.594591	6710.821809
479.964194	6752.179435
480.333739	6899.552526
480.703226	7069.212559
481.072653	7320.924932
481.442022	7568.211173
481.811333	7782.382073
482.180584	7809.558933
482.549777	7924.955986
482.918912	8047.710603
483.287988	8203.280611
483.657005	8275.848020
484.025964	8379.670584
484.394864	8564.355775
484.763706	8693.167338
485.132489	8765.961600
485.501213	8935.964431
485.869879	9166.597220
486.238487	9311.853027
486.607036	9550.027381
486.975527	9675.552112
487.343959	9924.209546
487.712333	10168.526547
488.080648	10374.117403
488.448905	10685.695999
488.817104	10893.822556
489.185244	11338.439722
489.553326	11987.672282
489.921350	12949.537039
490.289315	13995.079908
490.657222	14485.052336
491.025070	14877.143200
491.392861	14917.482513
491.760593	14847.995248
492.128267	14664.892979
492.495883	14518.369322
492.863440	14430.991002
493.230939	14335.743441
493.598380	14305.867043
493.965763	14493.397966
494.333088	14541.868660
494.700354	14675.066027
495.067563	14878.158992
495.434713	15112.272697
495.801805	15436.527275
496.168839	15596.939311
496.535815	15770.352482
496.902733	16073.230047
497.269593	16216.171964
497.636395	16481.989486
498.003139	16924.451559
498.369825	17014.047986
498.736453	17440.595136
499.103023	17548.372485
499.469535	17809.758833
499.835989	18154.672058
500.202385	18309.972364
500.568723	18614.773128
500.935003	19003.289814
501.301226	19228.742817
501.667390	19800.772626
502.033497	20235.320088
502.399546	20264.064747
502.765537	20239.133721
503.131470	20733.897765
503.497345	21208.817307
503.863163	20836.691933
504.228923	21427.089186
504.594625	21954.509825
504.960269	21885.287221
505.325856	22538.865256
505.691385	22500.491993
506.056856	22862.628320
506.422270	23411.529316
506.787625	23458.192756
507.152924	23861.205280
507.518164	24216.523447
507.883347	24045.514906
508.248472	24468.724812
508.613540	25054.204420
508.978550	25515.059143
509.343503	25646.572764
509.708398	26061.910909
510.073236	26690.028596
510.438016	26960.952807
510.802738	26894.185244
511.167403	27564.724241
511.532010	28014.135545
511.896561	28488.004006
512.261053	29345.118627
512.625488	29303.314859
512.989866	29471.674274
513.354186	29627.203952
513.718449	29870.096827
514.082655	30615.927977
514.446803	30646.530301
514.810894	31275.068924
515.174927	31459.078602
515.538904	31651.995998
515.902822	32392.057547
516.266684	32212.902501
516.630488	32765.728034
516.994235	32889.800913
517.357925	33538.178997
517.721558	33928.719706
518.085133	34394.318155
518.448651	34723.598762
518.812112	34751.945170
519.175516	35051.863577
519.538863	35525.333788
519.902152	35709.066201
520.265385	36288.635056
520.628560	36510.390373
520.991678	36548.652730
521.354739	36914.713596
521.717743	37367.452062
522.080690	37475.042888
522.443580	38120.625652
522.806413	38365.850060
523.169189	38491.178186
523.531908	38808.201228
523.894569	38859.436995
524.257174	39156.229887
524.619722	39598.243297
524.982213	39747.048076
525.344647	39830.673257
525.707025	40010.536585
526.069345	40528.835256
526.431608	40585.959091
526.793815	41000.394869
527.155964	40726.108209
527.518057	41013.249811
527.880093	40944.117948
528.242072	41550.178066
528.603995	41391.820300
528.965860	41523.351566
529.327669	41717.441030
529.689421	41729.935530
530.051117	41815.546925
530.412755	42057.965931
530.774337	42198.730070
531.135862	42144.041113
531.497331	42425.148454
531.858743	42433.799074
532.220098	42845.081611
532.581396	42665.606451
532.942638	42421.228957
533.303824	42778.225828
533.664953	42835.815970
534.026025	42656.242508
534.387040	43177.916232
534.747999	43196.747462
535.108902	43416.365329
535.469748	43037.114284
535.830537	43199.368862
536.191270	43464.836023
536.551947	43178.889174
536.912567	43530.746589
537.273131	43697.843195
537.633638	43273.763690
537.994089	43654.370805
538.354483	43322.930063
538.714821	43911.643571
539.075103	44296.898630
539.435328	44134.298733
539.795497	44062.149740
540.155609	44084.741671
540.515665	44589.857724
540.875665	44081.253192
541.235609	44440.241319
541.595496	44447.470334
541.955328	45135.638245
542.315102	44552.202826
542.674821	44387.757867
543.034483	44454.122136
543.394090	44442.950939
543.753640	44435.643787
544.113134	45444.091326
544.472571	44517.459193
544.831953	45727.376446
545.191278	44995.378222
545.550548	44754.421150
545.909761	45220.022120
546.268918	45427.841166
546.628019	45746.749600
546.987064	45357.658223
547.346053	44661.069063
547.704986	45527.328337
548.063863	45121.296163
548.422684	45338.247260
548.781449	45206.852105
549.140158	45602.043279
549.498811	45467.628473
549.857408	44933.445126
550.215949	45765.472445
550.574434	45703.433485
550.932864	45504.073495
551.291237	46212.337966
551.649555	45823.977556
552.007817	46072.771101
552.366022	45753.023316
552.724173	45931.901098
553.082267	46326.061356
553.440305	46634.617780
553.798288	45963.922507
554.156215	46289.843186
554.514086	46490.082858
554.871902	46240.424755
555.229661	46268.398117
555.587365	46108.742255
555.945014	46210.369396
556.302606	46140.229302
556.660143	46365.105092
557.017625	46457.335523
557.375050	46268.758560
557.732421	46620.081613
558.089735	46614.823689
558.446994	46521.658125
558.804197	46983.427817
559.161345	46927.987728
559.518437	46206.066771
559.875474	46504.210692
560.232455	46677.626384
560.589381	46866.102523
560.946251	46556.232879
561.303065	47226.545023
561.659825	47029.524128
562.016528	46732.809374
562.373177	46468.373129
562.729770	46945.921633
563.086307	46458.346274
563.442789	46907.470232
563.799216	46974.288205
564.155587	46773.017618
564.511904	46789.182077
564.868164	46896.604025
565.224370	47123.949981
565.580520	46882.211530
565.936615	47083.285513
566.292654	46811.443813
566.648638	47057.265598
567.004567	47022.600103
567.360441	47042.061478
567.716260	46897.723161
568.072023	47212.606233
568.427732	47207.333186
568.783385	46757.843744
569.138982	47133.369377
569.494525	47114.258362
569.850013	46887.187149
570.205445	46862.548510
570.560823	46820.870770
570.916145	46690.791357
571.271412	46735.944972
571.626625	46484.056158
571.981782	46541.658903
572.336884	46232.263127
572.691931	46554.108032
573.046923	46157.901066
573.401860	46006.487490
573.756743	45990.060890
574.111570	46112.084540
574.466342	45957.053935
574.821059	46090.059738
575.175722	45619.412574
575.530330	45634.087373
575.884882	45360.922370
576.239380	45333.949676
576.593823	45297.880220
576.948211	45206.073247
577.302544	44753.785965
577.656823	44798.150639
578.011047	45004.411970
578.365216	44745.954532
578.719330	44539.625147
579.073389	44391.548814
579.427394	44481.362011
579.781344	44451.442763
580.135239	44119.760046
580.489080	44187.518195
580.842866	43689.225343
581.196597	44140.138910
581.550273	44084.298049
581.903895	43946.553561
582.257463	44365.123086
582.610975	43757.419551
582.964434	44034.070513
583.317837	43706.970204
583.671186	43535.843196
584.024481	43770.723156
584.377721	43304.577743
584.730906	43581.490844
585.084037	43612.541831
585.437113	43334.086137
585.790135	43363.450858
586.143103	42959.183087
586.496016	43101.472175
586.848874	43128.472595
587.201679	43147.414730
587.554428	42623.356541
587.907124	42811.701610
588.259765	42579.732916
588.612352	42846.591436
588.964884	42234.804567
589.317362	42528.386244
589.669786	42463.037766
590.022155	42239.155083
590.374470	42657.427179
590.726731	42195.433156
591.078937	41724.521331
591.431090	41810.924187
591.783188	41478.076963
592.135232	41159.047542
592.487222	41399.901270
592.839157	41487.365289
593.191038	41173.863493
593.542866	40938.287853
593.894639	40342.025218
594.246358	40618.855140
594.598022	40590.624678
594.949633	40227.117157
595.301190	40185.333553
595.652692	40021.548985
596.004141	40349.448317
596.355535	39383.099454
596.706876	39331.699849
597.058162	39162.801031
597.409395	39635.938525
597.760573	39702.625428
598.111698	39263.089745
598.462768	39296.348758
598.813785	39333.272689
599.164748	38800.437851
599.515657	39209.620747
599.866511	38687.102630
600.217312	39275.753124
600.568060	38268.853219
600.918753	39008.977783
601.269392	38970.675096
601.619978	38628.118610
601.970510	38832.746606
602.320988	39019.291983
602.671412	39312.903907
603.021783	39057.778672
603.372100	38722.761232
603.722363	38829.500103
604.072572	38901.122296
604.422728	38925.816388
604.772830	38735.036442
605.122878	38838.717853
605.472872	38781.115108
605.822813	39052.477899
606.172701	38884.559585
606.522534	39104.616033
606.872314	39374.370696
607.222041	39147.649843
607.571714	39526.800065
607.921333	38970.559149
608.270899	39269.431517
608.620411	39600.741189
608.969870	39410.528372
609.319276	39390.383921
609.668627	39459.377152
610.017926	39941.031676
610.367171	40096.102610
610.716362	40187.851610
611.065500	40138.972582
611.414585	40319.403040
611.763616	40625.698506
612.112594	40540.911340
612.461518	40778.455550
612.810389	41046.738196
613.159207	40914.458319
613.507971	40997.864210
613.856682	41480.814310
614.205340	41352.015350
614.553945	42038.852397
614.902496	41513.788497
615.250994	41963.998824
615.599439	42042.734085
615.947830	42262.833382
616.296169	42316.229284
616.644454	42423.429421
616.992686	42611.895478
617.340864	43126.435968
617.688990	42854.155688
618.037063	43452.762460
618.385082	43413.421295
618.733048	43704.051376
619.080961	43729.284872
619.428821	43730.182197
619.776628	43837.886449
620.124382	43653.176052
620.472083	43802.432014
620.819731	43927.911374
621.167326	43587.174745
621.514868	43587.865383
621.862357	43138.983400
622.209793	43179.695759
622.557176	42847.836601
622.904506	42593.598610
623.251783	42250.999274
623.599007	42036.079762
623.946179	41821.850888
624.293297	41768.633947
624.640363	41186.073168
624.987376	41182.287261
625.334336	40942.567793
625.681243	40596.021234
626.028097	40567.740361
626.374899	40407.986195
626.721647	40397.735009
627.068343	40282.831989
627.414987	40047.538654
627.761577	39832.447743
628.108115	40165.161376
628.454600	39608.048341
628.801032	39813.286317
629.147412	39788.597266
629.493739	39792.355446
629.840014	39441.506262
630.186236	39767.038772
630.532405	39409.242878
630.878521	39623.438984
631.224585	39488.673818
631.570597	39218.404958
631.916556	39377.050069
632.262462	39329.355713
632.608316	39340.990696
632.954117	39221.354033
633.299866	39218.225997
633.645562	39135.183069
633.991206	38652.323710
634.336797	38226.542815
634.682336	38216.929334
635.027823	37964.344842
635.373257	37804.643608
635.718639	37563.512617
636.063968	37430.161495
636.409245	36865.222068
636.754470	36917.150994
637.099642	36664.269073
637.444762	36208.057253
637.789829	36349.736361
638.134845	35996.943812
