Dividing Wavelength (nm)	Counts (n)	Blue Motor Position (mm): 5.800000	Red Motor Position (mm): 0.000000	
326.493990	1976.689355
326.888308	1976.689355
327.282561	1976.689355
327.676750	1952.123812
328.070874	1953.535336
328.464933	1958.606736
328.858929	1970.652573
329.252859	1983.293267
329.646726	1994.797180
330.040528	2013.792247
330.434265	2031.612726
330.827938	2048.853473
331.221547	2068.796277
331.615091	2090.899216
332.008571	2108.830600
332.401986	2130.789867
332.795338	2150.231076
333.188625	2173.052380
333.581847	2190.824968
333.975006	2209.215097
334.368100	2226.344938
334.761129	2244.009141
335.154095	2257.380801
335.546996	2275.838986
335.939833	2290.269289
336.332606	2304.553398
336.725315	2313.942548
337.117960	2321.267344
337.510540	2328.551811
337.903056	2341.510097
338.295508	2342.785509
338.687896	2351.539473
339.080220	2360.288395
339.472480	2363.096318
339.864676	2368.994468
340.256807	2370.771475
340.648875	2369.642256
341.040879	2373.881867
341.432818	2374.068389
341.824694	2376.624254
342.216506	2375.895808
342.608253	2374.350694
342.999937	2376.599049
343.391557	2371.424304
343.783113	2372.072093
344.174605	2371.227699
344.566033	2368.860878
344.957397	2368.845754
345.348697	2367.005733
345.739934	2364.754858
346.131106	2362.256966
346.522215	2361.359641
346.913260	2360.376616
347.304241	2358.408045
347.695159	2352.988805
348.086012	2352.318331
348.476802	2352.391428
348.867528	2352.028465
349.258191	2349.568382
349.648789	2350.294308
350.039324	2348.245079
350.429796	2349.369256
350.820203	2345.071673
351.210548	2345.079234
351.600828	2344.071003
351.991045	2345.401868
352.381198	2343.254337
352.771288	2343.367763
353.161314	2344.456652
353.551276	2342.422546
353.941175	2344.214676
354.331010	2346.170644
354.720782	2342.614110
355.110490	2344.630572
355.500135	2344.607886
355.889717	2345.323730
356.279235	2342.782989
356.668689	2347.012517
357.058080	2346.463031
357.447408	2346.291632
357.836672	2341.759634
358.225873	2345.553103
358.615010	2345.454800
359.004084	2348.983608
359.393095	2349.580985
359.782043	2347.957733
360.170927	2348.910511
360.559748	2349.346571
360.948505	2350.715244
361.337199	2350.495954
361.725830	2353.465194
362.114398	2351.794051
362.502903	2350.357322
362.891344	2352.525018
363.279722	2352.887982
363.668037	2353.888651
364.056289	2351.894874
364.444478	2354.312108
364.832603	2354.201202
365.220665	2356.648682
365.608665	2356.981398
365.996601	2356.164732
366.384474	2356.885617
366.772284	2356.172293
367.160031	2356.225225
367.547715	2359.839733
367.935336	2355.993332
368.322893	2358.158508
368.710388	2357.044413
369.097820	2361.253776
369.485189	2357.349403
369.872495	2357.699763
370.259738	2359.239835
370.646918	2357.828312
371.034035	2359.343179
371.421090	2360.346369
371.808081	2359.799403
372.195010	2358.103055
372.581875	2361.830988
372.968678	2361.430217
373.355418	2360.258148
373.742096	2359.930473
374.128710	2360.411904
374.515262	2362.236801
374.901751	2363.272758
375.288177	2361.470546
375.674540	2362.249404
376.060841	2361.120186
376.447079	2362.398118
376.833254	2362.877028
377.219367	2357.997191
377.605417	2361.929291
377.991404	2358.869311
378.377329	2360.631194
378.763191	2358.309743
379.148991	2367.109077
379.534727	2364.245701
379.920402	2366.461288
380.306013	2365.324508
380.691563	2363.726462
381.077049	2364.671679
381.462474	2363.779394
381.847835	2364.596061
382.233134	2366.141175
382.618371	2365.102697
383.003545	2365.296782
383.388657	2363.429034
383.773706	2367.109077
384.158693	2364.802749
384.543618	2365.571525
384.928480	2366.252080
385.313280	2366.592358
385.698017	2366.068078
386.082692	2368.838192
386.467305	2368.691999
386.851856	2371.184849
387.236344	2367.320805
387.620770	2368.689478
388.005133	2366.826772
388.389435	2368.565970
388.773674	2372.361959
389.157851	2370.915148
389.541965	2371.303317
389.926018	2368.709643
390.310008	2369.218799
390.693936	2370.075796
391.077802	2370.887421
391.461606	2370.733666
391.845348	2371.515045
392.229027	2370.960518
392.612645	2370.637884
392.996200	2371.888090
393.379694	2371.031094
393.763125	2374.801877
394.146494	2372.354397
394.529801	2372.104860
394.913047	2372.767772
395.296230	2373.682741
395.679351	2372.624099
396.062410	2374.058307
396.445408	2372.757689
396.828343	2372.503111
397.211217	2371.678883
397.594028	2370.753831
397.976778	2365.279138
398.359466	2371.078985
398.742092	2369.838861
399.124656	2373.770961
399.507158	2374.766589
399.889598	2375.439583
400.271977	2373.579398
400.654294	2374.839686
401.036549	2376.641898
401.418742	2375.426980
401.800874	2374.776672
402.182944	2375.179964
402.564952	2375.202649
402.946898	2374.937988
403.328783	2375.061497
403.710606	2377.733308
404.092367	2375.084182
404.474067	2377.156096
404.855705	2376.331868
405.237282	2377.040150
405.618797	2378.144162
406.000250	2376.770448
406.381642	2374.907742
406.762972	2378.718854
407.144240	2379.059132
407.525447	2377.335057
407.906593	2375.868081
408.287677	2375.426980
408.668700	2376.929244
409.049661	2380.420243
409.430560	2376.200798
409.811399	2380.309338
410.192176	2377.602238
410.572891	2378.053422
410.953545	2379.578371
411.334138	2376.193236
411.714669	2379.996786
412.095139	2379.263298
412.475547	2379.096940
412.855894	2379.482589
413.236180	2380.039636
413.616405	2382.051057
413.996568	2379.701879
414.376670	2377.876981
414.756711	2380.528628
415.136691	2379.958978
415.516609	2381.330172
415.896466	2381.413351
416.276262	2383.117261
416.655997	2379.049049
417.035670	2378.444111
417.415283	2378.895294
417.794834	2378.040819
418.174324	2384.175903
418.553753	2380.069883
418.933121	2381.640203
419.312428	2382.877806
419.691674	2381.327651
420.070859	2379.608618
420.449983	2383.308824
420.829045	2380.573998
421.208047	2381.173896
421.586988	2381.037785
421.965867	2380.821015
422.344686	2382.471993
422.723444	2382.706407
423.102141	2382.862682
423.480777	2382.812271
423.859352	2382.040974
424.237866	2383.681870
424.616319	2379.628782
424.994712	2381.504091
425.373044	2383.709596
425.751314	2384.755636
426.129524	2384.122971
426.507673	2384.183465
426.885762	2383.361757
427.263789	2380.604245
427.641756	2382.799668
428.019662	2384.801006
428.397508	2386.885523
428.775292	2386.837632
429.153016	2383.293701
429.530679	2387.014073
429.908282	2386.146994
430.285824	2388.352499
430.663305	2384.559031
431.040726	2384.778321
431.418086	2384.586757
431.795385	2385.557179
432.172624	2387.157745
432.549802	2384.584236
432.926920	2386.651109
433.303977	2384.886706
433.680974	2387.019114
434.057910	2384.450646
434.434786	2386.883003
434.811601	2385.494165
435.188355	2387.024155
435.565050	2387.762684
435.941683	2390.442057
436.318257	2385.637838
436.694770	2382.933258
437.071222	2383.412168
437.447614	2384.339740
437.823946	2386.454504
438.200218	2387.167828
438.576429	2387.876110
438.952580	2387.278733
439.328670	2388.798641
439.704700	2387.288815
440.080670	2387.656820
440.456580	2386.699000
440.832429	2386.847714
441.208218	2387.409803
441.583947	2390.880637
441.959616	2387.157745
442.335224	2390.038765
442.710773	2386.865358
443.086261	2386.943496
443.461689	2387.462735
443.837057	2390.300905
444.212365	2387.003990
444.587612	2388.503733
444.962800	2390.540360
445.337927	2388.929711
445.712995	2388.697818
446.088002	2389.751419
446.462949	2391.180586
446.837837	2390.547921
447.212664	2387.891233
447.587431	2387.669422
447.962139	2389.227139
448.336786	2391.573796
448.711374	2389.968189
449.085901	2388.682694
449.460369	2391.321738
449.834776	2392.680329
450.209124	2389.050699
450.583412	2391.858621
450.957640	2391.072201
451.331808	2390.421893
451.705917	2392.450957
452.079965	2390.890720
452.453954	2393.716287
452.827883	2389.953065
453.201752	2391.384753
453.575562	2391.573796
453.949311	2389.035575
454.323001	2390.910884
454.696632	2389.716131
455.070202	2389.990874
455.443713	2391.125133
455.817164	2390.331152
456.190556	2387.051881
456.563888	2391.238559
456.937160	2387.409803
457.310373	2389.945503
457.683526	2393.267624
458.056619	2392.208982
458.429653	2392.909702
458.802628	2391.112531
459.175542	2390.918446
459.548398	2394.361554
459.921194	2393.491955
460.293930	2390.641183
460.666607	2389.559855
461.039224	2394.394322
461.411782	2393.534805
461.784280	2393.585217
462.156719	2392.516492
462.529099	2392.768550
462.901419	2392.398025
463.273680	2392.851729
463.645882	2393.355844
464.018024	2393.101266
464.390106	2391.619167
464.762130	2395.962121
465.134094	2393.865001
465.505999	2392.718138
465.877845	2393.759136
466.249631	2397.098901
466.621358	2393.958262
466.993026	2396.400701
467.364634	2396.993037
467.736184	2394.260731
468.107674	2394.230484
468.479105	2396.821637
468.850477	2394.651421
469.221790	2392.597150
469.593043	2394.971534
469.964238	2394.031359
470.335373	2396.345248
470.706449	2396.655279
471.077467	2395.165618
471.448425	2396.834240
471.819324	2395.589075
472.190164	2394.283416
472.560945	2395.473129
472.931667	2396.463715
473.302330	2398.709549
473.672934	2398.344066
474.043479	2392.491286
474.413965	2396.829199
474.784393	2391.135216
475.154761	2396.151164
475.525070	2392.445916
475.895321	2393.091183
476.265513	2392.271996
476.635645	2395.863818
477.005719	2396.975392
477.375734	2398.122255
477.745691	2396.317522
478.115588	2397.119065
478.485427	2396.531771
478.855207	2398.374313
479.224928	2396.181411
479.594591	2393.822151
479.964194	2398.417163
480.333739	2397.603016
480.703226	2396.408263
481.072653	2396.123437
481.442022	2396.952707
481.811333	2395.004301
482.180584	2394.704353
482.549777	2398.636453
482.918912	2397.270300
483.287988	2399.427914
483.657005	2396.809034
484.025964	2399.407749
484.394864	2397.388767
484.763706	2397.678633
485.132489	2399.490928
485.501213	2397.666031
485.869879	2398.081926
486.238487	2398.512944
486.607036	2397.953376
486.975527	2400.738614
487.343959	2397.108983
487.712333	2396.546894
488.080648	2397.852553
488.448905	2397.275341
488.817104	2396.972872
489.185244	2399.614437
489.553326	2398.994375
489.921350	2399.062430
490.289315	2397.781977
490.657222	2399.730383
491.025070	2399.475805
491.392861	2399.725342
491.760593	2400.347924
492.128267	2398.465053
492.495883	2397.449261
492.863440	2396.980434
493.230939	2398.311298
493.598380	2398.591082
493.965763	2396.322563
494.333088	2395.142933
494.700354	2397.224930
495.067563	2399.453120
495.434713	2396.577141
495.801805	2398.722152
496.168839	2397.741648
496.535815	2397.235012
496.902733	2399.168294
497.269593	2399.042266
497.636395	2399.674930
498.003139	2398.023952
498.369825	2399.511093
498.736453	2399.679972
499.103023	2398.581000
499.469535	2398.835578
499.835989	2399.143089
500.202385	2399.979920
500.568723	2398.704508
500.935003	2398.273490
501.301226	2398.885990
501.667390	2398.754920
502.033497	2398.215516
502.399546	2398.719632
502.765537	2395.405073
503.131470	2398.923798
503.497345	2399.904303
503.863163	2399.886659
504.228923	2402.964283
504.594625	2402.838254
504.960269	2400.796587
505.325856	2399.180897
505.691385	2402.709705
506.056856	2399.916906
506.422270	2400.032852
506.787625	2399.851371
507.152924	2401.562843
507.518164	2401.882956
507.883347	2397.524878
508.248472	2399.778274
508.613540	2400.521844
508.978550	2400.494118
509.343503	2401.146947
509.708398	2401.212482
510.073236	2398.013870
510.438016	2399.700136
510.802738	2400.201731
511.167403	2401.593089
511.532010	2400.834396
511.896561	2399.367420
512.261053	2402.187946
512.625488	2397.850033
512.989866	2397.655948
513.354186	2399.304406
513.718449	2396.592265
514.082655	2403.120559
514.446803	2401.499828
514.810894	2401.242729
515.174927	2402.777761
515.538904	2401.484705
515.902822	2400.932698
516.266684	2400.592420
516.630488	2401.509910
516.994235	2399.090157
517.357925	2402.263563
517.721558	2401.595610
518.085133	2402.049314
518.448651	2402.281207
518.812112	2402.298851
519.175516	2401.968655
519.538863	2401.585528
519.902152	2399.637122
520.265385	2400.839437
520.628560	2399.977400
520.991678	2400.892369
521.354739	2402.679458
521.717743	2402.470250
522.080690	2403.929664
522.443580	2402.369427
522.806413	2402.717267
523.169189	2404.892525
523.531908	2405.406722
523.894569	2404.668193
524.257174	2405.626012
524.619722	2405.532751
524.982213	2405.948646
525.344647	2405.933523
525.707025	2403.465878
526.069345	2406.939233
526.431608	2407.249264
526.793815	2406.997206
527.155964	2408.592732
527.518057	2407.655077
527.880093	2407.221538
528.242072	2406.838410
528.603995	2409.258164
528.965860	2407.952505
529.327669	2408.189439
529.689421	2409.351425
530.051117	2411.887126
530.412755	2412.396282
530.774337	2409.853020
531.135862	2409.197670
531.497331	2409.023750
531.858743	2408.113822
532.220098	2410.682290
532.581396	2407.705488
532.942638	2409.575757
533.303824	2414.475758
533.664953	2412.040881
534.026025	2410.253792
534.387040	2414.022054
534.747999	2414.821077
535.108902	2411.325037
535.469748	2416.096489
535.830537	2416.696386
536.191270	2416.507343
536.551947	2417.792837
536.912567	2414.465676
537.273131	2416.608166
537.633638	2417.749988
537.994089	2417.679411
538.354483	2413.888464
538.714821	2419.544638
539.075103	2417.850811
539.435328	2419.053126
539.795497	2416.361150
540.155609	2417.371901
540.515665	2419.186716
540.875665	2417.208063
541.235609	2423.078487
541.595496	2419.577406
541.955328	2421.203178
542.315102	2421.422468
542.674821	2422.171079
543.034483	2420.784762
543.394090	2419.272416
543.753640	2422.471028
544.113134	2422.344999
544.472571	2424.616039
544.831953	2423.814496
545.191278	2425.127716
545.550548	2421.374577
545.909761	2422.166038
546.268918	2424.782397
546.628019	2426.151070
546.987064	2425.052099
547.346053	2428.235587
547.704986	2426.582089
548.063863	2425.047058
548.422684	2424.122006
548.781449	2425.667120
549.140158	2426.957655
549.498811	2427.171904
549.857408	2423.199475
550.215949	2424.414393
550.574434	2424.414393
550.932864	2427.124013
551.291237	2422.423137
551.649555	2428.104517
552.007817	2428.225505
552.366022	2428.303643
552.724173	2426.335073
553.082267	2428.787594
553.440305	2432.200455
553.798288	2431.111566
554.156215	2430.947728
554.514086	2432.364293
554.871902	2432.933943
555.229661	2434.448810
555.587365	2432.444951
555.945014	2432.865887
556.302606	2431.787080
556.660143	2434.426124
557.017625	2429.513520
557.375050	2432.145002
557.732421	2431.386309
558.089735	2433.261618
558.446994	2431.963521
558.804197	2433.695157
559.161345	2433.864036
559.518437	2435.729263
559.875474	2436.099787
560.232455	2435.938471
560.589381	2433.485949
560.946251	2434.063161
561.303065	2434.821855
561.659825	2436.412339
562.016528	2434.325301
562.373177	2436.987031
562.729770	2434.894952
563.086307	2436.704726
563.442789	2430.814138
563.799216	2434.370672
564.155587	2434.816814
564.511904	2430.793973
564.868164	2430.299940
565.224370	2433.506114
565.580520	2433.329673
565.936615	2433.856474
566.292654	2432.563418
566.648638	2431.373706
567.004567	2432.944025
567.360441	2433.768254
567.716260	2433.818665
568.072023	2432.812955
568.427732	2426.766091
568.783385	2432.457554
569.138982	2428.573345
569.494525	2428.729621
569.850013	2426.362799
570.205445	2431.703901
570.560823	2433.188521
570.916145	2430.380598
571.271412	2427.676019
571.626625	2429.548808
571.981782	2429.737851
572.336884	2429.936977
572.691931	2430.216761
573.046923	2429.906730
573.401860	2429.105187
573.756743	2428.548139
574.111570	2431.625763
574.466342	2428.379260
574.821059	2431.928233
575.175722	2427.461770
575.530330	2428.646442
575.884882	2429.044693
576.239380	2427.426482
576.593823	2427.174425
576.948211	2425.737696
577.302544	2428.694332
577.656823	2426.660227
578.011047	2427.870104
578.365216	2423.728796
578.719330	2422.284505
579.073389	2422.839032
579.427394	2426.554363
579.781344	2424.570669
580.135239	2424.641245
580.489080	2421.883734
580.842866	2422.720565
581.196597	2422.571851
581.550273	2421.361974
581.903895	2420.353743
582.257463	2422.803744
582.610975	2422.624783
582.964434	2422.304670
583.317837	2424.235432
583.671186	2420.404155
584.024481	2422.526481
584.377721	2422.052612
584.730906	2421.563620
585.084037	2418.324679
585.437113	2422.385328
585.790135	2422.103024
586.143103	2417.127405
586.496016	2422.032448
586.848874	2418.483475
587.201679	2416.575399
587.554428	2413.273443
587.907124	2417.508012
588.259765	2414.039698
588.612352	2419.305183
588.964884	2414.553896
589.317362	2416.308218
589.669786	2416.096489
590.022155	2419.658064
590.374470	2415.950296
590.726731	2416.285532
591.078937	2413.573392
591.431090	2414.649678
591.783188	2416.472055
592.135232	2416.265368
592.487222	2415.690676
592.839157	2413.505336
593.191038	2416.250244
593.542866	2413.033988
593.894639	2412.930644
594.246358	2411.582136
594.598022	2413.633885
594.949633	2414.024575
595.301190	2413.404513
595.652692	2415.839390
596.004141	2413.800243
596.355535	2415.698238
596.706876	2415.055491
597.058162	2411.778741
597.409395	2412.366035
597.760573	2416.046078
598.111698	2411.718247
598.462768	2413.570871
598.813785	2413.311252
599.164748	2411.214132
599.515657	2410.805798
599.866511	2411.753535
600.217312	2413.979204
600.568060	2411.877043
600.918753	2414.692528
601.269392	2413.099523
601.619978	2413.901067
601.970510	2412.171951
602.320988	2412.776889
602.671412	2413.059194
603.021783	2411.423339
603.372100	2412.088772
603.722363	2412.023237
604.072572	2412.665984
604.422728	2415.088258
604.772830	2408.345715
605.122878	2406.505694
605.472872	2408.287742
605.822813	2406.868657
606.172701	2411.491395
606.522534	2410.107598
606.872314	2409.953843
607.222041	2412.421488
607.571714	2412.590367
607.921333	2410.747825
608.270899	2412.618093
608.620411	2410.846127
608.969870	2411.030129
609.319276	2410.707496
609.668627	2410.352094
610.017926	2410.473082
610.367171	2410.301683
610.716362	2411.065418
611.065500	2409.744635
611.414585	2413.182702
611.763616	2409.507701
612.112594	2415.499112
612.461518	2411.574574
612.810389	2411.224214
613.159207	2409.525345
613.507971	2410.024419
613.856682	2410.115160
614.205340	2411.713206
614.553945	2414.783268
614.902496	2411.090623
615.250994	2413.616241
615.599439	2409.220355
615.947830	2413.336457
616.296169	2411.935017
616.644454	2414.127918
616.992686	2412.056004
617.340864	2412.040881
617.688990	2416.388876
618.037063	2411.231776
618.385082	2414.579102
618.733048	2414.009451
619.080961	2417.109761
619.428821	2415.756211
619.776628	2416.625810
620.124382	2415.670512
620.472083	2418.430543
620.819731	2411.980387
621.167326	2416.857703
621.514868	2415.262178
621.862357	2415.998187
622.209793	2417.132446
622.557176	2412.386200
622.904506	2413.021385
623.251783	2413.449883
623.599007	2412.280336
623.946179	2410.520973
624.293297	2415.763773
624.640363	2415.625141
624.987376	2415.025244
625.334336	2415.395769
625.681243	2413.989287
626.028097	2417.170255
626.374899	2416.083886
626.721647	2415.937693
627.068343	2415.844431
627.414987	2418.014648
627.761577	2416.247724
628.108115	2416.116654
628.454600	2416.156983
628.801032	2419.116140
629.147412	2419.297622
629.493739	2418.523805
629.840014	2419.559762
630.186236	2417.402148
630.532405	2418.274267
630.878521	2420.835174
631.224585	2420.595719
631.570597	2419.905081
631.916556	2423.312901
632.262462	2423.567479
632.608316	2424.878179
632.954117	2423.353230
633.299866	2423.995977
633.645562	2423.486821
633.991206	2426.435896
634.336797	2425.286513
634.682336	2427.960845
635.027823	2424.885741
635.373257	2422.594536
635.718639	2425.112593
636.063968	2427.418921
636.409245	2426.045206
636.754470	2428.041503
637.099642	2424.999167
637.444762	2427.471853
637.789829	2428.137285
638.134845	2427.736513
638.479808	2426.952614
638.824719	2425.715011
639.169577	2428.255752
639.514383	2429.566452
639.859137	2430.418407
640.203839	2430.665424
640.548489	2428.918664
640.893086	2429.574014
641.237632	2430.617533
641.582125	2431.371185
641.926566	2430.446133
642.270955	2434.637853
642.615292	2437.344953
642.959576	2438.592638
643.303809	2437.559202
643.647990	2437.551640
643.992118	2438.731270
644.336195	2440.220931
