Dividing Wavelength (nm)	Counts (n)	Blue Motor Position (mm): 5.000000	Red Motor Position (mm): 0.000000	
326.493990	1977.528707
326.888308	1977.528707
327.282561	1977.528707
327.676750	1951.160952
328.070874	1954.697322
328.464933	1960.794597
328.858929	1969.707357
329.252859	1982.373256
329.646726	1996.317088
330.040528	2013.192350
330.434265	2033.798067
330.827938	2051.661395
331.221547	2071.271484
331.615091	2093.001377
332.008571	2113.244131
332.401986	2135.069806
332.795338	2152.658392
333.188625	2171.219920
333.581847	2192.793538
333.975006	2209.510004
334.368100	2227.060782
334.761129	2244.097361
335.154095	2259.543456
335.546996	2274.503080
335.939833	2290.221398
336.332606	2300.850671
336.725315	2313.430870
337.117960	2319.782724
337.510540	2327.273879
337.903056	2336.978100
338.295508	2344.058401
338.687896	2347.408247
339.080220	2356.114320
339.472480	2361.662110
339.864676	2363.444158
340.256807	2368.676875
340.648875	2368.414735
341.040879	2372.278780
341.432818	2370.794160
341.824694	2368.941536
342.216506	2373.513862
342.608253	2371.951105
342.999937	2371.394057
343.391557	2371.147041
343.783113	2370.496732
344.174605	2368.419777
344.566033	2368.467668
344.957397	2366.262163
345.348697	2366.095805
345.739934	2361.493231
346.131106	2360.779908
346.522215	2357.656913
346.913260	2356.565503
347.304241	2353.472755
347.695159	2353.830677
348.086012	2350.548886
348.476802	2352.787158
348.867528	2349.540655
349.258191	2348.106447
349.648789	2347.708196
350.039324	2343.924810
350.429796	2344.950685
350.820203	2344.791888
351.210548	2348.071159
351.600828	2340.247288
351.991045	2342.631754
352.381198	2342.470437
352.771288	2342.916579
353.161314	2343.105623
353.551276	2341.283245
353.941175	2344.161744
354.331010	2341.684017
354.720782	2344.179388
355.110490	2341.157217
355.500135	2342.858606
355.889717	2344.859944
356.279235	2340.345591
356.668689	2341.023626
357.058080	2342.442711
357.447408	2340.249809
357.836672	2340.146465
358.225873	2340.534634
358.615010	2340.869871
359.004084	2345.306086
359.393095	2346.740294
359.782043	2347.264574
360.170927	2346.344564
360.559748	2349.961592
360.948505	2347.665346
361.337199	2347.899760
361.725830	2348.925635
362.114398	2350.243896
362.502903	2350.765656
362.891344	2350.075018
363.279722	2349.109637
363.668037	2350.322034
364.056289	2350.594257
364.444478	2353.311438
364.832603	2352.192302
365.220665	2356.068950
365.608665	2354.791017
365.996601	2354.082735
366.384474	2353.613908
366.772284	2354.816223
367.160031	2355.060719
367.547715	2355.794207
367.935336	2355.806810
368.322893	2356.399145
368.710388	2356.215143
369.097820	2357.208250
369.485189	2356.782273
369.872495	2356.620956
370.259738	2359.761595
370.646918	2357.185565
371.034035	2357.241018
371.421090	2360.858046
371.808081	2358.498786
372.195010	2355.610205
372.581875	2358.236646
372.968678	2357.906450
373.355418	2355.312777
373.742096	2358.866790
374.128710	2359.151615
374.515262	2358.085411
374.901751	2356.875534
375.288177	2361.115145
375.674540	2358.554238
376.060841	2359.610360
376.447079	2360.089270
376.833254	2361.107583
377.219367	2355.557273
377.605417	2359.789321
377.991404	2355.947962
378.377329	2356.061388
378.763191	2356.212623
379.148991	2361.221009
379.534727	2360.172449
379.920402	2361.173118
380.306013	2360.638756
380.691563	2364.832996
381.077049	2361.720083
381.462474	2362.619929
381.847835	2360.132120
382.233134	2361.861235
382.618371	2362.143540
383.003545	2362.330063
383.388657	2361.594054
383.773706	2362.609847
384.158693	2364.845598
384.543618	2365.306864
384.928480	2364.046576
385.313280	2361.899044
385.698017	2364.396936
386.082692	2364.843078
386.467305	2363.134127
386.851856	2364.941380
387.236344	2367.267873
387.620770	2366.962883
388.005133	2367.530013
388.389435	2365.062368
388.773674	2365.548839
389.157851	2370.075796
389.541965	2365.569004
389.926018	2370.975642
390.310008	2365.745444
390.693936	2367.658562
391.077802	2370.690816
391.461606	2368.969262
391.845348	2367.426669
392.229027	2369.768285
392.612645	2367.033459
392.996200	2365.558922
393.379694	2366.247039
393.763125	2369.551516
394.146494	2369.657380
394.529801	2369.796012
394.913047	2367.935826
395.296230	2370.814325
395.679351	2370.390868
396.062410	2370.141331
396.445408	2371.260467
396.828343	2368.724766
397.211217	2364.550691
397.594028	2368.455065
397.976778	2366.466329
398.359466	2369.203676
398.742092	2367.351052
399.124656	2373.297093
399.507158	2372.379603
399.889598	2372.777854
400.271977	2370.048069
400.654294	2373.496218
401.036549	2371.686444
401.418742	2372.112422
401.800874	2372.666949
402.182944	2373.176105
402.564952	2372.498070
402.946898	2372.704757
403.328783	2373.468492
403.710606	2374.219624
404.092367	2373.329860
404.474067	2373.357587
404.855705	2371.230220
405.237282	2374.668287
405.618797	2375.074100
406.000250	2374.738863
406.381642	2376.026878
406.762972	2377.337578
407.144240	2374.232227
407.525447	2376.536034
407.906593	2375.139635
408.287677	2373.085364
408.668700	2371.951105
409.049661	2376.170551
409.430560	2374.567464
409.811399	2376.911600
410.192176	2374.854809
410.572891	2376.876312
410.953545	2375.868081
411.334138	2378.378576
411.714669	2373.949922
412.095139	2377.203987
412.475547	2379.041488
412.855894	2375.805067
413.236180	2379.192722
413.616405	2377.466127
413.996568	2377.410674
414.376670	2375.825232
414.756711	2377.062835
415.136691	2379.515356
415.516609	2375.752135
415.896466	2380.311858
416.276262	2380.790768
416.655997	2375.111908
417.035670	2375.268184
417.415283	2378.519728
417.794834	2373.440766
418.174324	2378.996117
418.553753	2377.100643
418.933121	2378.693648
419.312428	2378.794471
419.691674	2378.275232
420.070859	2380.047198
420.449983	2380.962167
420.829045	2380.652136
421.208047	2380.090048
421.586988	2380.208515
421.965867	2378.308000
422.344686	2379.820346
422.723444	2381.042826
423.102141	2380.921838
423.480777	2382.421581
423.859352	2378.912938
424.237866	2381.246993
424.616319	2380.170706
424.994712	2383.810419
425.373044	2381.977960
425.751314	2382.290511
426.129524	2381.604914
426.507673	2380.062321
426.885762	2381.559544
427.263789	2383.094575
427.641756	2381.541900
428.019662	2383.311345
428.397508	2381.075593
428.775292	2385.418547
429.153016	2382.204812
429.530679	2383.535676
429.908282	2382.592981
430.285824	2381.526777
430.663305	2381.882178
431.040726	2384.059956
431.418086	2380.213556
431.795385	2384.420399
432.172624	2385.547097
432.549802	2383.873434
432.926920	2383.495347
433.303977	2381.131046
433.680974	2385.600029
434.057910	2386.756974
434.434786	2382.623228
434.811601	2386.154556
435.188355	2385.146325
435.565050	2383.419730
435.941683	2382.991232
436.318257	2383.117261
436.694770	2383.208001
437.071222	2384.218753
437.447614	2380.233721
437.823946	2382.076262
438.200218	2382.124153
438.576429	2382.804709
438.952580	2385.428630
439.328670	2388.251676
439.704700	2384.599360
440.080670	2385.844525
440.456580	2384.102806
440.832429	2386.078938
441.208218	2386.187323
441.583947	2389.572458
441.959616	2385.617673
442.335224	2385.176572
442.710773	2388.085318
443.086261	2385.589947
443.461689	2385.088352
443.837057	2387.626573
444.212365	2384.261603
444.587612	2385.244628
444.962800	2387.374515
445.337927	2386.404093
445.712995	2386.250338
446.088002	2386.787221
446.462949	2385.078269
446.837837	2388.342417
447.212664	2386.204967
447.587431	2388.203785
447.962139	2387.949207
448.336786	2389.958106
448.711374	2387.576161
449.085901	2386.217570
449.460369	2387.636655
449.834776	2386.688918
450.209124	2384.992570
450.583412	2387.447612
450.957640	2387.460215
451.331808	2389.403579
451.705917	2385.668084
452.079965	2390.253014
452.453954	2390.532798
452.827883	2386.809906
453.201752	2388.271840
453.575562	2389.562376
453.949311	2388.415513
454.323001	2388.748229
454.696632	2389.360730
455.070202	2390.333672
455.443713	2386.570451
455.817164	2385.358053
456.190556	2384.798485
456.563888	2388.143291
456.937160	2383.394524
457.310373	2391.193189
457.683526	2387.447612
458.056619	2390.822664
458.429653	2385.594988
458.802628	2387.387118
459.175542	2387.883672
459.548398	2391.306615
459.921194	2389.088507
460.293930	2390.242932
460.666607	2386.895605
461.039224	2389.786707
461.411782	2391.790566
461.784280	2393.436503
462.156719	2387.734958
462.529099	2389.393497
462.901419	2391.699825
463.273680	2391.122613
463.645882	2388.120606
464.018024	2392.758467
464.390106	2388.791079
464.762130	2389.249824
465.134094	2391.692263
465.505999	2390.290823
465.877845	2390.822664
466.249631	2390.532798
466.621358	2391.374671
466.993026	2394.437172
467.364634	2394.800135
467.736184	2393.212171
468.107674	2392.120761
468.479105	2395.878942
468.850477	2390.046327
469.221790	2390.195041
469.593043	2392.077912
469.964238	2394.263252
470.335373	2393.378529
470.706449	2394.389281
471.077467	2392.715617
471.448425	2392.087994
471.819324	2389.791748
472.190164	2395.989847
472.560945	2393.910371
472.931667	2393.086142
473.302330	2390.406769
473.672934	2392.055226
474.043479	2393.922974
474.413965	2391.094887
474.784393	2386.663712
475.154761	2391.775442
475.525070	2392.256873
475.895321	2392.599671
476.265513	2386.202447
476.635645	2392.728220
477.005719	2393.832233
477.375734	2392.541698
477.745691	2394.795093
478.115588	2393.411297
478.485427	2392.292161
478.855207	2392.024979
479.224928	2393.040772
479.594591	2394.452295
479.964194	2396.055382
480.333739	2393.945659
480.703226	2394.676626
481.072653	2393.960783
481.442022	2395.372306
481.811333	2392.198899
482.180584	2394.220402
482.549777	2395.957079
482.918912	2390.678991
483.287988	2396.438510
483.657005	2392.206461
484.025964	2395.105124
484.394864	2395.427758
484.763706	2392.302243
485.132489	2394.545556
485.501213	2396.098232
485.869879	2394.754764
486.238487	2394.167470
486.607036	2396.032697
486.975527	2395.785680
487.343959	2395.659651
487.712333	2392.014897
488.080648	2392.428272
488.448905	2396.007491
488.817104	2392.907181
489.185244	2393.794424
489.553326	2395.762995
489.921350	2394.681667
490.289315	2392.937428
490.657222	2396.907337
491.025070	2397.030845
491.392861	2396.433468
491.760593	2394.442213
492.128267	2397.108983
492.495883	2392.892058
492.863440	2394.971534
493.230939	2394.169990
493.598380	2395.218550
493.965763	2389.499361
494.333088	2396.650238
494.700354	2392.849208
495.067563	2396.471277
495.434713	2389.118754
495.801805	2396.357851
496.168839	2394.366595
496.535815	2396.675444
496.902733	2395.107645
497.269593	2396.987995
497.636395	2394.147305
498.003139	2395.561349
498.369825	2397.986144
498.736453	2395.773077
499.103023	2394.240567
499.469535	2393.244939
499.835989	2396.030176
500.202385	2397.303068
500.568723	2397.348438
500.935003	2394.835423
501.301226	2398.575959
501.667390	2395.392470
502.033497	2398.674261
502.399546	2394.790052
502.765537	2394.664023
503.131470	2393.519682
503.497345	2396.816596
503.863163	2397.214847
504.228923	2395.679816
504.594625	2397.774415
504.960269	2395.349620
505.325856	2395.082439
505.691385	2394.681668
506.056856	2397.749210
506.422270	2397.098901
506.787625	2397.686195
507.152924	2396.544374
507.518164	2392.271996
507.883347	2396.927502
508.248472	2398.558315
508.613540	2395.480690
508.978550	2396.015053
509.343503	2394.656462
509.708398	2395.868859
510.073236	2396.123437
510.438016	2395.818448
510.802738	2396.274672
511.167403	2398.744837
511.532010	2395.299209
511.896561	2396.614950
512.261053	2397.928171
512.625488	2393.156718
512.989866	2391.427603
513.354186	2397.847512
513.718449	2391.087325
514.082655	2398.147461
514.446803	2395.843653
514.810894	2397.376164
515.174927	2398.071843
515.538904	2398.573438
515.902822	2396.950187
516.266684	2397.262738
516.630488	2396.708211
516.994235	2397.900444
517.357925	2397.224930
517.721558	2397.300547
518.085133	2395.518499
518.448651	2398.281051
518.812112	2398.039076
519.175516	2396.332645
519.538863	2398.979251
519.902152	2400.156361
520.265385	2396.292316
520.628560	2396.932543
520.991678	2398.344066
521.354739	2397.991185
521.717743	2399.979920
522.080690	2399.100239
522.443580	2396.753582
522.806413	2401.008316
523.169189	2399.992523
523.531908	2400.317678
523.894569	2396.935063
524.257174	2400.242060
524.619722	2399.821124
524.982213	2399.793397
525.344647	2396.960269
525.707025	2396.824158
526.069345	2397.529919
526.431608	2398.664179
526.793815	2396.446071
527.155964	2401.028480
527.518057	2398.946484
527.880093	2399.891700
528.242072	2397.078736
528.603995	2397.885321
528.965860	2400.146278
529.327669	2397.487070
529.689421	2398.991854
530.051117	2398.404560
530.412755	2395.831051
530.774337	2399.740465
531.135862	2397.784498
531.497331	2396.932543
531.858743	2395.657131
532.220098	2396.067985
532.581396	2395.407594
532.942638	2395.697460
533.303824	2397.240053
533.664953	2398.255846
534.026025	2397.572769
534.387040	2397.144271
534.747999	2399.937070
535.108902	2399.090157
535.469748	2398.495300
535.830537	2397.091339
536.191270	2398.149981
536.551947	2400.428583
536.912567	2398.583521
537.273131	2400.063099
537.633638	2401.759448
537.994089	2397.847512
538.354483	2398.906154
538.714821	2400.690723
539.075103	2399.317008
539.435328	2400.156361
539.795497	2398.822975
540.155609	2400.892369
540.515665	2400.090826
540.875665	2399.432955
541.235609	2401.189797
541.595496	2399.125445
541.955328	2402.215672
542.315102	2399.367420
542.674821	2398.815414
543.034483	2401.973697
543.394090	2398.964128
543.753640	2404.280024
544.113134	2398.563356
544.472571	2402.808008
544.831953	2400.985630
545.191278	2400.448747
545.550548	2401.615775
545.909761	2400.037893
546.268918	2401.416649
546.628019	2403.163409
546.987064	2403.927144
547.346053	2402.755075
547.704986	2403.226423
548.063863	2401.588048
548.422684	2401.963614
548.781449	2397.648387
549.140158	2402.059396
549.498811	2402.505538
549.857408	2401.948491
550.215949	2402.475291
550.574434	2397.328273
550.932864	2399.982441
551.291237	2401.459499
551.649555	2400.809190
552.007817	2403.624674
552.366022	2403.236506
552.724173	2403.906979
553.082267	2401.000754
553.440305	2403.518810
553.798288	2401.580487
554.156215	2402.326577
554.514086	2405.068965
554.871902	2403.463357
555.229661	2401.492266
555.587365	2405.167267
555.945014	2403.082750
556.302606	2400.355486
556.660143	2405.767165
557.017625	2405.454613
557.375050	2404.390930
557.732421	2405.356311
558.089735	2406.230951
558.446994	2403.954870
558.804197	2405.895714
559.161345	2402.883625
559.518437	2405.061403
559.875474	2404.895045
560.232455	2406.800601
560.589381	2405.994017
560.946251	2408.716240
561.303065	2406.092319
561.659825	2407.481157
562.016528	2405.552916
562.373177	2407.476116
562.729770	2406.140210
563.086307	2408.680952
563.442789	2404.194325
563.799216	2402.233316
564.155587	2408.106260
564.511904	2404.862278
564.868164	2405.812535
565.224370	2408.378482
565.580520	2407.113153
565.936615	2407.861764
566.292654	2409.578277
566.648638	2406.011661
567.004567	2402.336660
567.360441	2406.059552
567.716260	2405.762124
568.072023	2406.193142
568.427732	2403.536454
568.783385	2403.022257
569.138982	2403.775909
569.494525	2403.007133
569.850013	2401.552760
570.205445	2405.389078
570.560823	2407.332443
570.916145	2403.055024
571.271412	2405.104253
571.626625	2404.585014
571.981782	2405.174829
572.336884	2406.735066
572.691931	2404.398492
573.046923	2407.226579
573.401860	2405.994017
573.756743	2406.704819
574.111570	2406.762793
574.466342	2406.941754
574.821059	2407.150962
575.175722	2407.186250
575.530330	2404.693399
575.884882	2408.386044
576.239380	2407.092988
576.593823	2409.971487
576.948211	2408.691034
577.302544	2404.161557
577.656823	2404.204407
578.011047	2405.139541
578.365216	2406.621640
578.719330	2402.845816
579.073389	2403.715415
579.427394	2406.994686
579.781344	2403.377658
580.135239	2406.881260
580.489080	2403.954870
580.842866	2404.479150
581.196597	2408.456620
581.550273	2402.823131
581.903895	2405.416805
582.257463	2400.894890
582.610975	2407.002248
582.964434	2403.828841
583.317837	2404.096022
583.671186	2403.843965
584.024481	2406.558626
584.377721	2405.830179
584.730906	2404.945457
585.084037	2404.113666
585.437113	2405.260529
585.790135	2403.745662
586.143103	2401.721639
586.496016	2404.930333
586.848874	2396.930022
587.201679	2403.541495
587.554428	2402.490415
587.907124	2402.583676
588.259765	2400.778943
588.612352	2401.073851
588.964884	2406.926630
589.317362	2404.310271
589.669786	2403.980076
590.022155	2402.336660
590.374470	2401.555281
590.726731	2404.227092
591.078937	2405.053842
591.431090	2404.758934
591.783188	2403.720456
592.135232	2404.887483
592.487222	2402.767678
592.839157	2404.751372
593.191038	2402.568553
593.542866	2404.070817
593.894639	2401.230126
594.246358	2401.179715
594.598022	2404.726167
594.949633	2402.603841
595.301190	2403.112997
595.652692	2400.811711
596.004141	2401.101577
596.355535	2403.929664
596.706876	2399.773233
597.058162	2401.900600
597.409395	2402.248439
597.760573	2401.043604
598.111698	2402.923954
598.462768	2403.697771
598.813785	2405.830179
599.164748	2402.359345
599.515657	2400.342883
599.866511	2403.097874
600.217312	2401.464540
600.568060	2401.799777
600.918753	2403.904458
601.269392	2402.097205
601.619978	2400.670558
601.970510	2401.038563
602.320988	2404.383368
602.671412	2403.700292
603.021783	2402.490415
603.372100	2401.976217
603.722363	2402.472771
604.072572	2399.619478
604.422728	2403.405384
604.772830	2396.713252
605.122878	2395.337018
605.472872	2397.839950
605.822813	2394.553118
606.172701	2404.310271
606.522534	2400.912534
606.872314	2402.729870
607.222041	2401.305744
607.571714	2400.007647
607.921333	2401.406567
608.270899	2403.511248
608.620411	2402.593758
608.969870	2401.784653
609.319276	2402.044273
609.668627	2402.792884
610.017926	2402.923954
610.367171	2400.844478
610.716362	2401.454458
611.065500	2403.463358
611.414585	2402.147616
611.763616	2401.164591
612.112594	2400.035373
612.461518	2401.381361
612.810389	2401.421690
613.159207	2401.504869
613.507971	2399.984961
613.856682	2403.531413
614.205340	2401.870353
614.553945	2400.945301
614.902496	2400.294992
615.250994	2398.921278
615.599439	2400.902451
615.947830	2402.828172
616.296169	2401.832544
616.644454	2401.676268
616.992686	2399.811042
617.340864	2403.196176
617.688990	2400.809190
618.037063	2403.027298
618.385082	2400.892369
618.733048	2404.569891
619.080961	2401.073851
619.428821	2404.859757
619.776628	2400.668038
620.124382	2400.547050
620.472083	2403.738100
620.819731	2401.638460
621.167326	2399.790877
621.514868	2404.602658
621.862357	2400.978069
622.209793	2404.738769
622.557176	2403.823800
622.904506	2401.469581
623.251783	2396.032697
623.599007	2400.151319
623.946179	2397.721483
624.293297	2396.153684
624.640363	2400.841958
624.987376	2400.917575
625.334336	2402.679458
625.681243	2402.906310
626.028097	2400.985630
626.374899	2402.704664
626.721647	2402.979407
627.068343	2398.833058
627.414987	2402.830693
627.761577	2402.868501
628.108115	2403.659962
628.454600	2401.245250
628.801032	2400.254663
629.147412	2402.243398
629.493739	2401.792215
629.840014	2402.470250
630.186236	2401.320867
630.532405	2402.969324
630.878521	2401.504869
631.224585	2401.517472
631.570597	2400.065620
631.916556	2401.399005
632.262462	2403.475960
632.608316	2404.519479
632.954117	2401.663666
633.299866	2403.957391
633.645562	2401.865312
633.991206	2401.857750
634.336797	2402.213151
634.682336	2404.080899
635.027823	2403.264232
635.373257	2401.792215
635.718639	2404.587535
636.063968	2404.153996
636.409245	2404.587535
636.754470	2402.497977
637.099642	2402.359345
637.444762	2402.414798
637.789829	2403.218862
638.134845	2403.498646
638.479808	2401.134344
638.824719	2402.407236
639.169577	2400.985630
639.514383	2402.649211
639.859137	2403.785991
640.203839	2406.150293
640.548489	2402.873543
640.893086	2399.818603
641.237632	2397.106463
641.582125	2399.838768
641.926566	2399.422873
642.270955	2403.070147
642.615292	2402.331618
642.959576	2403.327246
643.303809	2405.988976
643.647990	2404.642988
643.992118	2404.799263
644.336195	2403.629716
