Dividing Wavelength (nm)	Counts (n)	Blue Motor Position (mm): 8.400000	Red Motor Position (mm): 0.000000	
326.493990	1978.027782
326.888308	1978.027782
327.282561	1978.027782
327.676750	1952.905191
328.070874	1954.354523
328.464933	1960.572786
328.858929	1969.084775
329.252859	1982.751343
329.646726	1996.886738
330.040528	2014.634120
330.434265	2030.904444
330.827938	2051.250541
331.221547	2068.483726
331.615091	2089.810327
332.008571	2109.329675
332.401986	2129.206944
332.795338	2149.787455
333.188625	2168.122131
333.581847	2189.216840
333.975006	2209.323482
334.368100	2225.918960
334.761129	2243.540313
335.154095	2257.509351
335.546996	2279.040119
335.939833	2311.976498
336.332606	2324.039979
336.725315	2334.099601
337.117960	2344.499502
337.510540	2348.298011
337.903056	2361.830988
338.295508	2366.073119
338.687896	2375.585777
339.080220	2381.733464
339.472480	2385.252189
339.864676	2390.762170
340.256807	2393.504558
340.648875	2394.225443
341.040879	2398.351628
341.432818	2395.402553
341.824694	2400.902451
342.216506	2394.900958
342.608253	2398.807852
342.999937	2397.628222
343.391557	2393.514640
343.783113	2393.204609
344.174605	2392.650083
344.566033	2390.210164
344.957397	2389.156563
345.348697	2385.655482
345.739934	2384.811088
346.131106	2385.398383
346.522215	2382.398896
346.913260	2380.763042
347.304241	2379.636344
347.695159	2375.996631
348.086012	2375.631147
348.476802	2373.806249
348.867528	2371.560415
349.258191	2369.780888
349.648789	2372.162833
350.039324	2369.107894
350.429796	2372.309027
350.820203	2366.955321
351.210548	2366.859539
351.600828	2365.185876
351.991045	2364.583458
352.381198	2364.434744
352.771288	2367.751824
353.161314	2363.960876
353.551276	2364.291072
353.941175	2363.885259
354.331010	2363.605475
354.720782	2364.354086
355.110490	2366.650332
355.500135	2366.584797
355.889717	2363.570187
356.279235	2368.167719
356.668689	2367.845085
357.058080	2367.913141
357.447408	2364.679240
357.836672	2363.960876
358.225873	2366.312574
358.615010	2365.448016
359.004084	2367.862729
359.393095	2370.355580
359.782043	2372.225848
360.170927	2369.765765
360.559748	2370.348018
360.948505	2371.520086
361.337199	2371.535210
361.725830	2373.639891
362.114398	2371.673841
362.502903	2375.386651
362.891344	2373.730632
363.279722	2373.488657
363.668037	2372.566126
364.056289	2373.622247
364.444478	2375.157279
364.832603	2377.196425
365.220665	2375.800026
365.608665	2375.167361
365.996601	2376.929244
366.384474	2377.002341
366.772284	2378.726416
367.160031	2377.294728
367.547715	2379.565768
367.935336	2376.344470
368.322893	2376.195756
368.710388	2378.328164
369.097820	2380.712630
369.485189	2377.856817
369.872495	2378.456714
370.259738	2380.760521
370.646918	2380.238762
371.034035	2381.506612
371.421090	2379.979142
371.808081	2380.821015
372.195010	2380.445449
372.581875	2381.151211
372.968678	2381.299925
373.355418	2380.924359
373.742096	2381.607435
374.128710	2379.681714
374.515262	2379.434698
374.901751	2381.685573
375.288177	2384.617004
375.674540	2381.030223
376.060841	2384.206150
376.447079	2380.924359
376.833254	2382.671118
377.219367	2377.269522
377.605417	2381.645244
377.991404	2379.089379
378.377329	2380.873947
378.763191	2380.556354
379.148991	2386.066336
379.534727	2384.662374
379.920402	2384.112888
380.306013	2386.706562
380.691563	2386.797303
381.077049	2387.845863
381.462474	2387.470297
381.847835	2386.759494
382.233134	2388.102962
382.618371	2386.260420
383.003545	2384.422919
383.388657	2387.351830
383.773706	2387.525750
384.158693	2386.978784
384.543618	2388.276882
384.928480	2386.817468
385.313280	2386.958620
385.698017	2384.208670
386.082692	2386.784700
386.467305	2388.082797
386.851856	2388.962478
387.236344	2387.813095
387.620770	2392.314846
388.005133	2390.341234
388.389435	2389.373332
388.773674	2392.163611
389.157851	2393.663354
389.541965	2389.680843
389.926018	2394.535474
390.310008	2392.347613
390.693936	2389.980792
391.077802	2392.808879
391.461606	2390.406769
391.845348	2392.239228
392.229027	2392.153529
392.612645	2393.887686
392.996200	2390.754609
393.379694	2391.399876
393.763125	2392.289640
394.146494	2393.484393
394.529801	2395.452964
394.913047	2393.796945
395.296230	2390.989022
395.679351	2392.864332
396.062410	2394.656462
396.445408	2393.809548
396.828343	2393.159239
397.211217	2387.702190
397.594028	2393.686040
397.976778	2392.677809
398.359466	2392.997922
398.742092	2391.553632
399.124656	2398.744838
399.507158	2394.560680
399.889598	2395.949518
400.271977	2394.200237
400.654294	2396.902296
401.036549	2396.088149
401.418742	2395.105124
401.800874	2398.003788
402.182944	2396.957748
402.564952	2397.177039
402.946898	2396.403222
403.328783	2398.026473
403.710606	2396.614950
404.092367	2397.600496
404.474067	2396.294837
404.855705	2397.620660
405.237282	2399.889179
405.618797	2395.629404
406.000250	2397.086298
406.381642	2398.155022
406.762972	2397.131668
407.144240	2396.357851
407.525447	2400.932698
407.906593	2398.485218
408.287677	2400.133675
408.668700	2399.838768
409.049661	2396.183931
409.430560	2400.579818
409.811399	2398.462533
410.192176	2400.599982
410.572891	2400.141237
410.953545	2401.519993
411.334138	2400.791546
411.714669	2398.470095
412.095139	2403.191135
412.475547	2401.497307
412.855894	2401.744324
413.236180	2400.544529
413.616405	2402.729870
413.996568	2401.454458
414.376670	2400.421021
414.756711	2401.278017
415.136691	2401.560322
415.516609	2401.421690
415.896466	2404.685837
416.276262	2405.116856
416.655997	2399.347255
417.035670	2398.339025
417.415283	2402.913872
417.794834	2400.131155
418.174324	2405.568039
418.553753	2403.536454
418.933121	2400.637791
419.312428	2400.872204
419.691674	2401.625857
420.070859	2403.417987
420.449983	2403.478481
420.829045	2401.797256
421.208047	2404.804304
421.586988	2403.849006
421.965867	2406.351939
422.344686	2404.577453
422.723444	2401.346073
423.102141	2402.971845
423.480777	2405.099212
423.859352	2406.578791
424.237866	2404.378327
424.616319	2404.330436
424.994712	2402.697102
425.373044	2408.244892
425.751314	2402.412277
426.129524	2403.090312
426.507673	2405.910838
426.885762	2404.446382
427.263789	2406.301527
427.641756	2404.920251
428.019662	2405.396640
428.397508	2407.738256
428.775292	2407.418143
429.153016	2406.853533
429.530679	2407.090468
429.908282	2405.943605
430.285824	2406.896383
430.663305	2405.018553
431.040726	2406.336815
431.418086	2405.963770
431.795385	2406.669531
432.172624	2405.729356
432.549802	2405.633574
432.926920	2407.198852
433.303977	2407.650036
433.680974	2409.348905
434.057910	2404.955539
434.434786	2407.009809
434.811601	2409.288411
435.188355	2406.583832
435.565050	2407.856723
435.941683	2407.173647
436.318257	2407.254305
436.694770	2401.656104
437.071222	2404.466547
437.447614	2407.070303
437.823946	2406.588873
438.200218	2406.730025
438.576429	2409.699265
438.952580	2408.325550
439.328670	2406.319171
439.704700	2408.335633
440.080670	2406.150293
440.456580	2406.397309
440.832429	2409.487536
441.208218	2407.458472
441.583947	2410.437794
441.959616	2409.888308
442.335224	2410.962074
442.710773	2408.794378
443.086261	2407.342525
443.461689	2409.918555
443.837057	2409.369069
444.212365	2409.598442
444.587612	2411.083062
444.962800	2411.950140
445.337927	2409.051477
445.712995	2408.504511
446.088002	2409.406878
446.462949	2408.819583
446.837837	2410.218504
447.212664	2412.824780
447.587431	2411.443504
447.962139	2409.023750
448.336786	2412.824780
448.711374	2411.776220
449.085901	2409.820252
449.460369	2411.443504
449.834776	2412.073648
450.209124	2407.929820
450.583412	2411.682959
450.957640	2411.400654
451.331808	2413.028947
451.705917	2410.180695
452.079965	2412.277815
452.453954	2412.189595
452.827883	2412.610531
453.201752	2411.521642
453.575562	2410.808319
453.949311	2411.967784
454.323001	2415.930131
454.696632	2413.906108
455.070202	2413.643968
455.443713	2415.453742
455.817164	2409.719429
456.190556	2410.069790
456.563888	2410.175654
456.937160	2406.868657
457.310373	2416.436767
457.683526	2412.323185
458.056619	2414.818557
458.429653	2413.845614
458.802628	2415.385686
459.175542	2410.732701
459.548398	2414.301838
459.921194	2415.978022
460.293930	2418.871644
460.666607	2415.748649
461.039224	2418.271747
461.411782	2417.409710
461.784280	2419.017838
462.156719	2414.110274
462.529099	2416.918197
462.901419	2416.691345
463.273680	2418.541449
463.645882	2416.318300
464.018024	2415.168917
464.390106	2416.033475
464.762130	2419.854669
465.134094	2417.442477
465.505999	2420.172262
465.877845	2421.185534
466.249631	2424.225350
466.621358	2424.467325
466.993026	2422.448343
467.364634	2423.829619
467.736184	2422.433219
468.107674	2423.466656
468.479105	2423.128899
468.850477	2422.581933
469.221790	2422.279464
469.593043	2420.510019
469.964238	2421.732499
470.335373	2422.907088
470.706449	2421.505647
471.077467	2421.924063
471.448425	2425.435227
471.819324	2425.520926
472.190164	2425.369692
472.560945	2422.957499
472.931667	2425.674681
473.302330	2423.272572
473.672934	2423.469177
474.043479	2422.168559
474.413965	2422.786100
474.784393	2417.122364
475.154761	2420.527663
475.525070	2418.027251
475.895321	2420.789803
476.265513	2418.942220
476.635645	2427.431523
477.005719	2422.221491
477.375734	2425.029414
477.745691	2425.548652
478.115588	2426.556883
478.485427	2424.323652
478.855207	2427.837336
479.224928	2426.680392
479.594591	2428.250711
479.964194	2428.028900
480.333739	2428.185176
480.703226	2428.643921
481.072653	2429.637028
481.442022	2430.889755
481.811333	2431.955959
482.180584	2429.299271
482.549777	2431.058634
482.918912	2426.100659
483.287988	2426.934970
483.657005	2426.932449
484.025964	2428.689291
484.394864	2428.129723
484.763706	2429.707604
485.132489	2428.026380
485.501213	2427.519744
485.869879	2425.397418
486.238487	2430.753644
486.607036	2429.911771
486.975527	2427.965886
487.343959	2425.583941
487.712333	2429.352203
488.080648	2426.786256
488.448905	2426.491348
488.817104	2425.021852
489.185244	2429.604261
489.553326	2429.148036
489.921350	2430.083170
490.289315	2430.995619
490.657222	2430.806576
491.025070	2432.505445
491.392861	2432.865887
491.760593	2431.754313
492.128267	2429.042172
492.495883	2427.547470
492.863440	2431.371185
493.230939	2429.510999
493.598380	2428.701894
493.965763	2424.724424
494.333088	2425.520926
494.700354	2427.227357
495.067563	2430.307502
495.434713	2423.814496
495.801805	2430.733479
496.168839	2429.533685
496.535815	2429.019487
496.902733	2428.772470
497.269593	2431.015784
497.636395	2427.930598
498.003139	2429.483273
498.369825	2431.252718
498.736453	2427.149219
499.103023	2430.756164
499.469535	2429.216092
499.835989	2428.333890
500.202385	2426.352717
500.568723	2430.325146
500.935003	2427.340783
501.301226	2429.473191
501.667390	2428.590989
502.033497	2432.071906
502.399546	2430.332707
502.765537	2428.684250
503.131470	2430.594848
503.497345	2428.023859
503.863163	2431.572831
504.228923	2427.998653
504.594625	2430.700712
504.960269	2431.167018
505.325856	2432.729776
505.691385	2432.588624
506.056856	2430.985537
506.422270	2431.993768
506.787625	2432.210537
507.152924	2434.340425
507.518164	2434.544592
507.883347	2431.282965
508.248472	2435.414191
508.613540	2433.425455
508.978550	2439.056424
509.343503	2438.138934
509.708398	2439.908379
510.073236	2439.815118
510.438016	2436.750096
510.802738	2438.267484
511.167403	2441.274532
511.532010	2441.324943
511.896561	2442.045828
512.261053	2446.260233
512.625488	2442.232351
512.989866	2441.488781
513.354186	2445.128494
513.718449	2442.078596
514.082655	2447.490275
514.446803	2449.592436
514.810894	2450.509926
515.174927	2451.470266
515.538904	2452.481017
515.902822	2452.970009
516.266684	2455.258693
516.630488	2457.713735
516.994235	2456.438323
517.357925	2459.152984
517.721558	2461.696246
518.085133	2462.364199
518.448651	2463.443006
518.812112	2465.101546
519.175516	2469.280662
519.538863	2470.601444
519.902152	2470.379634
520.265385	2472.902731
520.628560	2475.594707
520.991678	2474.941878
521.354739	2476.832311
521.717743	2480.330871
522.080690	2482.528814
522.443580	2482.629637
522.806413	2485.029227
523.169189	2483.693321
523.531908	2489.835967
523.894569	2487.214567
524.257174	2493.745382
524.619722	2491.716317
524.982213	2496.248315
525.344647	2498.453819
525.707025	2499.767040
526.069345	2500.268635
526.431608	2502.711074
526.793815	2504.548574
527.155964	2504.848523
527.518057	2508.841117
527.880093	2509.864471
528.242072	2511.525531
528.603995	2516.682632
528.965860	2513.862106
529.327669	2517.096006
529.689421	2519.233456
530.051117	2518.857890
530.412755	2523.944414
530.774337	2520.339989
531.135862	2524.362830
531.497331	2521.300329
531.858743	2522.847963
532.220098	2528.955321
532.581396	2527.488345
532.942638	2530.941535
533.303824	2533.446989
533.664953	2534.777853
534.026025	2537.416898
534.387040	2540.844882
534.747999	2541.616179
535.108902	2543.471323
535.469748	2540.454193
535.830537	2544.776982
536.191270	2547.680687
536.551947	2548.512477
536.912567	2549.654298
537.273131	2551.675801
537.633638	2550.168496
537.994089	2550.768393
538.354483	2552.888199
538.714821	2558.257027
539.075103	2559.171997
539.435328	2558.927501
539.795497	2560.858263
540.155609	2559.913047
540.515665	2563.010836
540.875665	2565.722976
541.235609	2566.708522
541.595496	2566.491752
541.955328	2571.101887
542.315102	2570.068451
542.674821	2570.028122
543.034483	2570.554922
543.394090	2572.856209
543.753640	2573.342680
544.113134	2579.744946
544.472571	2577.267219
544.831953	2578.925758
545.191278	2582.212591
545.550548	2576.047259
545.909761	2582.401634
546.268918	2582.358784
546.628019	2584.748291
546.987064	2582.956161
547.346053	2582.320975
547.704986	2587.397417
548.063863	2583.651840
548.422684	2584.886923
548.781449	2588.561924
549.140158	2587.165524
549.498811	2588.816502
549.857408	2586.197623
550.215949	2589.960844
550.574434	2585.247365
550.932864	2587.989753
551.291237	2587.306677
551.649555	2591.337079
552.007817	2591.999991
552.366022	2592.741040
552.724173	2592.557038
553.082267	2595.415372
553.440305	2596.794128
553.798288	2594.109714
554.156215	2592.952769
554.514086	2596.915116
554.871902	2595.538881
555.229661	2595.732965
555.587365	2595.052409
555.945014	2593.724065
556.302606	2594.853284
556.660143	2596.259766
557.017625	2593.345979
557.375050	2593.136771
557.732421	2593.088880
558.089735	2592.899837
558.446994	2594.273551
558.804197	2597.890579
559.161345	2595.833788
559.518437	2591.863880
559.875474	2591.700042
560.232455	2592.816658
560.589381	2595.443099
560.946251	2594.376895
561.303065	2595.125506
561.659825	2592.045361
562.016528	2588.705597
562.373177	2593.744230
562.729770	2591.034610
563.086307	2590.848087
563.442789	2592.597367
563.799216	2588.627459
564.155587	2589.310535
564.511904	2588.040164
564.868164	2586.545462
565.224370	2587.662078
565.580520	2586.726944
565.936615	2585.338106
566.292654	2585.932962
566.648638	2584.314752
567.004567	2584.206367
567.360441	2586.011100
567.716260	2581.222004
568.072023	2583.220821
568.427732	2579.306365
568.783385	2578.887950
569.138982	2575.812846
569.494525	2579.240830
569.850013	2573.831672
570.205445	2580.027250
570.560823	2576.994996
570.916145	2578.867785
571.271412	2576.490881
571.626625	2577.373083
571.981782	2576.876529
572.336884	2573.231775
572.691931	2574.144224
573.046923	2570.610375
573.401860	2570.779254
573.756743	2572.417629
574.111570	2571.815211
574.466342	2571.212793
574.821059	2572.074830
575.175722	2569.619788
575.530330	2568.440158
575.884882	2568.122566
576.239380	2568.603996
576.593823	2570.252453
576.948211	2567.815055
577.302544	2566.607699
577.656823	2568.765313
578.011047	2568.089798
578.365216	2568.394788
578.719330	2566.799263
579.073389	2568.672051
579.427394	2569.460992
579.781344	2568.316650
580.135239	2569.115673
580.489080	2566.514437
580.842866	2567.066444
581.196597	2570.875036
581.550273	2570.885118
581.903895	2571.719429
582.257463	2575.313772
582.610975	2572.611713
582.964434	2573.859399
583.317837	2576.427867
583.671186	2580.753177
584.024481	2579.097157
584.377721	2579.162692
584.730906	2580.758218
585.084037	2582.441963
585.437113	2581.595049
585.790135	2585.121336
586.143103	2585.791810
586.496016	2591.122830
586.848874	2585.726275
587.201679	2589.945721
587.554428	2588.955134
587.907124	2592.594847
588.259765	2595.077615
588.612352	2602.722525
588.964884	2601.457195
589.317362	2605.308637
589.669786	2608.413988
590.022155	2609.918772
590.374470	2612.257867
590.726731	2613.039246
591.078937	2613.999586
591.431090	2619.121398
591.783188	2617.039402
592.135232	2619.441512
592.487222	2625.110289
592.839157	2630.340486
593.191038	2630.537091
593.542866	2632.724952
593.894639	2633.521454
594.246358	2637.919861
594.598022	2640.203504
594.949633	2643.480254
595.301190	2646.318423
595.652692	2647.127529
596.004141	2651.536018
596.355535	2653.043323
596.706876	2652.619866
597.058162	2654.245638
597.409395	2663.312153
597.760573	2664.801814
598.111698	2667.423214
598.462768	2670.679799
598.813785	2674.717764
599.164748	2676.088957
599.515657	2682.652540
599.866511	2682.607169
600.217312	2692.616380
600.568060	2692.049251
600.918753	2705.965356
601.269392	2708.538865
601.619978	2712.307127
601.970510	2717.013044
602.320988	2721.368601
602.671412	2729.535271
603.021783	2737.638925
603.372100	2738.251426
603.722363	2741.318968
604.072572	2749.561254
604.422728	2755.058632
604.772830	2756.686925
605.122878	2763.953748
605.472872	2773.670572
605.822813	2774.192332
606.172701	2789.212450
606.522534	2797.553039
606.872314	2806.491005
607.222041	2811.360759
607.571714	2822.839467
607.921333	2825.014724
608.270899	2834.887824
608.620411	2849.373580
608.969870	2857.802389
609.319276	2862.737679
609.668627	2873.187991
610.017926	2887.335989
610.367171	2898.005591
610.716362	2913.330699
611.065500	2921.530135
611.414585	2936.595624
611.763616	2951.545165
612.112594	2961.370374
612.461518	2972.443269
612.810389	2988.022955
613.159207	2998.750530
613.507971	3011.633199
613.856682	3034.701519
614.205340	3047.148128
614.553945	3072.164853
614.902496	3077.137952
615.250994	3097.597475
615.599439	3116.136318
615.947830	3136.832775
616.296169	3154.045795
616.644454	3174.918692
616.992686	3196.588092
617.340864	3229.332907
617.688990	3245.341091
618.037063	3278.423663
618.385082	3296.914615
618.733048	3325.044254
619.080961	3342.022860
619.428821	3361.635469
619.776628	3383.869478
620.124382	3396.850449
620.472083	3414.650763
620.819731	3429.819595
621.167326	3434.699432
621.514868	3445.671504
621.862357	3447.425825
622.209793	3459.156590
622.557176	3462.793783
622.904506	3462.483752
623.251783	3462.105665
623.599007	3473.705360
623.946179	3479.089313
624.293297	3494.162363
624.640363	3496.975326
624.987376	3511.261956
625.334336	3517.074407
625.681243	3527.993546
626.028097	3545.201525
626.374899	3560.645099
626.721647	3581.749890
627.068343	3599.517437
627.414987	3607.933643
627.761577	3621.433853
628.108115	3651.259840
628.454600	3658.965243
628.801032	3682.441897
629.147412	3705.583314
629.493739	3729.901840
629.840014	3741.602358
630.186236	3778.427987
630.532405	3794.960451
630.878521	3823.861386
631.224585	3845.263604
631.570597	3864.422510
631.916556	3895.844022
632.262462	3923.449380
632.608316	3946.230354
632.954117	3963.486224
633.299866	3986.695696
633.645562	4000.168180
633.991206	3999.101976
634.336797	3997.612315
634.682336	4015.977238
635.027823	4019.430429
635.373257	4026.016696
635.718639	4027.912170
636.063968	4042.581928
636.409245	4034.495917
636.754470	4049.463103
637.099642	4057.884350
637.444762	4057.914597
637.789829	4080.995520
638.134845	4088.721088
638.479808	4103.078294
638.824719	4120.881129
639.169577	4120.629072
639.514383	4145.199655
639.859137	4148.841889
640.203839	4182.645346
640.548489	4188.936706
640.893086	4210.901013
641.237632	4219.624730
641.582125	4246.521807
641.926566	4266.915794
642.270955	4290.727685
642.615292	4317.372703
642.959576	4337.370961
643.303809	4364.583109
643.647990	4393.201739
643.992118	4419.428342
644.336195	4442.400880
