Dividing Wavelength (nm)	Counts (n)	Blue Motor Position (mm): 21.400000	Red Motor Position (mm): 0.000000	
326.493990	1974.889663
326.888308	1974.889663
327.282561	1974.889663
327.676750	1948.678184
328.070874	1951.294543
328.464933	1956.807044
328.858929	1968.462192
329.252859	1979.572895
329.646726	1993.579741
330.040528	2008.559530
330.434265	2027.794052
330.827938	2049.528987
331.221547	2070.482543
331.615091	2086.541139
332.008571	2108.969232
332.401986	2128.914557
332.795338	2149.618576
333.188625	2169.836124
333.581847	2190.275482
333.975006	2205.845086
334.368100	2226.024824
334.761129	2243.018554
335.154095	2254.557755
335.546996	2290.564197
335.939833	2357.568693
336.332606	2370.307689
336.725315	2382.189688
337.117960	2392.627397
337.510540	2397.091339
337.903056	2410.470561
338.295508	2411.564492
338.687896	2421.906419
339.080220	2429.233736
339.472480	2435.086516
339.864676	2440.183122
340.256807	2441.105653
340.648875	2443.961467
341.040879	2445.781323
341.432818	2446.580346
341.824694	2444.566405
342.216506	2444.455500
342.608253	2446.877774
342.999937	2443.306117
343.391557	2445.163782
343.783113	2445.040274
344.174605	2436.901331
344.566033	2439.948708
344.957397	2438.128852
345.348697	2435.454520
345.739934	2434.209355
346.131106	2433.722883
346.522215	2430.778850
346.913260	2430.085691
347.304241	2426.561924
347.695159	2425.697367
348.086012	2424.936152
348.476802	2422.176121
348.867528	2423.191913
349.258191	2419.196799
349.648789	2419.781573
350.039324	2418.982550
350.429796	2419.829463
350.820203	2414.556417
351.210548	2417.329051
351.600828	2414.994997
351.991045	2414.634554
352.381198	2414.674884
352.771288	2413.858217
353.161314	2414.629513
353.551276	2414.107754
353.941175	2412.660943
354.331010	2409.754718
354.720782	2417.480286
355.110490	2418.596901
355.500135	2414.420305
355.889717	2412.441653
356.279235	2415.302507
356.668689	2414.720254
357.058080	2415.811664
357.447408	2414.364853
357.836672	2413.429719
358.225873	2410.503329
358.615010	2412.338309
359.004084	2419.237128
359.393095	2415.305028
359.782043	2418.186047
360.170927	2417.999525
360.559748	2420.527663
360.948505	2420.043713
361.337199	2419.111099
361.725830	2421.482962
362.114398	2421.742581
362.502903	2419.620256
362.891344	2421.936666
363.279722	2419.416089
363.668037	2424.893302
364.056289	2423.708631
364.444478	2423.355751
364.832603	2423.441450
365.220665	2421.737540
365.608665	2426.072932
365.996601	2423.721234
366.384474	2425.813313
366.772284	2429.337080
367.160031	2429.261462
367.547715	2427.975968
367.935336	2427.393715
368.322893	2427.567635
368.710388	2427.645773
369.097820	2430.163829
369.485189	2432.888572
369.872495	2430.141144
370.259738	2431.219951
370.646918	2432.507965
371.034035	2432.029056
371.421090	2433.208686
371.808081	2429.263983
372.195010	2431.887903
372.581875	2430.856988
372.968678	2431.794642
373.355418	2432.301278
373.742096	2430.375557
374.128710	2430.698191
374.515262	2430.680547
374.901751	2435.545261
375.288177	2434.113573
375.674540	2435.058789
376.060841	2435.608275
376.447079	2433.387647
376.833254	2433.435538
377.219367	2430.650300
377.605417	2433.140630
377.991404	2432.097111
378.377329	2435.704057
378.763191	2431.688778
379.148991	2435.883018
379.534727	2441.312341
379.920402	2438.685899
380.306013	2435.948553
380.691563	2440.014243
381.077049	2435.953594
381.462474	2436.006526
381.847835	2439.671445
382.233134	2438.327977
382.618371	2440.460386
383.003545	2438.262442
383.388657	2441.690427
383.773706	2439.134562
384.158693	2438.640529
384.543618	2444.170675
384.928480	2442.902825
385.313280	2439.489963
385.698017	2440.092381
386.082692	2440.014243
386.467305	2442.799481
386.851856	2445.430963
387.236344	2442.978442
387.620770	2443.835438
388.005133	2444.337033
388.389435	2445.988011
388.773674	2442.318051
389.157851	2445.940120
389.541965	2444.208483
389.926018	2446.545058
390.310008	2443.240582
390.693936	2449.451283
391.077802	2447.855758
391.461606	2445.728391
391.845348	2444.011878
392.229027	2447.344081
392.612645	2448.276695
392.996200	2449.975563
393.379694	2447.099585
393.763125	2449.801644
394.146494	2445.766200
394.529801	2450.444391
394.913047	2450.456994
395.296230	2450.071345
395.679351	2451.114864
396.062410	2448.722837
396.445408	2450.772066
396.828343	2451.316510
397.211217	2447.409616
397.594028	2447.918773
397.976778	2446.391303
398.359466	2446.943309
398.742092	2447.578495
399.124656	2450.807354
399.507158	2454.467232
399.889598	2453.673250
400.271977	2452.904474
400.654294	2454.530246
401.036549	2453.693414
401.418742	2453.947993
401.800874	2455.437654
402.182944	2453.068311
402.564952	2453.257355
402.946898	2454.812551
403.328783	2455.863631
403.710606	2456.029989
404.092367	2454.729372
404.474067	2457.895216
404.855705	2457.885134
405.237282	2455.540997
405.618797	2455.215843
406.000250	2454.598302
406.381642	2455.798096
406.762972	2455.437654
407.144240	2455.966975
407.525447	2458.827830
407.906593	2460.141050
408.287677	2457.804475
408.668700	2459.422686
409.049661	2458.648869
409.430560	2457.612912
409.811399	2461.403859
410.192176	2460.723303
410.572891	2460.975361
410.953545	2462.134827
411.334138	2459.750361
411.714669	2460.942594
412.095139	2461.676082
412.475547	2460.877059
412.855894	2460.193982
413.236180	2459.992336
413.616405	2463.253963
413.996568	2462.132306
414.376670	2463.037193
414.756711	2461.691205
415.136691	2465.129272
415.516609	2464.239508
415.896466	2464.186576
416.276262	2467.402832
416.655997	2461.522326
417.035670	2461.308077
417.415283	2466.056844
417.794834	2461.615588
418.174324	2466.818058
418.553753	2466.573563
418.933121	2464.998202
419.312428	2467.196145
419.691674	2465.724128
420.070859	2467.092801
420.449983	2470.427525
420.829045	2468.892493
421.208047	2469.406691
421.586988	2468.305199
421.965867	2469.210086
422.344686	2466.084571
422.723444	2470.382154
423.102141	2468.693368
423.480777	2471.796198
423.859352	2469.850312
424.237866	2471.944912
424.616319	2471.339973
424.994712	2474.551188
425.373044	2473.689151
425.751314	2470.997175
426.129524	2471.503811
426.507673	2472.938019
426.885762	2473.696713
427.263789	2472.842237
427.641756	2474.289048
428.019662	2472.728811
428.397508	2476.887763
428.775292	2475.932465
429.153016	2476.953298
429.530679	2477.520428
429.908282	2478.604276
430.285824	2475.781230
430.663305	2476.335757
431.040726	2475.992958
431.418086	2477.522949
431.795385	2476.819708
432.172624	2477.744759
432.549802	2476.723926
432.926920	2477.472537
433.303977	2479.877167
433.680974	2478.306848
434.057910	2480.429174
434.434786	2484.782210
434.811601	2481.840697
435.188355	2480.855151
435.565050	2485.256079
435.941683	2479.526807
436.318257	2482.279277
436.694770	2478.662249
437.071222	2482.985039
437.447614	2479.476396
437.823946	2482.564103
438.200218	2483.232055
438.576429	2486.234063
438.952580	2484.275574
439.328670	2485.092241
439.704700	2487.922849
440.080670	2482.611993
440.456580	2486.279433
440.832429	2488.184989
441.208218	2485.498054
441.583947	2487.849752
441.959616	2485.344299
442.335224	2487.035606
442.710773	2489.639362
443.086261	2490.052737
443.461689	2489.752788
443.837057	2489.049547
444.212365	2489.619197
444.587612	2492.822851
444.962800	2490.395535
445.337927	2494.095742
445.712995	2491.146667
446.088002	2497.463233
446.462949	2496.177738
446.837837	2495.373674
447.212664	2493.568941
447.587431	2499.494818
447.962139	2505.120745
448.336786	2509.067969
448.711374	2505.702999
449.085901	2502.590086
449.460369	2502.945488
449.834776	2503.721825
450.209124	2509.267094
450.583412	2509.698113
450.957640	2509.461179
451.331808	2509.909842
451.705917	2505.972700
452.079965	2510.237517
452.453954	2508.488236
452.827883	2509.990500
453.201752	2509.854389
453.575562	2515.016530
453.949311	2513.869668
454.323001	2517.219515
454.696632	2514.209946
455.070202	2521.335617
455.443713	2521.688497
455.817164	2520.949968
456.190556	2522.807634
456.563888	2522.646317
456.937160	2523.523478
457.310373	2528.531864
457.683526	2528.136133
458.056619	2529.151926
458.429653	2531.508665
458.802628	2535.203831
459.175542	2537.361445
459.548398	2541.933771
459.921194	2544.688762
460.293930	2550.455842
460.666607	2555.365926
461.039224	2561.158212
461.411782	2563.588048
461.784280	2565.145764
462.156719	2561.493448
462.529099	2564.586196
462.901419	2563.673747
463.273680	2562.302553
463.645882	2565.012174
464.018024	2566.027966
464.390106	2571.845458
464.762130	2581.736202
465.134094	2600.159098
465.505999	2619.804475
465.877845	2636.856178
466.249631	2645.141314
466.621358	2642.383803
466.993026	2637.148565
467.364634	2639.948926
467.736184	2631.411732
468.107674	2630.395939
468.479105	2633.471043
468.850477	2632.835857
469.221790	2628.618932
469.593043	2623.608025
469.964238	2627.555249
470.335373	2632.654376
470.706449	2640.652167
471.077467	2660.156391
471.448425	2689.810978
471.819324	2705.806559
472.190164	2705.657845
472.560945	2694.108562
472.931667	2683.111285
473.302330	2683.353260
473.672934	2685.425174
474.043479	2696.729962
474.413965	2701.009902
474.784393	2705.360417
475.154761	2722.550752
475.525070	2726.634087
475.895321	2737.792681
476.265513	2751.645771
476.635645	2773.234513
477.005719	2787.064918
477.375734	2802.959676
477.745691	2827.893223
478.115588	2859.178624
478.485427	2895.948800
478.855207	2961.662761
479.224928	3019.257944
479.594591	3065.434913
479.964194	3075.761717
480.333739	3098.504882
480.703226	3130.649800
481.072653	3178.891122
481.442022	3231.780387
481.811333	3273.405194
482.180584	3288.816002
482.549777	3321.275991
482.918912	3354.421578
483.287988	3395.912795
483.657005	3427.309101
484.025964	3455.501754
484.394864	3504.582428
484.763706	3547.364180
485.132489	3578.619333
485.501213	3631.329638
485.869879	3695.314483
486.238487	3748.344901
486.607036	3817.882577
486.975527	3871.205382
487.343959	3946.222792
487.712333	4028.544835
488.080648	4100.653499
488.448905	4203.984550
488.817104	4280.007671
489.185244	4417.752159
489.553326	4614.271459
489.921350	4881.818097
490.289315	5178.033776
490.657222	5344.374209
491.025070	5486.927957
491.392861	5550.761568
491.760593	5581.018573
492.128267	5587.004943
492.495883	5606.123519
492.863440	5639.493437
493.230939	5672.248334
493.598380	5726.032405
493.965763	5837.063818
494.333088	5909.951341
494.700354	6009.216702
495.067563	6130.481657
495.434713	6259.971256
495.801805	6424.973262
496.168839	6528.006885
496.535815	6658.434138
496.902733	6807.695142
497.269593	6928.909686
497.636395	7078.851245
498.003139	7292.878473
498.369825	7401.684217
498.736453	7606.468489
499.103023	7721.026190
499.469535	7884.047023
499.835989	8078.799399
500.202385	8209.801343
500.568723	8391.000577
500.935003	8616.544321
501.301226	8775.769165
501.667390	9079.667563
502.033497	9315.586001
502.399546	9413.898583
502.765537	9491.865069
503.131470	9762.060833
503.497345	10040.796311
503.863163	9990.445266
504.228923	10320.325771
504.594625	10618.625968
504.960269	10685.575011
505.325856	11048.505321
505.691385	11136.191151
506.056856	11386.113914
506.422270	11720.516334
506.787625	11849.711025
507.152924	12121.673713
507.518164	12400.310889
507.883347	12422.970876
508.248472	12737.463258
508.613540	13126.574800
508.978550	13452.152680
509.343503	13625.762457
509.708398	13940.206949
510.073236	14346.927241
510.438016	14609.480616
510.802738	14690.403738
511.167403	15148.264015
511.532010	15497.832747
511.896561	15864.359919
512.261053	16428.971671
512.625488	16540.300512
512.989866	16761.085407
513.354186	16982.210579
513.718449	17235.089979
514.082655	17797.158468
514.446803	17946.623639
514.810894	18446.958158
515.174927	18705.221511
515.538904	18935.632488
515.902822	19497.796760
516.266684	19545.423061
516.630488	20001.428193
516.994235	20222.971782
517.357925	20753.762432
517.721558	21122.948813
518.085133	21560.349568
518.448651	21899.122668
518.812112	22072.765212
519.175516	22394.781517
519.538863	22847.870342
519.902152	23107.482204
520.265385	23630.829590
520.628560	23935.799233
520.991678	24112.423620
521.354739	24503.710420
521.717743	24954.394615
522.080690	25178.451218
522.443580	25756.253148
522.806413	26057.497379
523.169189	26295.565869
523.531908	26673.148292
523.894569	26865.276748
524.257174	27224.103558
524.619722	27679.922168
524.982213	27944.875132
525.344647	28163.933431
525.707025	28446.212841
526.069345	28975.024838
526.431608	29170.712348
526.793815	29631.093202
527.155964	29586.446223
527.518057	29949.089187
527.880093	30051.608612
528.242072	30641.779014
528.603995	30680.590857
528.965860	30920.116241
529.327669	31221.645297
529.689421	31390.085370
530.051117	31596.949118
530.412755	31929.763574
530.774337	32186.776721
531.135862	32285.822791
531.497331	32651.649243
531.858743	32797.782211
532.220098	33273.815848
532.581396	33266.922070
532.942638	33229.501585
533.303824	33659.388500
533.664953	33847.693240
534.026025	33832.398380
534.387040	34384.031680
534.747999	34540.078077
535.108902	34866.591091
535.469748	34678.750137
535.830537	34956.815142
536.191270	35312.700439
536.551947	35216.613526
536.912567	35638.807640
537.273131	35917.296102
537.633638	35684.278848
537.994089	36118.236494
538.354483	35986.576679
538.714821	36607.878726
539.075103	37050.418937
539.435328	37040.384521
539.795497	37087.539474
540.155609	37247.147446
540.515665	37792.280178
540.875665	37474.087589
541.235609	37907.500791
541.595496	38040.103302
541.955328	38768.721432
542.315102	38382.979901
542.674821	38337.236471
543.034483	38523.222280
543.394090	38618.663926
543.753640	38738.066175
544.113134	39727.904294
544.472571	39016.531952
544.831953	40232.581768
545.191278	39679.108446
545.550548	39556.479858
545.909761	40089.947361
546.268918	40381.930992
546.628019	40789.629268
546.987064	40524.003310
547.346053	39995.118216
547.704986	40891.314382
548.063863	40615.545623
548.422684	40910.634604
548.781449	40878.461960
549.140158	41345.686181
549.498811	41316.747437
549.857408	40919.907807
550.215949	41765.014399
550.574434	41794.248050
550.932864	41691.194263
551.291237	42457.873104
551.649555	42185.698687
552.007817	42497.942716
552.366022	42271.491564
552.724173	42510.180117
553.082267	42968.065600
553.440305	43331.106815
553.798288	42799.053355
554.156215	43174.402547
554.514086	43434.100108
554.871902	43280.188640
555.229661	43377.636665
555.587365	43284.188796
555.945014	43459.746978
556.302606	43470.562774
556.660143	43755.231691
557.017625	43903.872632
557.375050	43784.062049
557.732421	44190.414338
558.089735	44243.016257
558.446994	44230.047889
558.804197	44734.916926
559.161345	44728.340741
559.518437	44100.790184
559.875474	44462.087159
560.232455	44688.044278
560.589381	44902.981434
560.946251	44665.661555
561.303065	45362.036465
561.659825	45253.273570
562.016528	44998.990209
562.373177	44782.296211
562.729770	45289.199353
563.086307	44872.968924
563.442789	45378.886521
563.799216	45457.341999
564.155587	45303.642259
564.511904	45385.601338
564.868164	45521.341967
565.224370	45796.523432
565.580520	45580.247850
565.936615	45827.536611
566.292654	45603.331293
566.648638	45851.247678
567.004567	45880.027625
567.360441	45930.691221
567.716260	45844.442120
568.072023	46153.711867
568.427732	46177.601896
568.783385	45779.890145
569.138982	46176.460074
569.494525	46171.673499
569.850013	45966.090204
570.205445	45982.852040
570.560823	45955.115612
570.916145	45888.138842
571.271412	45934.252797
571.626625	45713.682151
571.981782	45805.685729
572.336884	45511.894845
572.691931	45845.858684
573.046923	45487.266288
573.401860	45355.293921
573.756743	45363.332041
574.111570	45499.750705
574.466342	45372.751437
574.821059	45512.996337
575.175722	45057.775104
575.530330	45097.738851
575.884882	44838.991547
576.239380	44823.711810
576.593823	44825.758518
576.948211	44733.951545
577.302544	44294.587261
577.656823	44360.792735
578.011047	44586.931334
578.365216	44317.958050
578.719330	44124.660047
579.073389	44011.045043
579.427394	44097.037045
579.781344	44092.744502
580.135239	43752.885033
580.489080	43846.547151
580.842866	43353.524826
581.196597	43812.685721
581.550273	43764.779636
581.903895	43645.742870
582.257463	44071.591821
582.610975	43486.497861
582.964434	43759.098256
583.317837	43435.642701
583.671186	43275.616314
584.024481	43514.753529
584.377721	43051.146336
584.730906	43343.465203
585.084037	43387.729055
585.437113	43097.217441
585.790135	43139.215293
586.143103	42774.800364
586.496016	42908.562340
586.848874	42927.602778
587.201679	42948.843680
587.554428	42453.845222
587.907124	42633.801812
588.259765	42402.420412
588.612352	42655.884586
588.964884	42063.501118
589.317362	42352.578524
589.669786	42308.612101
590.022155	42081.593819
590.374470	42499.245854
590.726731	42038.156717
591.078937	41576.737385
591.431090	41680.139012
591.783188	41332.314520
592.135232	41030.634230
592.487222	41277.638166
592.839157	41370.090407
593.191038	41047.615357
593.542866	40815.417290
593.894639	40227.631355
594.246358	40513.605930
594.598022	40476.986988
594.949633	40125.928596
595.301190	40084.296227
595.652692	39917.960836
596.004141	40251.493656
596.355535	39280.141448
596.706876	39246.940409
597.058162	39073.111342
597.409395	39536.612671
597.760573	39612.817273
598.111698	39198.268068
598.462768	39202.505158
598.813785	39261.821895
599.164748	38726.542097
599.515657	39110.123493
599.866511	38610.963563
600.217312	39220.837314
600.568060	38189.691980
600.918753	38939.049417
601.269392	38909.301568
601.619978	38561.144360
601.970510	38779.887587
602.320988	38951.012075
602.671412	39249.841593
603.021783	38990.330555
603.372100	38677.106022
603.722363	38785.886560
604.072572	38855.509936
604.422728	38863.653920
604.772830	38673.209210
605.122878	38788.308835
605.472872	38722.645285
605.822813	38999.001339
606.172701	38829.114455
606.522534	39057.070390
606.872314	39316.684772
607.222041	39100.477246
607.571714	39479.514042
607.921333	38935.094632
608.270899	39218.989731
608.620411	39562.292308
608.969870	39361.916525
609.319276	39377.743228
609.668627	39420.630844
610.017926	39902.688660
610.367171	40065.684287
610.716362	40158.149131
611.065500	40106.028642
611.414585	40304.824023
611.763616	40576.937946
612.112594	40511.619715
612.461518	40734.234549
612.810389	41032.257482
613.159207	40904.716289
613.507971	40980.726807
613.856682	41447.830040
614.205340	41322.176760
614.553945	42008.192099
614.902496	41482.714825
615.250994	41944.129116
615.599439	42011.191585
615.947830	42231.605955
616.296169	42280.139664
616.644454	42423.994030
616.992686	42585.673916
617.340864	43107.945016
617.688990	42834.107019
618.037063	43423.112913
618.385082	43401.362855
618.733048	43681.729147
619.080961	43710.884660
619.428821	43712.586050
619.776628	43792.972289
620.124382	43632.366168
620.472083	43768.661324
620.819731	43892.396446
621.167326	43570.279318
621.514868	43552.161411
621.862357	43125.949497
622.209793	43155.576358
622.557176	42827.596368
622.904506	42554.965727
623.251783	42237.090730
623.599007	42007.498940
623.946179	41801.104019
624.293297	41756.031063
624.640363	41152.897334
624.987376	41155.675010
625.334336	40912.104100
625.681243	40553.322661
626.028097	40523.841993
626.374899	40392.570347
626.721647	40354.882681
627.068343	40256.837279
627.414987	40031.858145
627.761577	39809.228188
628.108115	40144.283437
628.454600	39597.197257
628.801032	39778.661152
629.147412	39753.346998
629.493739	39754.035115
629.840014	39415.065410
630.186236	39758.239438
630.532405	39372.830623
630.878521	39594.480076
631.224585	39468.093308
631.570597	39170.423255
631.916556	39335.374850
632.262462	39303.597937
632.608316	39307.484667
632.954117	39203.473060
633.299866	39190.741626
633.645562	39099.653017
633.991206	38630.480390
634.336797	38205.644712
634.682336	38181.905918
635.027823	37931.721014
635.373257	37757.889427
635.718639	37536.824748
636.063968	37400.101094
636.409245	36821.875707
636.754470	36880.103555
637.099642	36641.740157
637.444762	36182.365012
637.789829	36313.566082
638.134845	35963.699923
638.479808	35928.046363
638.824719	35836.259554
