Dividing Wavelength (nm)	Counts (n)	Blue Motor Position (mm): 4.200000	Red Motor Position (mm): 0.000000	
326.493990	1977.599283
326.888308	1977.599283
327.282561	1977.599283
327.676750	1955.201437
328.070874	1955.549277
328.464933	1962.236367
328.858929	1970.181226
329.252859	1984.614049
329.646726	1998.325987
330.040528	2011.231341
330.434265	2031.988292
330.827938	2052.992260
331.221547	2073.073696
331.615091	2091.940214
332.008571	2112.873606
332.401986	2131.465381
332.795338	2152.681077
333.188625	2173.755621
333.581847	2191.548373
333.975006	2210.682073
334.368100	2228.721842
334.761129	2244.382186
335.154095	2259.230905
335.546996	2274.840838
335.939833	2288.000770
336.332606	2301.019550
336.725315	2310.905252
337.117960	2319.684422
337.510540	2325.012921
337.903056	2336.824345
338.295508	2341.252998
338.687896	2350.296828
339.080220	2355.043075
339.472480	2361.402490
339.864676	2363.446678
340.256807	2365.574045
340.648875	2369.405322
341.040879	2370.965559
341.432818	2370.138810
341.824694	2372.906403
342.216506	2372.964377
342.608253	2373.342463
342.999937	2371.028574
343.391557	2372.132586
343.783113	2369.949767
344.174605	2370.005219
344.566033	2365.669827
344.957397	2365.095136
345.348697	2359.350741
345.739934	2360.177490
346.131106	2359.146574
346.522215	2357.598940
346.913260	2354.730523
347.304241	2355.763960
347.695159	2354.642303
348.086012	2350.332117
348.476802	2351.438650
348.867528	2348.991170
349.258191	2347.597291
349.648789	2345.908504
350.039324	2344.088648
350.429796	2345.686693
350.820203	2345.081755
351.210548	2340.232165
351.600828	2341.094202
351.991045	2342.241065
352.381198	2342.488081
352.771288	2344.459172
353.161314	2342.019254
353.551276	2341.444562
353.941175	2342.052021
354.331010	2342.530931
354.720782	2341.510097
355.110490	2342.283914
355.500135	2342.036898
355.889717	2340.829542
356.279235	2341.724346
356.668689	2344.885150
357.058080	2340.637978
357.447408	2340.380879
357.836672	2338.538337
358.225873	2342.130159
358.615010	2339.556650
359.004084	2344.620489
359.393095	2344.519666
359.782043	2346.647033
360.170927	2345.820284
360.559748	2346.916735
360.948505	2346.810871
361.337199	2346.447908
361.725830	2348.744153
362.114398	2349.409585
362.502903	2347.768690
362.891344	2350.198526
363.279722	2349.550738
363.668037	2350.130470
364.056289	2350.518639
364.444478	2350.609380
364.832603	2352.030985
365.220665	2348.839935
365.608665	2351.421006
365.996601	2350.959740
366.384474	2351.778928
366.772284	2349.984277
367.160031	2354.513754
367.547715	2353.525688
367.935336	2353.593743
368.322893	2353.868486
368.710388	2355.020390
369.097820	2355.698425
369.485189	2355.038034
369.872495	2354.483507
370.259738	2354.433095
370.646918	2356.041223
371.034035	2356.280678
371.421090	2357.120030
371.808081	2355.887468
372.195010	2357.548528
372.581875	2356.525174
372.968678	2358.171111
373.355418	2357.712366
373.742096	2357.354444
374.128710	2356.194978
374.515262	2358.667664
374.901751	2360.237984
375.288177	2362.506503
375.674540	2359.990967
376.060841	2360.553056
376.447079	2359.572552
376.833254	2358.347551
377.219367	2354.901923
377.605417	2357.825792
377.991404	2353.911336
378.377329	2357.351923
378.763191	2356.099197
379.148991	2360.343848
379.534727	2359.348220
379.920402	2359.471728
380.306013	2360.714373
380.691563	2362.594723
381.077049	2360.737058
381.462474	2360.404342
381.847835	2362.841740
382.233134	2362.287213
382.618371	2362.566997
383.003545	2361.268900
383.388657	2361.825947
383.773706	2362.814013
384.158693	2362.337624
384.543618	2363.522296
384.928480	2363.781915
385.313280	2362.561956
385.698017	2365.334590
386.082692	2362.786287
386.467305	2361.836030
386.851856	2363.489528
387.236344	2364.293592
387.620770	2364.790146
388.005133	2365.601772
388.389435	2364.492718
388.773674	2363.194621
389.157851	2371.666280
389.541965	2364.154960
389.926018	2362.448530
390.310008	2367.850126
390.693936	2366.148737
391.077802	2365.425331
391.461606	2366.927595
391.845348	2364.883407
392.229027	2367.925743
392.612645	2369.049921
392.996200	2368.659231
393.379694	2368.298789
393.763125	2369.798532
394.146494	2367.000692
394.529801	2368.336598
394.913047	2369.312061
395.296230	2368.465147
395.679351	2365.319467
396.062410	2368.026567
396.445408	2371.615868
396.828343	2368.729807
397.211217	2366.007584
397.594028	2368.223172
397.976778	2367.774509
398.359466	2367.109077
398.742092	2367.073788
399.124656	2368.331556
399.507158	2372.646784
399.889598	2369.992617
400.271977	2371.575539
400.654294	2373.143338
401.036549	2373.148379
401.418742	2370.279962
401.800874	2372.750128
402.182944	2371.623430
402.564952	2371.580580
402.946898	2373.564274
403.328783	2371.532689
403.710606	2370.045549
404.092367	2373.266846
404.474067	2372.523276
404.855705	2371.867926
405.237282	2373.090406
405.618797	2374.300283
406.000250	2373.445807
406.381642	2375.570653
406.762972	2373.811291
407.144240	2374.388503
407.525447	2377.566950
407.906593	2374.602752
408.287677	2374.343132
408.668700	2374.431353
409.049661	2374.416229
409.430560	2373.239120
409.811399	2375.361445
410.192176	2375.043853
410.572891	2375.081661
410.953545	2373.637371
411.334138	2376.402444
411.714669	2378.900335
412.095139	2374.345653
412.475547	2375.497557
412.855894	2377.642568
413.236180	2374.189377
413.616405	2377.201467
413.996568	2376.200798
414.376670	2375.699203
414.756711	2377.393030
415.136691	2377.458565
415.516609	2378.164327
415.896466	2377.468648
416.276262	2377.761035
416.655997	2374.690972
417.035670	2373.284490
417.415283	2378.507125
417.794834	2373.037473
418.174324	2380.505943
418.553753	2379.785058
418.933121	2378.524769
419.312428	2380.412682
419.691674	2376.261291
420.070859	2379.533000
420.449983	2378.877650
420.829045	2380.475696
421.208047	2380.132898
421.586988	2380.926879
421.965867	2381.123484
422.344686	2379.495192
422.723444	2380.284132
423.102141	2383.144987
423.480777	2381.846890
423.859352	2377.393030
424.237866	2383.931407
424.616319	2378.829759
424.994712	2378.451673
425.373044	2379.918648
425.751314	2380.216077
426.129524	2379.424615
426.507673	2380.243803
426.885762	2380.047198
427.263789	2381.161293
427.641756	2379.911087
428.019662	2381.052908
428.397508	2380.785727
428.775292	2381.216746
429.153016	2382.892929
429.530679	2382.645913
429.908282	2383.344113
430.285824	2382.940820
430.663305	2380.773124
431.040726	2382.719009
431.418086	2383.255892
431.795385	2381.710779
432.172624	2381.146169
432.549802	2381.678011
432.926920	2383.913763
433.303977	2383.875954
433.680974	2381.582229
434.057910	2381.970398
434.434786	2383.049205
434.811601	2385.133722
435.188355	2384.170862
435.565050	2381.836807
435.941683	2384.435522
436.318257	2381.080634
436.694770	2380.521066
437.071222	2383.366798
437.447614	2381.350336
437.823946	2382.509802
438.200218	2383.951572
438.576429	2383.944010
438.952580	2384.185985
439.328670	2384.642210
439.704700	2387.064484
440.080670	2383.674308
440.456580	2384.823691
440.832429	2385.458877
441.208218	2386.149515
441.583947	2387.170348
441.959616	2384.153218
442.335224	2387.296377
442.710773	2386.457025
443.086261	2385.547097
443.461689	2386.706562
443.837057	2387.165307
444.212365	2384.075080
444.587612	2386.179762
444.962800	2386.099103
445.337927	2387.566079
445.712995	2388.148332
446.088002	2385.219422
446.462949	2385.821840
446.837837	2385.436191
447.212664	2386.010883
447.587431	2386.109185
447.962139	2385.968033
448.336786	2387.074566
448.711374	2385.116078
449.085901	2386.509957
449.460369	2386.699000
449.834776	2389.262427
450.209124	2385.781510
450.583412	2387.805534
450.957640	2388.198744
451.331808	2385.592467
451.705917	2387.934083
452.079965	2387.084649
452.453954	2387.092210
452.827883	2390.986502
453.201752	2386.958620
453.575562	2387.009031
453.949311	2389.141439
454.323001	2389.433826
454.696632	2388.181100
455.070202	2387.177910
455.443713	2387.545914
455.817164	2386.865358
456.190556	2383.807899
456.563888	2386.512478
456.937160	2382.877806
457.310373	2388.153373
457.683526	2389.045657
458.056619	2387.271171
458.429653	2392.665206
458.802628	2389.161604
459.175542	2389.048178
459.548398	2389.872407
459.921194	2388.924670
460.293930	2393.252500
460.666607	2389.685884
461.039224	2390.452139
461.411782	2388.468445
461.784280	2391.530946
462.156719	2390.479866
462.529099	2389.542211
462.901419	2388.415513
463.273680	2388.138250
463.645882	2390.477345
464.018024	2389.663199
464.390106	2390.310987
464.762130	2390.711759
465.134094	2388.675133
465.505999	2388.881820
465.877845	2389.464073
466.249631	2388.818806
466.621358	2388.871738
466.993026	2393.060937
467.364634	2396.960269
467.736184	2389.567417
468.107674	2391.750237
468.479105	2390.505072
468.850477	2389.542211
469.221790	2393.040772
469.593043	2388.947355
469.964238	2388.604557
470.335373	2391.041954
470.706449	2390.626059
471.077467	2389.733775
471.448425	2389.675802
471.819324	2391.213354
472.190164	2391.082284
472.560945	2390.989022
472.931667	2390.240411
473.302330	2394.270813
473.672934	2391.001625
474.043479	2392.201420
474.413965	2392.065309
474.784393	2387.540873
475.154761	2390.426934
475.525070	2386.446943
475.895321	2389.592623
476.265513	2387.218239
476.635645	2391.530946
477.005719	2391.185627
477.375734	2391.886348
477.745691	2390.066491
478.115588	2391.861142
478.485427	2391.636811
478.855207	2394.190155
479.224928	2392.692932
479.594591	2396.357851
479.964194	2394.868190
480.333739	2391.747716
480.703226	2392.055226
481.072653	2394.623694
481.442022	2391.173024
481.811333	2395.231153
482.180584	2393.146636
482.549777	2389.585061
482.918912	2392.942469
483.287988	2390.817623
483.657005	2392.196379
484.025964	2392.849208
484.394864	2391.949362
484.763706	2395.941956
485.132489	2391.810730
485.501213	2395.803324
485.869879	2389.902654
486.238487	2395.208468
486.607036	2394.101935
486.975527	2390.036244
487.343959	2393.091183
487.712333	2394.792573
488.080648	2393.310474
488.448905	2391.793086
488.817104	2393.698643
489.185244	2392.599671
489.553326	2395.147974
489.921350	2395.606719
490.289315	2393.106307
490.657222	2396.872049
491.025070	2395.359703
491.392861	2395.914230
491.760593	2393.978427
492.128267	2396.239384
492.495883	2392.897099
492.863440	2393.978427
493.230939	2396.917419
493.598380	2395.750392
493.965763	2387.893754
494.333088	2392.904661
494.700354	2389.292674
495.067563	2395.160577
495.434713	2390.958775
495.801805	2392.324928
496.168839	2393.118910
496.535815	2396.546894
496.902733	2395.289127
497.269593	2394.255690
497.636395	2396.244425
498.003139	2390.336193
498.369825	2395.775598
498.736453	2396.609909
499.103023	2395.314332
499.469535	2393.756616
499.835989	2397.280382
500.202385	2397.534961
500.568723	2394.550598
500.935003	2395.389950
501.301226	2393.708725
501.667390	2395.082439
502.033497	2396.751061
502.399546	2395.420197
502.765537	2393.494476
503.131470	2395.841133
503.497345	2395.057233
503.863163	2395.110166
504.228923	2393.277706
504.594625	2395.155536
504.960269	2392.516492
505.325856	2398.356669
505.691385	2393.877603
506.056856	2396.425907
506.422270	2395.175701
506.787625	2395.831051
507.152924	2394.933725
507.518164	2396.546894
507.883347	2396.685526
508.248472	2394.711914
508.613540	2395.493293
508.978550	2394.845505
509.343503	2395.939435
509.708398	2394.071688
510.073236	2396.045300
510.438016	2399.596792
510.802738	2394.452295
511.167403	2397.832389
511.532010	2396.725855
511.896561	2399.158212
512.261053	2395.936915
512.625488	2395.049672
512.989866	2391.248642
513.354186	2395.337018
513.718449	2390.522716
514.082655	2397.434138
514.446803	2395.793242
514.810894	2393.265103
515.174927	2397.058572
515.538904	2395.631925
515.902822	2395.891544
516.266684	2399.216185
516.630488	2393.872562
516.994235	2397.633263
517.357925	2394.152346
517.721558	2395.939435
518.085133	2397.940773
518.448651	2396.279713
518.812112	2392.927346
519.175516	2399.889179
519.538863	2394.681668
519.902152	2394.918602
520.265385	2397.103942
520.628560	2397.555125
520.991678	2395.722666
521.354739	2396.211658
521.717743	2396.221740
522.080690	2396.166287
522.443580	2394.918602
522.806413	2397.098901
523.169189	2398.976731
523.531908	2398.339025
523.894569	2395.394991
524.257174	2398.686864
524.619722	2395.878942
524.982213	2399.879097
525.344647	2395.987326
525.707025	2398.752399
526.069345	2395.571431
526.431608	2396.660320
526.793815	2398.644014
527.155964	2396.894734
527.518057	2395.515978
527.880093	2394.230484
528.242072	2398.099570
528.603995	2400.093346
528.965860	2398.412121
529.327669	2396.982954
529.689421	2396.839281
530.051117	2398.525547
530.412755	2399.435476
530.774337	2395.228633
531.135862	2399.390105
531.497331	2394.585886
531.858743	2395.440361
532.220098	2396.335166
532.581396	2395.294168
532.942638	2393.396173
533.303824	2398.462533
533.664953	2397.265259
534.026025	2396.315001
534.387040	2396.577141
534.747999	2399.238871
535.108902	2399.253994
535.469748	2397.492111
535.830537	2399.586710
536.191270	2395.803324
536.551947	2397.592934
536.912567	2396.874569
537.273131	2397.182080
537.633638	2397.832389
537.994089	2396.758623
538.354483	2398.976731
538.714821	2396.662841
539.075103	2397.872718
539.435328	2400.088305
539.795497	2397.310629
540.155609	2396.811555
540.515665	2396.546894
540.875665	2396.183931
541.235609	2398.535630
541.595496	2395.475649
541.955328	2395.440361
542.315102	2397.013201
542.674821	2394.429610
543.034483	2397.149312
543.394090	2398.588562
543.753640	2397.325753
544.113134	2396.556977
544.472571	2396.806514
544.831953	2398.651576
545.191278	2400.211813
545.550548	2397.403891
545.909761	2397.729045
546.268918	2398.359189
546.628019	2400.037893
546.987064	2396.998078
547.346053	2401.174674
547.704986	2396.133520
548.063863	2397.045969
548.422684	2399.390105
548.781449	2397.267779
549.140158	2396.191493
549.498811	2400.060579
549.857408	2398.200393
550.215949	2396.115876
550.574434	2395.165618
550.932864	2395.057233
551.291237	2394.732079
551.649555	2399.606875
552.007817	2399.435476
552.366022	2401.426731
552.724173	2398.152502
553.082267	2397.240053
553.440305	2397.787018
553.798288	2398.162584
554.156215	2398.870866
554.514086	2398.321381
554.871902	2395.596637
555.229661	2398.422204
555.587365	2396.879611
555.945014	2398.623850
556.302606	2398.071843
556.660143	2400.501680
557.017625	2397.333314
557.375050	2400.194169
557.732421	2397.189642
558.089735	2401.580487
558.446994	2397.744168
558.804197	2398.502862
559.161345	2397.610578
559.518437	2397.996226
559.875474	2397.832389
560.232455	2399.881618
560.589381	2399.737945
560.946251	2396.980434
561.303065	2395.016904
561.659825	2400.355486
562.016528	2400.221896
562.373177	2398.354148
562.729770	2400.662997
563.086307	2398.964128
563.442789	2398.838099
563.799216	2398.628891
564.155587	2398.880949
564.511904	2396.683006
564.868164	2396.962790
565.224370	2398.782646
565.580520	2398.162584
565.936615	2401.845147
566.292654	2397.310629
566.648638	2397.247615
567.004567	2401.739283
567.360441	2396.655279
567.716260	2399.196021
568.072023	2396.123438
568.427732	2396.451112
568.783385	2396.161246
569.138982	2393.655793
569.494525	2396.093191
569.850013	2396.181411
570.205445	2397.744168
570.560823	2397.955897
570.916145	2398.649056
571.271412	2399.160733
571.626625	2400.146278
571.981782	2397.807183
572.336884	2401.179715
572.691931	2398.270969
573.046923	2399.758109
573.401860	2399.148130
573.756743	2400.363048
574.111570	2397.623181
574.466342	2398.447409
574.821059	2399.069992
575.175722	2398.666700
575.530330	2397.318191
575.884882	2398.308778
576.239380	2398.230640
576.593823	2403.501166
576.948211	2400.126114
577.302544	2400.683161
577.656823	2399.841288
578.011047	2399.453120
578.365216	2399.329611
578.719330	2398.457492
579.073389	2399.034704
579.427394	2400.453789
579.781344	2398.888510
580.135239	2401.068809
580.489080	2399.458161
580.842866	2399.569066
581.196597	2399.463202
581.550273	2398.470095
581.903895	2397.287944
582.257463	2398.878428
582.610975	2398.255846
582.964434	2399.377502
583.317837	2398.228119
583.671186	2398.933881
584.024481	2399.102759
584.377721	2399.148130
584.730906	2396.335166
585.084037	2398.810372
585.437113	2397.325753
585.790135	2399.415311
586.143103	2397.247615
586.496016	2397.983623
586.848874	2394.169990
587.201679	2396.811555
587.554428	2397.111504
587.907124	2397.444220
588.259765	2395.997409
588.612352	2397.829868
588.964884	2398.981772
589.317362	2399.604354
589.669786	2398.311298
590.022155	2402.180384
590.374470	2396.859446
590.726731	2401.724159
591.078937	2399.604354
591.431090	2397.131668
591.783188	2400.710888
592.135232	2397.217368
592.487222	2400.478994
592.839157	2397.320712
593.191038	2400.121073
593.542866	2401.283058
593.894639	2401.313305
594.246358	2401.094015
594.598022	2399.652245
594.949633	2399.168294
595.301190	2397.275341
595.652692	2396.793911
596.004141	2399.596793
596.355535	2400.947822
596.706876	2399.488408
597.058162	2399.067471
597.409395	2398.775084
597.760573	2399.566546
598.111698	2400.620147
598.462768	2400.310116
598.813785	2396.564538
599.164748	2400.315157
599.515657	2399.821124
599.866511	2399.037224
600.217312	2397.703839
600.568060	2398.235681
600.918753	2403.733059
601.269392	2399.208624
601.619978	2399.700136
601.970510	2398.923798
602.320988	2399.647204
602.671412	2399.753068
603.021783	2397.822306
603.372100	2399.669889
603.722363	2399.503531
604.072572	2397.857594
604.422728	2398.699467
604.772830	2396.826678
605.122878	2394.689229
605.472872	2397.555125
605.822813	2393.580175
606.172701	2400.796587
606.522534	2397.701319
606.872314	2396.935063
607.222041	2397.124107
607.571714	2399.309447
607.921333	2399.604354
608.270899	2399.032183
608.620411	2396.057903
608.969870	2396.400701
609.319276	2401.003274
609.668627	2401.716598
610.017926	2398.611247
610.367171	2400.700805
610.716362	2399.924468
611.065500	2401.169633
611.414585	2396.975392
611.763616	2398.303737
612.112594	2399.672410
612.461518	2398.959087
612.810389	2399.001936
613.159207	2399.861453
613.507971	2398.848181
613.856682	2401.522513
614.205340	2398.046638
614.553945	2399.712739
614.902496	2396.622512
615.250994	2399.261556
615.599439	2400.438665
615.947830	2401.562843
616.296169	2399.493449
616.644454	2401.220044
616.992686	2398.903634
617.340864	2398.472615
617.688990	2395.679816
618.037063	2399.437996
618.385082	2398.482698
618.733048	2401.018398
619.080961	2396.660320
619.428821	2401.023439
619.776628	2398.389436
620.124382	2397.313150
620.472083	2398.885990
620.819731	2400.731052
621.167326	2399.780795
621.514868	2400.375651
621.862357	2397.345917
622.209793	2398.870866
622.557176	2397.673592
622.904506	2398.147461
623.251783	2396.292316
623.599007	2393.277706
623.946179	2395.415155
624.293297	2393.474311
624.640363	2398.966648
624.987376	2400.312636
625.334336	2398.394477
625.681243	2400.300033
626.028097	2396.867008
626.374899	2397.376164
626.721647	2396.206617
627.068343	2398.989333
627.414987	2398.386916
627.761577	2400.831875
628.108115	2399.226268
628.454600	2396.441030
628.801032	2398.326422
629.147412	2397.045969
629.493739	2397.998747
629.840014	2397.469426
630.186236	2399.508572
630.532405	2400.189128
630.878521	2397.479508
631.224585	2397.330794
631.570597	2396.322563
631.916556	2400.713408
632.262462	2398.230640
632.608316	2398.467574
632.954117	2396.589744
633.299866	2399.506052
633.645562	2396.758623
633.991206	2399.357338
634.336797	2397.522358
634.682336	2399.538819
635.027823	2398.780126
635.373257	2397.408932
635.718639	2395.954559
636.063968	2401.923285
636.409245	2398.071843
636.754470	2400.786505
637.099642	2398.086967
637.444762	2396.806514
637.789829	2398.482698
638.134845	2396.839281
638.479808	2399.503531
638.824719	2398.223078
639.169577	2396.761143
639.514383	2398.699467
639.859137	2397.600496
640.203839	2399.203583
640.548489	2398.666700
640.893086	2395.279044
641.237632	2394.522871
641.582125	2395.672254
641.926566	2392.236708
642.270955	2398.538150
642.615292	2395.498334
642.959576	2397.645866
643.303809	2399.322050
643.647990	2398.402039
643.992118	2400.242060
644.336195	2400.519324
