Dividing Wavelength (nm)	Counts (n)	Blue Motor Position (mm): 21.600000	Red Motor Position (mm): 0.000000	
326.493990	1971.960753
326.888308	1971.960753
327.282561	1971.960753
327.676750	1950.135077
328.070874	1948.862186
328.464933	1956.073557
328.858929	1966.153344
329.252859	1979.620786
329.646726	1994.837509
330.040528	2008.531803
330.434265	2026.574093
330.827938	2049.430685
331.221547	2066.313509
331.615091	2091.584813
332.008571	2106.768768
332.401986	2127.906327
332.795338	2149.230407
333.188625	2169.546257
333.581847	2187.028979
333.975006	2204.302493
334.368100	2224.872921
334.761129	2240.755076
335.154095	2257.247211
335.546996	2291.154012
335.939833	2356.358816
336.332606	2371.406660
336.725315	2382.169524
337.117960	2393.252500
337.510540	2401.451937
337.903056	2409.744635
338.295508	2415.612538
338.687896	2421.263672
339.080220	2428.822882
339.472480	2436.755138
339.864676	2436.319078
340.256807	2442.807043
340.648875	2443.583380
341.040879	2445.161262
341.432818	2444.788216
341.824694	2446.960953
342.216506	2446.819801
342.608253	2448.501026
342.999937	2443.628751
343.391557	2442.849892
343.783113	2442.930551
344.174605	2440.689758
344.566033	2438.552309
344.957397	2439.699171
345.348697	2437.909562
345.739934	2434.693306
346.131106	2433.395208
346.522215	2429.442944
346.913260	2428.739703
347.304241	2427.103848
347.695159	2427.181986
348.086012	2423.504465
348.476802	2421.782911
348.867528	2423.383477
349.258191	2416.978691
349.648789	2418.937179
350.039324	2419.466500
350.429796	2419.879875
350.820203	2416.986253
351.210548	2414.569019
351.600828	2414.506005
351.991045	2414.241344
352.381198	2416.028433
352.771288	2413.961560
353.161314	2413.671694
353.551276	2412.731519
353.941175	2409.805129
354.331010	2412.310583
354.720782	2417.301325
355.110490	2417.356778
355.500135	2414.440470
355.889717	2410.815880
356.279235	2415.380645
356.668689	2413.570871
357.058080	2415.607497
357.447408	2413.863258
357.836672	2411.816549
358.225873	2414.130439
358.615010	2411.637588
359.004084	2420.154618
359.393095	2417.999525
359.782043	2416.131777
360.170927	2417.258475
360.559748	2419.635379
360.948505	2418.244021
361.337199	2421.432550
361.725830	2422.571851
362.114398	2420.575554
362.502903	2419.736202
362.891344	2423.786769
363.279722	2422.584454
363.668037	2424.795000
364.056289	2421.177972
364.444478	2423.451533
364.832603	2424.921029
365.220665	2426.844229
365.608665	2426.985381
365.996601	2428.233067
366.384474	2425.909095
366.772284	2429.377409
367.160031	2424.898344
367.547715	2425.551173
367.935336	2423.476738
368.322893	2428.588468
368.710388	2428.598551
369.097820	2427.665937
369.485189	2430.133582
369.872495	2430.723397
370.259738	2429.536205
370.646918	2431.910589
371.034035	2429.243818
371.421090	2431.373706
371.808081	2431.361103
372.195010	2431.991247
372.581875	2432.596186
372.968678	2431.620722
373.355418	2431.978644
373.742096	2430.431010
374.128710	2433.657348
374.515262	2434.600044
374.901751	2432.923861
375.288177	2432.429828
375.674540	2437.047524
376.060841	2434.726073
376.447079	2434.345466
376.833254	2433.803542
377.219367	2429.516041
377.605417	2434.075764
377.991404	2429.324477
378.377329	2433.065013
378.763191	2432.386978
379.148991	2437.244129
379.534727	2438.685899
379.920402	2438.403595
380.306013	2435.023501
380.691563	2439.111877
381.077049	2438.398554
381.462474	2439.371496
381.847835	2437.884356
382.233134	2438.479212
382.618371	2439.207659
383.003545	2438.824531
383.388657	2436.503080
383.773706	2439.694130
384.158693	2440.137752
384.543618	2442.401230
384.928480	2440.881322
385.313280	2441.599686
385.698017	2441.403081
386.082692	2444.281580
386.467305	2441.761003
386.851856	2444.460541
387.236344	2441.027515
387.620770	2445.287290
388.005133	2442.368462
388.389435	2444.205963
388.773674	2443.943823
389.157851	2447.195367
389.541965	2443.598504
389.926018	2447.558330
390.310008	2444.694955
390.693936	2449.789041
391.077802	2446.388783
391.461606	2448.314503
391.845348	2447.550768
392.229027	2446.096396
392.612645	2448.637137
392.996200	2449.098403
393.379694	2451.626541
393.763125	2449.224432
394.146494	2449.053032
394.529801	2448.682507
394.913047	2449.647888
395.296230	2447.180244
395.679351	2451.167796
396.062410	2451.248455
396.445408	2447.913732
396.828343	2452.221398
397.211217	2444.735284
397.594028	2450.391459
397.976778	2446.671087
398.359466	2449.552107
398.742092	2446.628237
399.124656	2453.398507
399.507158	2450.696448
399.889598	2456.100565
400.271977	2452.632252
400.654294	2453.343054
401.036549	2453.025462
401.418742	2453.821964
401.800874	2455.919084
402.182944	2452.387756
402.564952	2455.021758
402.946898	2453.620318
403.328783	2454.295832
403.710606	2455.568724
404.092367	2458.923612
404.474067	2456.093004
404.855705	2456.259362
405.237282	2454.941100
405.618797	2457.693570
406.000250	2457.368416
406.381642	2457.496965
406.762972	2459.586523
407.144240	2459.888993
407.525447	2460.957717
407.906593	2457.315483
408.287677	2457.839763
408.668700	2460.173818
409.049661	2460.103242
409.430560	2457.658282
409.811399	2459.392439
410.192176	2461.035855
410.572891	2460.438478
410.953545	2462.129785
411.334138	2459.407562
411.714669	2461.764302
412.095139	2459.490741
412.475547	2461.993674
412.855894	2462.606174
413.236180	2461.136678
413.616405	2462.361678
413.996568	2462.560804
414.376670	2465.129272
414.756711	2465.683799
415.136691	2463.755557
415.516609	2467.392750
415.896466	2464.723459
416.276262	2463.493417
416.655997	2463.100208
417.035670	2461.033334
417.415283	2468.078347
417.794834	2460.466205
418.174324	2469.111783
418.553753	2465.189766
418.933121	2463.921916
419.312428	2469.121866
419.691674	2467.619602
420.070859	2467.312092
420.449983	2469.028604
420.829045	2467.680096
421.208047	2466.016515
421.586988	2471.105560
421.965867	2466.515589
422.344686	2469.494911
422.723444	2469.988944
423.102141	2468.194293
423.480777	2471.602113
423.859352	2471.067751
424.237866	2474.044553
424.616319	2471.339973
424.994712	2473.459779
425.373044	2473.759727
425.751314	2474.155458
426.129524	2472.890128
426.507673	2475.940026
426.885762	2471.133286
427.263789	2476.116467
427.641756	2477.520428
428.019662	2472.605303
428.397508	2476.479430
428.775292	2475.128401
429.153016	2477.737198
429.530679	2477.258288
429.908282	2476.673514
430.285824	2475.478761
430.663305	2477.288535
431.040726	2478.006899
431.418086	2476.794502
431.795385	2481.649133
432.172624	2480.630820
432.549802	2479.136118
432.926920	2478.296766
433.303977	2481.797847
433.680974	2479.791468
434.057910	2482.160810
434.434786	2480.444297
434.811601	2481.485296
435.188355	2482.559061
435.565050	2482.143166
435.941683	2483.022848
436.318257	2480.792137
436.694770	2483.847076
437.071222	2483.310193
437.447614	2482.475882
437.823946	2484.535194
438.200218	2482.790954
438.576429	2485.324134
438.952580	2484.835142
439.328670	2487.212046
439.704700	2487.149032
440.080670	2484.835142
440.456580	2487.423775
440.832429	2485.019144
441.208218	2488.550473
441.583947	2491.809579
441.959616	2487.572489
442.335224	2487.872438
442.710773	2488.184989
443.086261	2492.064157
443.461689	2489.220946
443.837057	2489.886378
444.212365	2492.885865
444.587612	2492.908550
444.962800	2492.714466
445.337927	2491.817140
445.712995	2490.813951
446.088002	2495.892913
446.462949	2495.587923
446.837837	2496.092039
447.212664	2498.267297
447.587431	2501.627226
447.962139	2505.776095
448.336786	2510.050994
448.711374	2509.365397
449.085901	2505.854233
449.460369	2507.343894
449.834776	2506.824655
450.209124	2512.180881
450.583412	2508.989831
450.957640	2512.894205
451.331808	2513.030316
451.705917	2510.280366
452.079965	2510.764317
452.453954	2510.882784
452.827883	2512.478309
453.201752	2513.005110
453.575562	2516.806140
453.949311	2517.837056
454.323001	2516.123064
454.696632	2520.355112
455.070202	2526.464991
455.443713	2524.468694
455.817164	2527.100176
456.190556	2525.860052
456.563888	2530.313912
456.937160	2529.000691
457.310373	2530.369364
457.683526	2533.043697
458.056619	2534.016639
458.429653	2534.515713
458.802628	2538.793133
459.175542	2540.091230
459.548398	2543.647764
459.921194	2550.939793
460.293930	2555.146636
460.666607	2559.005639
461.039224	2567.318502
461.411782	2572.820921
461.784280	2569.299675
462.156719	2569.027453
462.529099	2571.449727
462.901419	2569.531568
463.273680	2569.937381
463.645882	2569.952504
464.018024	2576.483319
464.390106	2577.108422
464.762130	2591.760536
465.134094	2608.393823
465.505999	2630.738737
465.877845	2650.772283
466.249631	2659.153201
466.621358	2657.023314
466.993026	2651.846049
467.364634	2649.035605
467.736184	2645.141314
468.107674	2645.877322
468.479105	2645.060656
468.850477	2647.172899
469.221790	2642.764410
469.593043	2643.460089
469.964238	2643.313896
470.335373	2646.348670
470.706449	2660.605053
471.077467	2683.643127
471.448425	2714.507591
471.819324	2734.851167
472.190164	2737.477608
472.560945	2722.054198
472.931667	2714.873075
473.302330	2716.748384
473.672934	2721.051009
474.043479	2730.838409
474.413965	2736.151785
474.784393	2742.584297
475.154761	2765.657658
475.525070	2776.213835
475.895321	2783.649537
476.265513	2804.918165
476.635645	2834.925633
477.005719	2847.601614
477.375734	2871.484081
477.745691	2898.665982
478.115588	2934.750561
478.485427	2989.822647
478.855207	3067.582445
479.224928	3139.827220
479.594591	3196.154553
479.964194	3208.497818
480.333739	3240.478898
480.703226	3280.500618
481.072653	3340.455061
481.442022	3408.994589
481.811333	3461.195737
482.180584	3481.723315
482.549777	3520.479706
482.918912	3562.469997
483.287988	3616.488481
483.657005	3648.419150
484.025964	3691.137887
484.394864	3749.151486
484.763706	3806.597954
485.132489	3838.526102
485.501213	3905.449940
485.869879	3983.247547
486.238487	4048.018812
486.607036	4133.279847
486.975527	4197.519271
487.343959	4289.288435
487.712333	4385.675297
488.080648	4472.698215
488.448905	4591.760187
488.817104	4689.460269
489.185244	4856.430846
489.553326	5083.882666
489.921350	5403.340585
490.289315	5755.550881
490.657222	5955.064627
491.025070	6122.861953
491.392861	6190.420977
491.760593	6224.635288
492.128267	6227.123097
492.495883	6236.542493
492.863440	6267.613645
493.230939	6300.434077
493.598380	6354.729824
493.965763	6478.288505
494.333088	6560.933181
494.700354	6666.063924
495.067563	6798.497556
495.434713	6949.573375
495.801805	7130.984338
496.168839	7252.982781
496.535815	7391.387660
496.902733	7566.378713
497.269593	7697.262190
497.636395	7867.728808
498.003139	8109.842824
498.369825	8218.698980
498.736453	8451.922921
499.103023	8577.596366
499.469535	8749.169517
499.835989	8960.555180
500.202385	9105.695040
500.568723	9313.652718
500.935003	9552.676507
501.301226	9736.265248
501.667390	10063.234487
502.033497	10327.877420
502.399546	10433.703842
502.765537	10505.883082
503.131470	10810.240225
503.497345	11115.731628
503.863163	11044.185052
504.228923	11409.401525
504.594625	11745.129768
504.960269	11808.887761
505.325856	12214.713249
505.691385	12292.609158
506.056856	12576.274885
506.422270	12963.629585
506.787625	13092.345366
507.152924	13406.343715
507.518164	13691.320142
507.883347	13710.037947
508.248472	14031.156926
508.613540	14445.733857
508.978550	14802.947497
509.343503	14986.954654
509.708398	15321.692311
510.073236	15778.521672
510.438016	16053.201542
510.802738	16126.308355
511.167403	16626.380735
511.532010	16992.222310
511.896561	17392.714257
512.261053	18034.052370
512.625488	18139.478020
512.989866	18375.303197
513.354186	18605.928424
513.718449	18876.978663
514.082655	19469.084868
514.446803	19612.672053
514.810894	20128.866042
515.174927	20388.601412
515.538904	20629.767691
515.902822	21228.303887
516.266684	21266.457860
516.630488	21763.059405
516.994235	21973.217547
517.357925	22534.260162
517.721558	22910.690681
518.085133	23375.134705
518.448651	23729.162337
518.812112	23893.897162
519.175516	24232.582042
519.538863	24707.057963
519.902152	24962.294103
520.265385	25508.298955
520.628560	25808.308103
520.991678	25965.362731
521.354739	26384.454014
521.717743	26842.944436
522.080690	27061.919556
522.443580	27674.704574
522.806413	27988.740732
523.169189	28211.506800
523.531908	28601.664381
523.894569	28775.231308
524.257174	29145.456167
524.619722	29609.665778
524.982213	29857.118376
525.344647	30064.183771
525.707025	30356.787463
526.069345	30871.605217
526.431608	31057.618753
526.793815	31505.910921
527.155964	31445.056632
527.518057	31794.912709
527.880093	31881.250030
528.242072	32498.693074
528.603995	32498.277179
528.965860	32736.819538
529.327669	33044.947464
529.689421	33178.550643
530.051117	33361.342882
530.412755	33699.909295
530.774337	33950.288283
531.135862	34018.414436
531.497331	34376.916092
531.858743	34513.130589
532.220098	34982.083926
532.581396	34962.148683
532.942638	34886.307044
533.303824	35312.161036
533.664953	35470.080221
534.026025	35443.793124
534.387040	35991.217062
534.747999	36130.708309
535.108902	36424.216889
535.469748	36215.079580
535.830537	36483.052195
536.191270	36825.694381
536.551947	36691.239246
536.912567	37095.900227
537.273131	37368.112453
537.633638	37108.069573
537.994089	37551.096255
538.354483	37356.588375
538.714821	37988.136567
539.075103	38438.795556
539.435328	38378.107626
539.795497	38432.216851
540.155609	38566.084691
540.515665	39098.513716
540.875665	38770.122872
541.235609	39174.088174
541.595496	39299.131475
541.955328	40026.363287
542.315102	39596.723389
542.674821	39541.686592
543.034483	39707.827899
543.394090	39787.548706
543.753640	39883.151668
544.113134	40881.373227
544.472571	40117.131783
544.831953	41349.010822
545.191278	40764.766297
545.550548	40624.937292
545.909761	41141.285037
546.268918	41436.525253
546.628019	41817.291164
546.987064	41527.863399
547.346053	40968.292801
547.704986	41859.105015
548.063863	41579.255442
548.422684	41852.052441
548.781449	41801.789616
549.140158	42259.453289
549.498811	42207.998232
549.857408	41759.970725
550.215949	42630.330977
550.574434	42646.492917
550.932864	42524.890203
551.291237	43272.858802
551.649555	42982.039678
552.007817	43287.142912
552.366022	43054.657499
552.724173	43296.945436
553.082267	43736.697888
553.440305	44083.257051
553.798288	43527.701732
554.156215	43892.217485
554.514086	44159.801931
554.871902	43979.764683
555.229661	44073.386472
555.587365	43957.644100
555.945014	44121.673164
556.302606	44088.393987
556.660143	44380.284356
557.017625	44528.063260
557.375050	44387.687290
557.732421	44796.018231
558.089735	44839.283934
558.446994	44778.210355
558.804197	45314.866388
559.161345	45296.161187
559.518437	44636.354807
559.875474	44988.446635
560.232455	45206.708432
560.589381	45417.131235
560.946251	45160.375187
561.303065	45862.383587
561.659825	45713.644342
562.016528	45474.630636
562.373177	45244.643115
562.729770	45748.004847
563.086307	45321.460217
563.442789	45798.219781
563.799216	45879.122738
564.155587	45713.283900
564.511904	45773.722293
564.868164	45922.151507
565.224370	46174.367995
565.580520	45945.539940
565.936615	46203.687346
566.292654	45953.373893
566.648638	46203.336986
567.004567	46208.554580
567.360441	46272.093283
567.716260	46176.782708
568.072023	46486.085223
568.427732	46503.164652
568.783385	46080.032883
569.138982	46499.333375
569.494525	46457.083465
569.850013	46264.050122
570.205445	46255.825480
570.560823	46244.409787
570.916145	46147.216341
571.271412	46179.769592
571.626625	45963.181458
571.981782	46043.015691
572.336884	45756.635303
572.691931	46093.954030
573.046923	45722.917545
573.401860	45581.079640
573.756743	45580.210041
574.111570	45694.747577
574.466342	45571.604792
574.821059	45706.944649
575.175722	45244.408701
575.530330	45271.298216
575.884882	45022.948292
576.239380	44995.539539
576.593823	44980.950440
576.948211	44918.818218
577.302544	44472.303058
577.656823	44509.658008
578.011047	44748.855717
578.365216	44479.902597
578.719330	44287.207012
579.073389	44159.943083
579.427394	44256.241724
579.781344	44241.261936
580.135239	43900.495059
580.489080	43993.317825
580.842866	43500.585366
581.196597	43957.074449
581.550273	43902.914813
581.903895	43762.337197
582.257463	44198.701994
582.610975	43611.500833
582.964434	43869.257549
583.317837	43553.139395
583.671186	43387.802151
584.024481	43626.636897
584.377721	43180.010831
584.730906	43449.483189
585.084037	43489.923325
585.437113	43215.215729
585.790135	43264.044345
586.143103	42861.258673
586.496016	42997.236237
586.848874	43024.438303
587.201679	43048.640882
587.554428	42542.897205
587.907124	42732.636153
588.259765	42491.298475
588.612352	42751.268258
588.964884	42159.893021
589.317362	42458.473002
589.669786	42401.941502
590.022155	42171.207891
590.374470	42578.770056
590.726731	42141.023982
591.078937	41656.952225
591.431090	41764.611107
591.783188	41422.586462
592.135232	41103.383121
592.487222	41353.555422
592.839157	41446.156377
593.191038	41139.739923
593.542866	40913.384553
593.894639	40325.049132
594.246358	40600.248241
594.598022	40550.819728
594.949633	40187.682731
595.301190	40150.098408
595.652692	40003.683136
596.004141	40328.714051
596.355535	39355.143735
596.706876	39309.060027
597.058162	39150.072117
597.409395	39601.595664
597.760573	39689.405003
598.111698	39269.338255
598.462768	39275.369996
598.813785	39333.156742
599.164748	38801.274682
599.515657	39194.267913
599.866511	38681.917803
600.217312	39301.510899
600.568060	38272.608879
600.918753	39013.207311
601.269392	38972.794901
601.619978	38623.621900
601.970510	38848.979121
602.320988	39025.779948
602.671412	39333.738996
603.021783	39075.087474
603.372100	38718.279646
603.722363	38850.564564
604.072572	38911.935571
604.422728	38931.190258
604.772830	38752.660315
605.122878	38847.832259
605.472872	38792.455184
605.822813	39071.132689
606.172701	38913.319368
606.522534	39120.901480
606.872314	39384.541224
607.222041	39162.173407
607.571714	39548.096419
607.921333	39002.255404
608.270899	39286.276532
608.620411	39627.421495
608.969870	39435.008215
609.319276	39434.494017
609.668627	39485.742387
610.017926	39967.656530
610.367171	40132.151901
610.716362	40216.744983
611.065500	40158.955716
611.414585	40370.966482
611.763616	40643.400518
612.112594	40578.135220
612.461518	40795.396348
612.810389	41082.253125
613.159207	40956.831738
613.507971	41022.739783
613.856682	41499.416168
614.205340	41370.944882
614.553945	42076.812285
614.902496	41537.113916
615.250994	41990.222906
615.599439	42069.472365
615.947830	42276.966257
616.296169	42316.708194
616.644454	42466.927017
616.992686	42629.274856
617.340864	43144.924400
617.688990	42879.560582
618.037063	43468.541271
618.385082	43440.328454
618.733048	43740.193929
619.080961	43739.163013
619.428821	43750.397224
619.776628	43875.357346
620.124382	43681.653530
620.472083	43826.768184
620.819731	43919.782514
621.167326	43614.996873
621.514868	43606.447076
621.862357	43149.133764
622.209793	43184.472252
622.557176	42868.137328
622.904506	42601.296452
623.251783	42267.836728
623.599007	42043.099569
623.946179	41826.327433
624.293297	41777.881944
624.640363	41198.252596
624.987376	41188.329084
625.334336	40934.028078
625.681243	40592.177354
626.028097	40573.421741
626.374899	40409.674982
626.721647	40397.097303
627.068343	40292.296756
627.414987	40058.530890
627.761577	39837.723310
628.108115	40174.227891
628.454600	39617.815577
628.801032	39797.174789
629.147412	39775.094536
629.493739	39793.625817
629.840014	39434.793966
630.186236	39760.354202
630.532405	39394.938603
630.878521	39612.461871
631.224585	39479.330039
631.570597	39185.723157
631.916556	39350.677273
632.262462	39313.639915
632.608316	39324.458232
632.954117	39212.695851
633.299866	39214.422446
633.645562	39130.215012
633.991206	38631.720514
634.336797	38214.388593
634.682336	38218.353460
635.027823	37957.909809
635.373257	37781.051008
635.718639	37549.326810
636.063968	37410.183402
636.409245	36833.762748
636.754470	36888.174442
637.099642	36656.694740
637.444762	36189.069747
637.789829	36335.749680
638.134845	35982.090052
638.479808	35945.894568
638.824719	35837.920614
