Dividing Wavelength (nm)	Counts (n)	Blue Motor Position (mm): 32.800000	Red Motor Position (mm): 0.000000	
326.493990	1970.534106
326.888308	1970.534106
327.282561	1970.534106
327.676750	1946.959150
328.070874	1947.324634
328.464933	1953.931066
328.858929	1962.029680
329.252859	1976.303707
329.646726	1989.602271
330.040528	2005.925527
330.434265	2024.056037
330.827938	2041.858872
331.221547	2063.566080
331.615091	2083.864286
332.008571	2102.156113
332.401986	2126.388939
332.795338	2142.553399
333.188625	2165.102480
333.581847	2185.201561
333.975006	2201.834848
334.368100	2221.003835
334.761129	2239.467061
335.154095	2251.913670
335.546996	2294.029990
335.939833	2370.980683
336.332606	2387.508106
336.725315	2396.708211
337.117960	2405.598286
337.510540	2414.049781
337.903056	2425.175607
338.295508	2427.431523
338.687896	2439.689089
339.080220	2442.320571
339.472480	2448.584205
339.864676	2452.929680
340.256807	2455.117540
340.648875	2456.796245
341.040879	2456.070318
341.432818	2459.926801
341.824694	2461.744137
342.216506	2459.712552
342.608253	2462.505351
342.999937	2459.311780
343.391557	2458.265741
343.783113	2455.535956
344.174605	2454.628548
344.566033	2452.758280
344.957397	2454.212653
345.348697	2452.748198
345.739934	2448.992538
346.131106	2448.715275
346.522215	2448.639658
346.913260	2445.241920
347.304241	2441.501384
347.695159	2441.592125
348.086012	2438.154058
348.476802	2436.719849
348.867528	2435.903183
349.258191	2434.675662
349.648789	2433.758172
350.039324	2432.407142
350.429796	2434.380754
350.820203	2431.219951
351.210548	2430.473860
351.600828	2431.270362
351.991045	2430.042841
352.381198	2428.901020
352.771288	2429.271545
353.161314	2427.953283
353.551276	2426.597213
353.941175	2427.875145
354.331010	2429.836154
354.720782	2431.411514
355.110490	2433.954777
355.500135	2428.616195
355.889717	2432.185332
356.279235	2431.489652
356.668689	2428.903540
357.058080	2429.571493
357.447408	2428.654003
357.836672	2428.071750
358.225873	2429.959662
358.615010	2425.694846
359.004084	2432.903696
359.393095	2432.132399
359.782043	2433.004519
360.170927	2434.534509
360.559748	2433.463264
360.948505	2437.251691
361.337199	2440.445262
361.725830	2437.143306
362.114398	2440.488112
362.502903	2438.748914
362.891344	2440.566250
363.279722	2436.651794
363.668037	2439.908379
364.056289	2441.224120
364.444478	2443.888370
364.832603	2441.032557
365.220665	2441.813935
365.608665	2444.866354
365.996601	2443.485078
366.384474	2446.401385
366.772284	2445.191508
367.160031	2447.470110
367.547715	2445.698144
367.935336	2446.552620
368.322893	2445.861982
368.710388	2446.338371
369.097820	2448.226283
369.485189	2446.489606
369.872495	2448.662343
370.259738	2449.088320
370.646918	2448.695110
371.034035	2449.751232
371.421090	2448.836263
371.808081	2449.053032
372.195010	2447.777620
372.581875	2448.521191
372.968678	2450.668722
373.355418	2449.804164
373.742096	2450.792230
374.128710	2452.012190
374.515262	2456.178703
374.901751	2453.842128
375.288177	2455.956893
375.674540	2451.853393
376.060841	2455.861111
376.447079	2452.859103
376.833254	2455.183075
377.219367	2451.896243
377.605417	2456.886985
377.991404	2455.583847
378.377329	2456.524022
378.763191	2451.891202
379.148991	2459.621811
379.534727	2460.723303
379.920402	2459.503344
380.306013	2462.089456
380.691563	2459.158025
381.077049	2462.142388
381.462474	2461.401339
381.847835	2461.721452
382.233134	2465.822431
382.618371	2461.260186
383.003545	2465.257821
383.388657	2466.329067
383.773706	2465.237657
384.158693	2464.695733
384.543618	2466.855867
384.928480	2468.837041
385.313280	2467.440641
385.698017	2467.808645
386.082692	2469.257977
386.467305	2470.026753
386.851856	2471.092957
387.236344	2470.845940
387.620770	2471.153451
388.005133	2471.607155
388.389435	2474.228555
388.773674	2472.985910
389.157851	2472.527165
389.541965	2474.594038
389.926018	2475.924903
390.310008	2475.577063
390.693936	2477.540593
391.077802	2477.777527
391.461606	2476.716364
391.845348	2479.478916
392.229027	2479.652836
392.612645	2476.192084
392.996200	2477.522949
393.379694	2481.281129
393.763125	2480.310707
394.146494	2484.643578
394.529801	2483.037971
394.913047	2485.621562
395.296230	2486.218939
395.679351	2487.214567
396.062410	2484.620893
396.445408	2487.028044
396.828343	2485.863538
397.211217	2484.545276
397.594028	2484.273054
397.976778	2484.782210
398.359466	2488.570637
398.742092	2483.665595
399.124656	2492.288488
399.507158	2492.843015
399.889598	2492.220433
400.271977	2493.846205
400.654294	2493.087511
401.036549	2494.272182
401.418742	2497.785867
401.800874	2496.248315
402.182944	2496.001298
402.564952	2500.273676
402.946898	2498.998264
403.328783	2501.589417
403.710606	2502.406084
404.092367	2503.978924
404.474067	2504.488081
404.855705	2504.039418
405.237282	2505.413132
405.618797	2504.137720
406.000250	2508.838596
406.381642	2511.056704
406.762972	2510.073679
407.144240	2510.487054
407.525447	2513.393279
407.906593	2514.363701
408.287677	2515.485358
408.668700	2518.948630
409.049661	2521.416275
409.430560	2520.980215
409.811399	2521.633045
410.192176	2525.925587
410.572891	2526.288550
410.953545	2530.323994
411.334138	2526.810310
411.714669	2532.723583
412.095139	2531.818696
412.475547	2537.686599
412.855894	2537.338760
413.236180	2544.396375
413.616405	2545.765048
413.996568	2549.112374
414.376670	2553.414999
414.756711	2558.378015
415.136691	2567.038717
415.516609	2571.190108
415.896466	2579.913824
416.276262	2596.663058
416.655997	2603.496342
417.035670	2618.284567
417.415283	2639.245685
417.794834	2655.881492
418.174324	2672.429080
418.553753	2686.272088
418.933121	2711.520707
419.312428	2731.362689
419.691674	2755.976122
420.070859	2795.251752
420.449983	2820.039106
420.829045	2866.689943
421.208047	2898.141702
421.586988	2952.129939
421.965867	3008.104391
422.344686	3057.437123
422.723444	3131.811786
423.102141	3127.778863
423.480777	3243.664907
423.859352	3287.225518
424.237866	3417.499015
424.616319	3480.384889
424.994712	3606.227212
425.373044	3677.473840
425.751314	3825.701407
426.129524	3846.801156
426.507673	4044.409346
426.885762	4120.515646
427.263789	4249.969956
427.641756	4385.771079
428.019662	4506.978061
428.397508	4633.952124
428.775292	4800.708452
429.153016	4932.617804
429.530679	5076.502417
429.908282	5217.485846
430.285824	5307.125123
430.663305	5571.120268
431.040726	5655.040356
431.418086	5765.272746
431.795385	6050.168515
432.172624	6304.003214
432.549802	6369.891095
432.926920	6581.622077
433.303977	6718.640638
433.680974	6952.887934
434.057910	7202.929165
434.434786	7394.818165
434.811601	7555.570479
435.188355	8060.938591
435.565050	8152.395204
435.941683	8322.279568
436.318257	8809.847365
436.694770	8945.015823
437.071222	9362.214153
437.447614	9231.129030
437.823946	9437.496224
438.200218	9694.849649
438.576429	9817.420263
438.952580	10124.557603
439.328670	10311.985182
439.704700	10700.683349
440.080670	10713.286234
440.456580	11183.638491
440.832429	11476.108593
441.208218	11200.848990
441.583947	11612.275199
441.959616	11860.758714
442.335224	12186.450020
442.710773	12457.187708
443.086261	12981.124909
443.461689	12810.650730
443.837057	13092.378133
444.212365	13659.339062
444.587612	13865.930588
444.962800	13813.381600
445.337927	14258.112193
445.712995	13666.827696
446.088002	14992.199975
446.462949	15320.333720
446.837837	15629.311080
447.212664	15809.610468
447.587431	17930.065969
447.962139	20192.001453
448.336786	22090.036205
448.711374	21239.598593
449.085901	18815.209405
449.460369	18959.005798
449.834776	19096.851109
450.209124	21146.934623
450.583412	20997.282930
450.957640	21599.272317
451.331808	20750.614231
451.705917	19864.112204
452.079965	20057.889117
452.453954	20505.369658
452.827883	20585.289591
453.201752	20573.889021
453.575562	20850.464365
453.949311	21912.385944
454.323001	22115.219289
454.696632	22067.388822
455.070202	23509.962886
455.443713	23778.595892
455.817164	24411.391769
456.190556	25014.838049
456.563888	24661.284286
456.937160	25178.274778
457.310373	23847.558876
457.683526	24339.426778
458.056619	24436.836993
458.429653	24494.164995
458.802628	25110.035199
459.175542	25312.926518
459.548398	26579.004744
459.921194	28105.692981
460.293930	28833.519650
460.666607	30782.003749
461.039224	32491.617815
461.411782	32939.456278
461.784280	31906.665007
462.156719	31521.888858
462.529099	31073.432853
462.901419	29954.410125
463.273680	29028.239258
463.645882	29187.300265
464.018024	29237.444622
464.390106	30090.899365
464.762130	32687.328010
465.134094	36635.741184
465.505999	41792.758389
465.877845	46285.318750
466.249631	47459.509345
466.621358	45778.055165
466.993026	43707.023136
467.364634	41715.696791
467.736184	39865.101817
468.107674	38688.262096
468.479105	37972.428332
468.850477	37362.484004
469.221790	36013.685484
469.593043	34403.845936
469.964238	33559.137594
470.335373	33488.846266
470.706449	35131.196215
471.077467	37609.636654
471.448425	42099.106788
471.819324	44947.794771
472.190164	43198.254767
472.560945	39722.270805
472.931667	36723.797538
473.302330	35660.477040
473.672934	34879.299840
474.043479	35379.541098
474.413965	34633.581399
474.784393	34284.778923
475.154761	35147.093494
475.525070	35189.177046
475.895321	34755.733597
476.265513	35350.456161
476.635645	36287.102545
477.005719	36121.810672
477.375734	36577.702379
477.745691	37247.482682
478.115588	38555.341992
478.485427	40481.239202
478.855207	43768.595789
479.224928	46391.825728
479.594591	48015.528450
479.964194	46974.565469
480.333739	47075.388546
480.703226	47103.818133
481.072653	47739.414372
481.442022	48231.645236
481.811333	48521.645173
482.180584	47226.035867
482.549777	46729.774600
482.918912	46209.683799
483.287988	45908.245484
483.657005	45127.491741
484.025964	44471.400691
484.394864	44468.867511
484.763706	44048.425198
485.132489	43190.685474
485.501213	43024.052654
485.869879	43180.139380
486.238487	42790.770740
486.607036	42987.829443
486.975527	42448.977988
487.343959	42665.845906
487.712333	42749.324893
488.080648	42661.800380
488.448905	43092.395577
488.817104	42914.810851
489.185244	43852.830950
489.553326	45505.525347
489.921350	48188.129996
490.289315	51143.939977
490.657222	51776.743417
491.025070	52076.140064
491.392861	51146.268991
491.760593	49846.251196
492.128267	48138.761976
492.495883	46609.588451
492.863440	45249.192756
493.230939	43903.524793
493.598380	42846.722506
493.965763	42533.462686
494.333088	41741.247879
494.700354	41291.478654
495.067563	41013.176714
495.434713	40879.145037
495.801805	40955.173198
496.168839	40600.565834
496.535815	40269.949321
496.902733	40302.305967
497.269593	39892.785313
497.636395	39840.264052
498.003139	40217.750693
498.369825	39687.499446
498.736453	39982.689251
499.103023	39537.310870
499.469535	39420.456924
499.835989	39502.499182
500.202385	39173.601703
500.568723	39193.846977
500.935003	39386.061132
501.301226	39189.625010
501.667390	39782.061410
502.033497	40031.711952
502.399546	39483.057973
502.765537	38821.842590
503.131470	39187.389258
503.497345	39505.511272
503.863163	38226.898216
504.228923	38823.677570
504.594625	39220.023168
504.960269	38526.436016
505.325856	39178.831900
505.691385	38571.408149
506.056856	38694.465235
506.422270	39125.746029
506.787625	38718.030109
507.152924	38898.702542
507.518164	38999.114765
507.883347	38236.899865
508.248472	38475.265784
508.613540	38932.246380
508.978550	39229.722348
509.343503	38971.756423
509.708398	39169.425107
510.073236	39684.643633
510.438016	39691.769304
510.802738	39160.459415
511.167403	39758.269685
511.532010	39993.061425
511.896561	40277.707656
512.261053	41088.365524
512.625488	40656.777220
512.989866	40526.821315
513.354186	40384.441486
513.718449	40365.179237
514.082655	41028.718592
514.446803	40696.546882
514.810894	41213.353372
515.174927	41133.592236
515.538904	41046.070243
515.902822	41689.099663
516.266684	41145.580100
516.630488	41559.491598
516.994235	41415.990113
517.357925	41952.847791
517.721558	42127.730459
518.085133	42425.284565
518.448651	42568.208838
518.812112	42332.411388
519.175516	42448.526805
519.538863	42777.182309
519.902152	42741.546393
520.265385	43192.860732
520.628560	43221.378539
520.991678	43014.335830
521.354739	43241.643978
521.717743	43559.428234
522.080690	43455.497286
522.443580	43997.726314
522.806413	44056.251590
523.169189	43996.012322
523.531908	44175.323643
523.894569	44043.580649
524.257174	44192.695460
524.619722	44492.013969
524.982213	44485.616745
525.344647	44394.732303
525.707025	44446.719202
526.069345	44850.061921
526.431608	44750.804122
526.793815	45055.322582
527.155964	44607.963028
527.518057	44771.911434
527.880093	44569.672944
528.242072	45094.852790
528.603995	44792.814578
528.965860	44785.472138
529.327669	44890.194547
529.689421	44795.446060
530.051117	44767.291216
530.412755	44893.617490
530.774337	44970.976517
531.135862	44767.313901
531.497331	44972.503986
531.858743	44890.202109
532.220098	45209.428135
532.581396	44938.382937
532.942638	44599.468684
533.303824	44898.333490
533.664953	44875.055962
534.026025	44591.002066
534.387040	45051.108178
534.747999	45017.433270
535.108902	45159.959292
535.469748	44702.023397
535.830537	44813.337115
536.191270	45021.249423
536.551947	44654.185368
536.912567	44969.600282
537.273131	45083.550523
537.633638	44595.196306
537.994089	44945.064986
538.354483	44541.986927
538.714821	45104.677999
539.075103	45437.157219
539.435328	45200.878338
539.795497	45097.925373
540.155609	45094.487307
540.515665	45541.181428
540.875665	45004.250653
541.235609	45317.054249
541.595496	45280.586542
541.955328	45961.180120
542.315102	45342.867477
542.674821	45128.782276
543.034483	45166.089335
543.394090	45143.028577
543.753640	45096.266834
544.113134	46096.519977
544.472571	45121.661646
544.831953	46361.689711
545.191278	45569.210244
545.550548	45313.613661
545.909761	45751.657163
546.268918	45958.377238
546.628019	46263.125071
546.987064	45826.810685
547.346053	45138.897351
547.704986	45988.356980
548.063863	45572.330718
548.422684	45750.961484
548.781449	45621.791999
549.140158	46012.728438
549.498811	45877.587707
549.857408	45296.619932
550.215949	46125.642723
550.574434	46057.992959
550.932864	45845.215937
551.291237	46543.453554
551.649555	46161.392065
552.007817	46404.552121
552.366022	46070.542911
552.724173	46234.314876
553.082267	46632.906308
553.440305	46912.503824
553.798288	46260.337312
554.156215	46580.503514
554.514086	46773.418389
554.871902	46520.876746
555.229661	46545.134778
555.587365	46382.663431
555.945014	46485.283679
556.302606	46402.397028
556.660143	46626.476316
557.017625	46705.859366
557.375050	46508.840991
557.732421	46871.400776
558.089735	46833.077924
558.446994	46764.649302
558.804197	47224.084940
559.161345	47158.607913
559.518437	46443.873121
559.875474	46743.473935
560.232455	46923.518745
560.589381	47072.820078
560.946251	46786.601007
561.303065	47452.449209
561.659825	47255.806401
562.016528	46956.014023
562.373177	46673.432144
562.729770	47139.585119
563.086307	46663.435536
563.442789	47124.907800
563.799216	47165.970519
564.155587	46979.084863
564.511904	46986.177767
564.868164	47102.545242
565.224370	47330.370107
565.580520	47065.104592
565.936615	47271.050850
566.292654	47005.583688
566.648638	47227.122235
567.004567	47190.435238
567.360441	47236.244203
567.716260	47091.321112
568.072023	47381.225267
568.427732	47361.799181
568.783385	46927.919672
569.138982	47310.334041
569.494525	47285.748334
569.850013	47051.226295
570.205445	47013.697426
570.560823	46978.545460
570.916145	46857.434259
571.271412	46876.535191
571.626625	46645.902403
571.981782	46698.353088
572.336884	46396.761018
572.691931	46703.454736
573.046923	46308.384550
573.401860	46171.280289
573.756743	46142.991854
574.111570	46248.588903
574.466342	46116.384644
574.821059	46227.897488
575.175722	45760.774090
575.530330	45775.307736
575.884882	45512.950967
576.239380	45458.952647
576.593823	45438.135202
576.948211	45351.008941
577.302544	44886.504422
577.656823	44926.803406
578.011047	45149.844217
578.365216	44876.492691
578.719330	44654.732333
579.073389	44529.905802
579.427394	44600.270228
579.781344	44576.430611
580.135239	44231.202313
580.489080	44326.550697
580.842866	43814.755115
581.196597	44263.049803
581.550273	44205.003437
581.903895	44077.568109
582.257463	44483.814533
582.610975	43874.707037
582.964434	44156.860417
583.317837	43808.793950
583.671186	43644.964012
584.024481	43879.299528
584.377721	43414.195112
584.730906	43679.475751
585.084037	43713.165782
585.437113	43433.948874
585.790135	43475.906397
586.143103	43064.419694
586.496016	43204.790623
586.848874	43212.687590
587.201679	43247.365688
587.554428	42718.427661
587.907124	42914.011828
588.259765	42680.555993
588.612352	42919.594906
588.964884	42311.974550
589.317362	42606.551855
589.669786	42554.287692
590.022155	42326.624143
590.374470	42755.346552
590.726731	42271.047943
591.078937	41789.743779
591.431090	41879.241904
591.783188	41544.078270
592.135232	41232.053532
592.487222	41469.408699
592.839157	41556.255177
593.191038	41236.872875
593.542866	41002.928049
593.894639	40417.914748
594.246358	40691.667046
594.598022	40663.756697
594.949633	40268.436974
595.301190	40240.120813
595.652692	40067.194113
596.004141	40391.612527
596.355535	39421.465155
596.706876	39374.751303
597.058162	39207.337104
597.409395	39668.753916
597.760573	39736.396118
598.111698	39311.169750
598.462768	39327.288839
598.813785	39390.353674
599.164748	38829.283333
599.515657	39229.553469
599.866511	38710.080209
600.217312	39300.545518
600.568060	38298.802714
600.918753	39031.819251
601.269392	38994.502109
601.619978	38643.844489
601.970510	38862.320535
602.320988	39035.506855
602.671412	39338.525571
603.021783	39081.600645
603.372100	38733.919826
603.722363	38845.155406
604.072572	38915.512270
604.422728	38939.021691
604.772830	38746.285776
605.122878	38842.332360
605.472872	38783.272722
605.822813	39046.267198
606.172701	38888.703414
606.522534	39117.173547
606.872314	39365.319304
607.222041	39137.459150
607.571714	39518.119198
607.921333	38988.480451
608.270899	39254.025751
608.620411	39609.341397
608.969870	39406.397146
609.319276	39393.990867
609.668627	39443.283269
610.017926	39935.123444
610.367171	40075.207027
610.716362	40167.979381
611.065500	40124.035643
611.414585	40323.335140
611.763616	40600.160021
612.112594	40532.996728
612.461518	40744.478173
612.810389	41039.839377
613.159207	40908.804665
613.507971	40971.204067
613.856682	41446.741151
614.205340	41331.271002
614.553945	42025.989893
614.902496	41496.731753
615.250994	41950.942235
615.599439	42015.998326
615.947830	42234.187026
616.296169	42273.248406
616.644454	42415.678647
616.992686	42596.275462
617.340864	43092.390536
617.688990	42830.691637
618.037063	43417.280298
618.385082	43388.016400
618.733048	43689.139643
619.080961	43704.532806
619.428821	43706.055235
619.776628	43821.623687
620.124382	43631.186538
620.472083	43768.991520
620.819731	43894.889296
621.167326	43565.510386
621.514868	43557.605857
621.862357	43121.891368
622.209793	43141.327537
622.557176	42808.331599
622.904506	42553.410531
623.251783	42215.917884
623.599007	41989.323060
623.946179	41770.113526
624.293297	41737.489699
624.640363	41152.438589
624.987376	41139.379480
625.334336	40906.034551
625.681243	40550.605479
626.028097	40515.413184
626.374899	40364.055060
626.721647	40346.963028
627.068343	40236.783569
627.414987	40009.447696
627.761577	39773.446078
628.108115	40116.819231
628.454600	39582.008261
628.801032	39757.800857
629.147412	39723.258871
629.493739	39737.210264
629.840014	39378.292713
630.186236	39722.646371
630.532405	39343.796098
630.878521	39571.207589
631.224585	39444.621695
631.570597	39153.293414
631.916556	39332.723203
632.262462	39271.029563
632.608316	39297.109972
632.954117	39178.035397
633.299866	39163.811782
633.645562	39098.969941
633.991206	38604.783108
634.336797	38170.215482
634.682336	38167.614247
635.027823	37921.477390
635.373257	37755.419262
635.718639	37508.826180
636.063968	37370.890128
636.409245	36801.222100
