Dividing Wavelength (nm)	Counts (n)	Blue Motor Position (mm): 5.400000	Red Motor Position (mm): 0.000000	
326.493990	1977.460652
326.888308	1977.460652
327.282561	1977.460652
327.676750	1951.453339
328.070874	1955.587085
328.464933	1960.693774
328.858929	1971.723819
329.252859	1984.064563
329.646726	1996.780874
330.040528	2013.227638
330.434265	2032.631039
330.827938	2048.205684
331.221547	2071.815928
331.615091	2088.366036
332.008571	2108.944026
332.401986	2131.089815
332.795338	2151.609832
333.188625	2173.934582
333.581847	2190.371264
333.975006	2208.441280
334.368100	2222.024669
334.761129	2241.801115
335.154095	2260.604619
335.546996	2272.484098
335.939833	2288.280554
336.332606	2303.267904
336.725315	2312.309214
337.117960	2321.658033
337.510540	2329.980978
337.903056	2337.083964
338.295508	2343.226610
338.687896	2350.523680
339.080220	2360.479959
339.472480	2364.482635
339.864676	2364.855681
340.256807	2369.932123
340.648875	2372.162833
341.040879	2371.262987
341.432818	2374.748945
341.824694	2373.304655
342.216506	2372.757689
342.608253	2376.049563
342.999937	2373.186188
343.391557	2372.629140
343.783113	2370.262318
344.174605	2368.649149
344.566033	2367.008253
344.957397	2365.984899
345.348697	2364.870804
345.739934	2363.585310
346.131106	2364.144878
346.522215	2360.043899
346.913260	2357.321676
347.304241	2354.581809
347.695159	2356.845287
348.086012	2353.515605
348.476802	2352.923270
348.867528	2351.789010
349.258191	2348.313134
349.648789	2348.537466
350.039324	2345.152331
350.429796	2347.088134
350.820203	2345.737105
351.210548	2344.726353
351.600828	2345.076714
351.991045	2342.117556
352.381198	2341.126970
352.771288	2345.472444
353.161314	2343.536641
353.551276	2342.530931
353.941175	2343.030005
354.331010	2344.272650
354.720782	2343.057732
355.110490	2343.831549
355.500135	2344.381034
355.889717	2342.508246
356.279235	2338.886177
356.668689	2345.149810
357.058080	2342.896415
357.447408	2343.516477
357.836672	2340.975735
358.225873	2344.993535
358.615010	2342.909018
359.004084	2347.171313
359.393095	2347.713237
359.782043	2347.209122
360.170927	2347.514112
360.559748	2349.102075
360.948505	2347.312465
361.337199	2347.471262
361.725830	2348.847497
362.114398	2351.786489
362.502903	2350.753053
362.891344	2351.834380
363.279722	2351.388238
363.668037	2349.545697
364.056289	2348.978567
364.444478	2352.923270
364.832603	2353.629031
365.220665	2352.315811
365.608665	2354.435616
365.996601	2353.681963
366.384474	2353.523167
366.772284	2352.938393
367.160031	2356.615915
367.547715	2353.729854
367.935336	2356.726820
368.322893	2355.302694
368.710388	2353.734895
369.097820	2357.427541
369.485189	2355.648013
369.872495	2359.701101
370.259738	2357.230936
370.646918	2358.087932
371.034035	2357.485514
371.421090	2357.523323
371.808081	2359.829650
372.195010	2358.692870
372.581875	2357.306553
372.968678	2358.471059
373.355418	2360.968951
373.742096	2358.095493
374.128710	2360.001050
374.515262	2360.386698
374.901751	2360.714373
375.288177	2357.268744
375.674540	2360.979033
376.060841	2360.137161
376.447079	2360.094311
376.833254	2358.587006
377.219367	2358.408045
377.605417	2359.043230
377.991404	2356.923425
378.377329	2358.148426
378.763191	2355.741275
379.148991	2360.298478
379.534727	2362.004908
379.920402	2363.832327
380.306013	2362.826616
380.691563	2362.685464
381.077049	2364.170084
381.462474	2362.004908
381.847835	2363.572707
382.233134	2361.833509
382.618371	2363.849971
383.003545	2363.955835
383.388657	2364.449868
383.773706	2365.758047
384.158693	2362.141019
384.543618	2365.387523
384.928480	2365.195959
385.313280	2364.046576
385.698017	2366.851978
386.082692	2365.105218
386.467305	2365.863912
386.851856	2367.071268
387.236344	2369.281814
387.620770	2367.323326
388.005133	2365.551360
388.389435	2368.303830
388.773674	2368.830631
389.157851	2369.745600
389.541965	2367.582945
389.926018	2367.240147
390.310008	2368.117307
390.693936	2367.424149
391.077802	2368.021525
391.461606	2368.606299
391.845348	2370.224510
392.229027	2371.764582
392.612645	2370.088398
392.996200	2368.787781
393.379694	2369.808614
393.763125	2368.944057
394.146494	2366.879704
394.529801	2369.327184
394.913047	2371.174767
395.296230	2368.507997
395.679351	2369.480939
396.062410	2370.564788
396.445408	2369.259129
396.828343	2369.296937
397.211217	2367.688809
397.594028	2370.723584
397.976778	2369.453213
398.359466	2372.893801
398.742092	2369.301978
399.124656	2371.774664
399.507158	2371.630992
399.889598	2371.767103
400.271977	2371.557895
400.654294	2375.706764
401.036549	2373.375231
401.418742	2371.091588
401.800874	2373.168543
402.182944	2373.813811
402.564952	2374.527134
402.946898	2371.678882
403.328783	2373.947402
403.710606	2374.595190
404.092367	2374.179295
404.474067	2376.157948
404.855705	2375.250540
405.237282	2374.224665
405.618797	2375.525283
406.000250	2377.017464
406.381642	2374.857330
406.762972	2377.173740
407.144240	2374.811960
407.525447	2375.434542
407.906593	2377.708103
408.287677	2375.159799
408.668700	2377.529142
409.049661	2376.866230
409.430560	2377.544265
409.811399	2375.016126
410.192176	2377.072917
410.572891	2376.122660
410.953545	2378.292876
411.334138	2374.421270
411.714669	2377.793802
412.095139	2378.600387
412.475547	2376.016795
412.855894	2379.855634
413.236180	2377.468648
413.616405	2379.984183
413.996568	2377.869419
414.376670	2381.620038
414.756711	2378.368494
415.136691	2380.145500
415.516609	2380.445449
415.896466	2378.146683
416.276262	2381.879657
416.655997	2375.588297
417.035670	2374.340612
417.415283	2378.355891
417.794834	2373.234078
418.174324	2379.018802
418.553753	2379.661550
418.933121	2380.246323
419.312428	2379.500233
419.691674	2377.564430
420.070859	2379.618700
420.449983	2381.642723
420.829045	2380.793289
421.208047	2381.204143
421.586988	2381.781355
421.965867	2379.691797
422.344686	2380.689945
422.723444	2381.388145
423.102141	2379.719523
423.480777	2381.519215
423.859352	2381.133567
424.237866	2383.084493
424.616319	2382.484596
424.994712	2384.896788
425.373044	2382.429143
425.751314	2382.151880
426.129524	2381.819163
426.507673	2384.753115
426.885762	2382.953423
427.263789	2382.913094
427.641756	2383.646582
428.019662	2381.879657
428.397508	2381.735984
428.775292	2384.808568
429.153016	2384.901829
429.530679	2385.678167
429.908282	2383.807899
430.285824	2385.446274
430.663305	2383.402086
431.040726	2383.780172
431.418086	2384.105327
431.795385	2387.084649
432.172624	2383.495347
432.549802	2384.231356
432.926920	2383.606253
433.303977	2384.271685
433.680974	2382.963505
434.057910	2386.497354
434.434786	2384.483413
434.811601	2384.178423
435.188355	2385.267313
435.565050	2385.640358
435.941683	2385.738661
436.318257	2382.177085
436.694770	2378.555016
437.071222	2382.658516
437.447614	2382.119112
437.823946	2382.121633
438.200218	2383.409648
438.576429	2388.029865
438.952580	2386.353681
439.328670	2388.884341
439.704700	2387.011552
440.080670	2385.390821
440.456580	2385.975595
440.832429	2385.403424
441.208218	2386.457025
441.583947	2386.683877
441.959616	2387.447612
442.335224	2387.160266
442.710773	2385.569782
443.086261	2386.971223
443.461689	2386.063815
443.837057	2388.864176
444.212365	2384.957282
444.587612	2388.468445
444.962800	2388.899464
445.337927	2387.298898
445.712995	2386.328476
446.088002	2391.838457
446.462949	2386.315873
446.837837	2388.415513
447.212664	2389.126316
447.587431	2388.660009
447.962139	2391.533467
448.336786	2391.291492
448.711374	2389.249824
449.085901	2389.390977
449.460369	2389.862324
449.834776	2387.951727
450.209124	2388.586912
450.583412	2387.966851
450.957640	2385.912580
451.331808	2389.519526
451.705917	2387.487941
452.079965	2390.870555
452.453954	2387.886192
452.827883	2391.251162
453.201752	2390.540360
453.575562	2387.513147
453.949311	2388.975081
454.323001	2390.394166
454.696632	2391.165463
455.070202	2391.306615
455.443713	2388.302087
455.817164	2389.194372
456.190556	2386.116747
456.563888	2388.707900
456.937160	2385.862169
457.310373	2391.568755
457.683526	2389.262427
458.056619	2389.403579
458.429653	2390.396687
458.802628	2390.106820
459.175542	2389.963148
459.548398	2386.058774
459.921194	2391.861142
460.293930	2390.875596
460.666607	2390.666388
461.039224	2391.072201
461.411782	2391.757798
461.784280	2393.615463
462.156719	2390.628580
462.529099	2391.004146
462.901419	2390.386604
463.273680	2393.265103
463.645882	2391.009187
464.018024	2392.753426
464.390106	2390.184958
464.762130	2392.342572
465.134094	2390.752088
465.505999	2394.772408
465.877845	2392.415669
466.249631	2391.551111
466.621358	2392.403066
466.993026	2393.108828
467.364634	2395.939435
467.736184	2390.184958
468.107674	2392.173693
468.479105	2394.603530
468.850477	2393.197048
469.221790	2389.726213
469.593043	2394.028838
469.964238	2391.573796
470.335373	2395.213509
470.706449	2393.365926
471.077467	2393.386091
471.448425	2394.079250
471.819324	2393.076060
472.190164	2391.430123
472.560945	2395.334497
472.931667	2391.213354
473.302330	2391.402397
473.672934	2396.529250
474.043479	2394.953890
474.413965	2394.646379
474.784393	2389.098590
475.154761	2392.569424
475.525070	2387.568599
475.895321	2391.583878
476.265513	2388.687736
476.635645	2395.536143
477.005719	2395.493293
477.375734	2395.740310
477.745691	2393.378529
478.115588	2393.368447
478.485427	2394.127141
478.855207	2394.268293
479.224928	2394.495145
479.594591	2394.588406
479.964194	2397.711401
480.333739	2395.016904
480.703226	2395.243756
481.072653	2394.797614
481.442022	2394.147305
481.811333	2395.344579
482.180584	2393.882645
482.549777	2395.952038
482.918912	2390.817623
483.287988	2393.943138
483.657005	2395.581513
484.025964	2394.326266
484.394864	2394.038920
484.763706	2396.990516
485.132489	2395.483211
485.501213	2396.327604
485.869879	2399.402708
486.238487	2398.391957
486.607036	2394.255690
486.975527	2396.693088
487.343959	2396.688047
487.712333	2396.627553
488.080648	2397.623181
488.448905	2396.672923
488.817104	2397.320712
489.185244	2395.168139
489.553326	2396.088149
489.921350	2397.461864
490.289315	2396.088149
490.657222	2397.935732
491.025070	2396.549415
491.392861	2400.683161
491.760593	2397.681154
492.128267	2398.298695
492.495883	2395.894065
492.863440	2397.540002
493.230939	2394.071688
493.598380	2396.025135
493.965763	2393.174363
494.333088	2394.996740
494.700354	2393.403735
495.067563	2397.217368
495.434713	2389.582540
495.801805	2398.916237
496.168839	2396.627553
496.535815	2396.806514
496.902733	2399.662328
497.269593	2396.962790
497.636395	2395.122768
498.003139	2396.897255
498.369825	2398.523027
498.736453	2396.652759
499.103023	2395.737789
499.469535	2396.602347
499.835989	2397.792059
500.202385	2397.608057
500.568723	2396.136040
500.935003	2398.051679
501.301226	2397.524878
501.667390	2399.821124
502.033497	2397.739127
502.399546	2397.575290
502.765537	2397.164436
503.131470	2398.278531
503.497345	2397.844992
503.863163	2399.369941
504.228923	2397.638304
504.594625	2395.692419
504.960269	2396.378016
505.325856	2396.894734
505.691385	2394.669065
506.056856	2397.862636
506.422270	2396.869528
506.787625	2397.202244
507.152924	2398.938922
507.518164	2398.177708
507.883347	2399.478325
508.248472	2394.522871
508.613540	2397.892883
508.978550	2400.892369
509.343503	2396.834240
509.708398	2398.984292
510.073236	2398.586041
510.438016	2399.221227
510.802738	2397.416493
511.167403	2399.125445
511.532010	2397.287944
511.896561	2399.193500
512.261053	2399.957235
512.625488	2398.056720
512.989866	2392.216543
513.354186	2398.502862
513.718449	2395.198386
514.082655	2400.564694
514.446803	2397.729045
514.810894	2397.650907
515.174927	2400.151319
515.538904	2399.047307
515.902822	2400.720970
516.266684	2400.894890
516.630488	2398.109652
516.994235	2399.440517
517.357925	2396.854405
517.721558	2399.178377
518.085133	2399.400187
518.448651	2399.354817
518.812112	2398.202913
519.175516	2398.520506
519.538863	2398.512944
519.902152	2399.213665
520.265385	2399.347255
520.628560	2400.398336
520.991678	2400.068140
521.354739	2400.736093
521.717743	2396.912378
522.080690	2401.313305
522.443580	2398.008829
522.806413	2401.235168
523.169189	2398.565877
523.531908	2399.677451
523.894569	2399.357338
524.257174	2398.911196
524.619722	2398.328942
524.982213	2400.763820
525.344647	2401.058727
525.707025	2400.320198
526.069345	2399.518655
526.431608	2401.086453
526.793815	2400.962945
527.155964	2402.082081
527.518057	2398.717111
527.880093	2403.876732
528.242072	2400.768861
528.603995	2401.832544
528.965860	2402.051834
529.327669	2402.545867
529.689421	2401.164591
530.051117	2403.385220
530.412755	2403.047462
530.774337	2403.604510
531.135862	2403.365055
531.497331	2400.481515
531.858743	2398.487739
532.220098	2404.184243
532.581396	2399.415311
532.942638	2403.959911
533.303824	2404.963101
533.664953	2406.919068
534.026025	2402.790363
534.387040	2403.730539
534.747999	2408.060890
535.108902	2402.939077
535.469748	2407.972670
535.830537	2406.631723
536.191270	2404.869839
536.551947	2404.075858
536.912567	2403.208779
537.273131	2404.345559
537.633638	2406.039387
537.994089	2405.726836
538.354483	2402.994530
538.714821	2406.394788
539.075103	2408.164233
539.435328	2406.692217
539.795497	2405.764644
540.155609	2408.146589
540.515665	2408.449059
540.875665	2409.835376
541.235609	2408.796898
541.595496	2409.336302
541.955328	2409.066600
542.315102	2405.958729
542.674821	2403.594428
543.034483	2410.067269
543.394090	2407.975190
543.753640	2406.709861
544.113134	2409.641292
544.472571	2409.908473
544.831953	2408.683472
545.191278	2411.970305
545.550548	2410.309244
545.909761	2410.329409
546.268918	2409.318658
546.628019	2412.880233
546.987064	2411.811508
547.346053	2415.148752
547.704986	2412.978535
548.063863	2413.122208
548.422684	2415.758732
548.781449	2408.509553
549.140158	2412.706313
549.498811	2411.446025
549.857408	2412.355953
550.215949	2410.805798
550.574434	2407.387896
550.932864	2411.544327
551.291237	2410.820922
551.649555	2413.240675
552.007817	2415.920049
552.366022	2417.815522
552.724173	2413.812846
553.082267	2417.434915
553.440305	2413.883422
553.798288	2415.557086
554.156215	2414.853845
554.514086	2416.910635
554.871902	2415.438618
555.229661	2413.908628
555.587365	2414.730336
555.945014	2419.658064
556.302606	2412.741601
556.660143	2415.587333
557.017625	2417.886099
557.375050	2415.783937
557.732421	2416.053639
558.089735	2418.574216
558.446994	2419.063208
558.804197	2417.203022
559.161345	2417.324010
559.518437	2417.989442
559.875474	2418.458270
560.232455	2417.109761
560.589381	2416.298135
560.946251	2420.537746
561.303065	2420.540266
561.659825	2419.244690
562.016528	2417.631520
562.373177	2419.897519
562.729770	2416.761921
563.086307	2416.968609
563.442789	2418.334761
563.799216	2422.092942
564.155587	2418.596901
564.511904	2420.600760
564.868164	2416.025913
565.224370	2418.244021
565.580520	2417.704617
565.936615	2417.054308
566.292654	2417.165214
566.648638	2418.387693
567.004567	2415.776376
567.360441	2417.505492
567.716260	2417.414751
568.072023	2418.591860
568.427732	2412.350912
568.783385	2415.375604
569.138982	2409.719429
569.494525	2413.666653
569.850013	2411.196488
570.205445	2416.051119
570.560823	2414.831159
570.916145	2415.738567
571.271412	2416.250244
571.626625	2416.711510
571.981782	2415.448701
572.336884	2418.304514
572.691931	2416.640934
573.046923	2415.398289
573.401860	2414.937024
573.756743	2415.075655
574.111570	2416.966088
574.466342	2414.034657
574.821059	2415.783938
575.175722	2416.101530
575.530330	2414.954668
575.884882	2413.913669
576.239380	2415.652867
576.593823	2416.797209
576.948211	2414.894174
577.302544	2412.121539
577.656823	2416.416602
578.011047	2414.102713
578.365216	2411.677918
578.719330	2412.852507
579.073389	2413.303690
579.427394	2415.105902
579.781344	2412.300500
580.135239	2413.097002
580.489080	2412.499626
580.842866	2415.257137
581.196597	2414.087589
581.550273	2413.359142
581.903895	2414.455593
582.257463	2413.840573
582.610975	2411.761097
582.964434	2408.600293
583.317837	2414.170768
583.671186	2415.368042
584.024481	2411.597259
584.377721	2410.899059
584.730906	2408.166754
585.084037	2409.144738
585.437113	2410.667166
585.790135	2408.769172
586.143103	2411.229255
586.496016	2410.861251
586.848874	2404.244736
587.201679	2408.875036
587.554428	2407.556774
587.907124	2408.562485
588.259765	2402.961763
588.612352	2409.169944
588.964884	2410.828483
589.317362	2408.317989
589.669786	2407.624830
590.022155	2409.026271
590.374470	2407.070303
590.726731	2408.817063
591.078937	2407.350087
591.431090	2409.679100
591.783188	2407.995355
592.135232	2407.967628
592.487222	2406.951836
592.839157	2407.813873
593.191038	2406.722463
593.542866	2408.247412
593.894639	2408.680952
594.246358	2407.849161
594.598022	2405.585683
594.949633	2407.594583
595.301190	2407.042577
595.652692	2409.669018
596.004141	2408.416291
596.355535	2407.564336
596.706876	2406.372103
597.058162	2403.599469
597.409395	2406.437638
597.760573	2405.898235
598.111698	2406.004099
598.462768	2408.862433
598.813785	2404.461506
599.164748	2406.835889
599.515657	2408.517114
599.866511	2404.663152
600.217312	2406.697258
600.568060	2405.109294
600.918753	2407.760941
601.269392	2403.808677
601.619978	2404.665673
601.970510	2407.521486
602.320988	2406.097360
602.671412	2405.041239
603.021783	2406.046949
603.372100	2405.431928
603.722363	2408.209604
604.072572	2404.960580
604.422728	2406.530900
604.772830	2404.390930
605.122878	2402.233316
605.472872	2407.725653
605.822813	2401.086453
606.172701	2406.919068
606.522534	2405.573080
606.872314	2404.070817
607.222041	2404.789181
607.571714	2408.249933
607.921333	2405.197514
608.270899	2408.007958
608.620411	2404.244736
608.969870	2406.979562
609.319276	2408.738925
609.668627	2404.426218
610.017926	2401.575445
610.367171	2406.457803
610.716362	2404.073337
611.065500	2404.070817
611.414585	2404.940416
611.763616	2406.271280
612.112594	2404.731208
612.461518	2406.750190
612.810389	2407.937382
613.159207	2405.986455
613.507971	2402.923954
613.856682	2402.223234
614.205340	2406.893863
614.553945	2407.307237
614.902496	2406.377144
615.250994	2404.524520
615.599439	2406.503173
615.947830	2404.955539
616.296169	2407.415622
616.644454	2407.924779
616.992686	2406.354459
617.340864	2406.188101
617.688990	2406.631723
618.037063	2407.496281
618.385082	2406.208266
618.733048	2405.205076
619.080961	2405.815056
619.428821	2405.936043
619.776628	2408.058369
620.124382	2403.506207
620.472083	2407.975190
620.819731	2406.571229
621.167326	2406.102402
621.514868	2405.308420
621.862357	2404.050652
622.209793	2408.070972
622.557176	2405.810015
622.904506	2406.596435
623.251783	2400.468912
623.599007	2403.188615
623.946179	2400.766340
624.293297	2405.300858
624.640363	2408.086096
624.987376	2406.170457
625.334336	2406.175498
625.681243	2406.992165
626.028097	2407.075344
626.374899	2408.335633
626.721647	2406.044428
627.068343	2407.045097
627.414987	2407.372772
627.761577	2406.147772
628.108115	2405.560478
628.454600	2407.085427
628.801032	2407.972670
629.147412	2408.330592
629.493739	2406.893863
629.840014	2406.064593
630.186236	2406.730025
630.532405	2407.861764
630.878521	2407.544172
631.224585	2407.110632
631.570597	2408.711199
631.916556	2409.144738
632.262462	2410.616755
632.608316	2410.200860
632.954117	2408.857392
633.299866	2411.380490
633.645562	2409.487536
633.991206	2412.013154
634.336797	2410.321847
634.682336	2409.999213
635.027823	2408.880077
635.373257	2413.591036
635.718639	2411.786302
636.063968	2411.899728
636.409245	2410.059707
636.754470	2410.581467
637.099642	2413.643968
637.444762	2409.976528
637.789829	2412.204718
638.134845	2411.047773
638.479808	2414.281674
638.824719	2410.052146
639.169577	2412.497105
639.514383	2413.742270
639.859137	2412.189595
640.203839	2411.947619
640.548489	2411.834193
640.893086	2411.478792
641.237632	2409.694224
641.582125	2411.229255
641.926566	2412.313103
642.270955	2413.913669
642.615292	2415.930131
642.959576	2417.109761
643.303809	2414.508526
643.647990	2416.905594
643.992118	2418.102868
644.336195	2418.790986
