Dividing Wavelength (nm)	Counts (n)	Blue Motor Position (mm): 48.400000	Red Motor Position (mm): 0.000000	
326.493990	1975.847482
326.888308	1975.847482
327.282561	1975.847482
327.676750	1951.758329
328.070874	1953.540377
328.464933	1956.527260
328.858929	1969.432614
329.252859	1982.660602
329.646726	1996.072592
330.040528	2008.856958
330.434265	2029.109793
330.827938	2051.250541
331.221547	2070.863150
331.615091	2089.724627
332.008571	2110.746239
332.401986	2130.878087
332.795338	2152.645789
333.188625	2170.554488
333.581847	2191.165246
333.975006	2210.916486
334.368100	2227.789228
334.761129	2243.585684
335.154095	2259.309043
335.546996	2300.699436
335.939833	2383.613814
336.332606	2402.772719
336.725315	2411.561971
337.117960	2421.157807
337.510540	2426.912285
337.903056	2439.386620
338.295508	2444.407609
338.687896	2454.681481
339.080220	2456.518981
339.472480	2466.240846
339.864676	2468.501804
340.256807	2471.294603
340.648875	2474.223513
341.040879	2474.389872
341.432818	2474.689820
341.824694	2478.629482
342.216506	2478.609317
342.608253	2475.640078
342.999937	2475.173771
343.391557	2474.694861
343.783113	2474.951960
344.174605	2469.983903
344.566033	2470.735035
344.957397	2469.164716
345.348697	2465.973665
345.739934	2464.148768
346.131106	2464.965434
346.522215	2462.646504
346.913260	2459.231122
347.304241	2457.610391
347.695159	2457.600309
348.086012	2456.443364
348.476802	2453.446398
348.867528	2452.334823
349.258191	2451.581171
349.648789	2451.089658
350.039324	2451.308949
350.429796	2451.104782
350.820203	2448.064966
351.210548	2449.957919
351.600828	2449.413475
351.991045	2447.780141
352.381198	2446.187136
352.771288	2448.561520
353.161314	2446.988680
353.551276	2446.562702
353.941175	2445.219235
354.331010	2447.321396
354.720782	2450.666202
355.110490	2450.167127
355.500135	2447.195367
355.889717	2449.330296
356.279235	2449.345419
356.668689	2449.083279
357.058080	2449.093362
357.447408	2446.303083
357.836672	2448.354832
358.225873	2451.021603
358.615010	2449.292487
359.004084	2454.530246
359.393095	2456.881944
359.782043	2454.885647
360.170927	2456.314814
360.559748	2455.109979
360.948505	2458.595937
361.337199	2459.503344
361.725830	2460.556945
362.114398	2461.592903
362.502903	2461.686164
362.891344	2464.267235
363.279722	2459.478138
363.668037	2463.649693
364.056289	2461.676082
364.444478	2464.277317
364.832603	2466.223202
365.220665	2466.336628
365.608665	2470.876187
365.996601	2467.037349
366.384474	2466.886114
366.772284	2472.547330
367.160031	2469.600775
367.547715	2473.875674
367.935336	2470.485498
368.322893	2476.797023
368.710388	2473.825262
369.097820	2478.016982
369.485189	2475.347691
369.872495	2480.018320
370.259738	2480.154431
370.646918	2482.453197
371.034035	2481.134935
371.421090	2482.843887
371.808081	2484.187354
372.195010	2487.146511
372.581875	2485.364463
372.968678	2488.893271
373.355418	2491.996101
373.742096	2495.464415
374.128710	2502.363234
374.515262	2502.723677
374.901751	2508.921775
375.288177	2517.610204
375.674540	2522.686646
376.060841	2533.847761
376.447079	2545.631458
376.833254	2560.586041
377.219367	2571.301013
377.605417	2590.608632
377.991404	2606.460541
378.377329	2632.059520
378.763191	2654.419558
379.148991	2685.621779
379.534727	2719.190823
379.920402	2751.141656
380.306013	2785.424023
380.691563	2828.725014
381.077049	2870.160778
381.462474	2915.523601
381.847835	2968.619553
382.233134	3027.941331
382.618371	3076.303641
383.003545	3140.356542
383.388657	3209.705174
383.773706	3284.359622
384.158693	3345.344980
384.543618	3429.892692
384.928480	3500.912468
385.313280	3589.367073
385.698017	3680.503573
386.082692	3788.028864
386.467305	3849.823328
386.851856	3961.542859
387.236344	4104.053758
387.620770	4167.547090
388.005133	4282.107312
388.389435	4418.220986
388.773674	4505.589223
389.157851	4635.038492
389.541965	4758.256895
389.926018	4803.884379
390.310008	4976.422910
390.693936	5099.109471
391.077802	5220.560950
391.461606	5352.001475
391.845348	5470.866841
392.229027	5604.490186
392.612645	5817.209234
392.996200	5943.192710
393.379694	6119.864987
393.763125	6345.199523
394.146494	6451.356141
394.529801	6600.758297
394.913047	6847.379105
395.296230	6867.387444
395.679351	6939.672549
396.062410	7202.548558
396.445408	7131.128011
396.828343	7301.786192
397.211217	7453.620704
397.594028	7364.112497
397.976778	7578.406906
398.359466	7752.422496
398.742092	7749.627176
399.124656	7915.559275
399.507158	8108.993390
399.889598	8144.788103
400.271977	8364.284982
400.654294	8411.402127
401.036549	8618.160010
401.418742	8653.059918
401.800874	8961.933935
402.182944	9060.773318
402.564952	9420.086600
402.946898	9257.093493
403.328783	9316.460641
403.710606	9520.849183
404.092367	9781.323081
404.474067	10146.224482
404.855705	9943.905334
405.237282	9903.939066
405.618797	10331.343213
406.000250	10578.642056
406.381642	10943.646800
406.762972	10892.675694
407.144240	10708.744154
407.525447	10958.424943
407.906593	10895.526466
408.287677	11154.122535
408.668700	11306.141050
409.049661	11285.429469
409.430560	11439.242635
409.811399	11416.023080
410.192176	11577.965106
410.572891	11658.999134
410.953545	12126.283848
411.334138	11614.395005
411.714669	12197.565764
412.095139	11533.822243
412.475547	12018.423321
412.855894	11876.358564
413.236180	12186.931450
413.616405	11878.692618
413.996568	12150.120944
414.376670	12130.296607
414.756711	12010.866631
415.136691	12278.929987
415.516609	12453.444651
415.896466	12520.040814
416.276262	12805.561685
416.655997	13256.064399
417.035670	13288.383236
417.415283	13929.862501
417.794834	14018.559083
418.174324	13764.537861
418.553753	13663.142613
418.933121	14150.113033
419.312428	13971.540241
419.691674	13871.710271
420.070859	14324.463860
420.449983	13981.378052
420.829045	14524.491803
421.208047	14274.344708
421.586988	14729.976796
421.965867	14970.366737
422.344686	14974.709691
422.723444	15524.563465
423.102141	14230.385847
423.480777	15405.612399
423.859352	14911.289455
424.237866	16009.371230
424.616319	15709.190683
424.994712	16359.197060
425.373044	16164.560631
425.751314	16828.785582
426.129524	15958.569002
426.507673	17029.700769
426.885762	16740.131851
427.263789	16919.060045
427.641756	17098.124350
428.019662	17150.232237
428.397508	17200.328703
428.775292	17484.251529
429.153016	17447.809028
429.530679	17519.789143
429.908282	17546.877783
430.285824	17278.116227
430.663305	17971.726064
431.040726	17567.967450
431.418086	17399.870175
431.795385	18049.604330
432.172624	18460.228996
432.549802	18019.238939
432.926920	18210.759936
433.303977	18093.419518
433.680974	18339.548814
434.057910	18629.755438
434.434786	18658.033790
434.811601	18564.802691
435.188355	19595.448951
435.565050	19251.228884
435.941683	19191.234112
436.318257	20064.611495
436.694770	19878.426560
437.071222	20466.908175
437.447614	19551.048988
437.823946	19576.375745
438.200218	19725.707325
438.576429	19506.550723
438.952580	19779.872002
439.328670	19741.302134
439.704700	20150.847993
440.080670	19724.036183
440.456580	20306.899431
440.832429	20480.819239
441.208218	19497.111163
441.583947	19921.838457
441.959616	20033.182422
442.335224	20264.722618
442.710773	20391.336238
443.086261	20924.261817
443.461689	20292.171700
443.837057	20424.938049
444.212365	21053.035571
444.587612	21051.029192
444.962800	20641.223713
445.337927	21050.648585
445.712995	19797.644590
446.088002	21627.946400
446.462949	21813.334832
446.837837	21972.418524
447.212664	21932.825302
447.587431	24692.975500
447.962139	27583.184946
448.336786	29971.650871
448.711374	28465.036509
449.085901	24837.263405
449.460369	24750.631176
449.834776	24664.946684
450.209124	27103.398170
450.583412	26673.198704
450.957640	27202.020783
451.331808	25865.434458
451.705917	24524.336301
452.079965	24537.586974
452.453954	24890.185438
452.827883	24793.833865
453.201752	24595.845068
453.575562	24746.003397
453.949311	25849.471645
454.323001	25903.285962
454.696632	25668.426166
455.070202	27198.355865
455.443713	27349.146858
455.817164	27912.452951
456.190556	28448.277193
456.563888	27903.648576
456.937160	28335.168824
457.310373	26691.704780
457.683526	27121.324513
458.056619	27105.233150
458.429653	27050.710551
458.802628	27602.033821
459.175542	27721.741060
459.548398	29011.464819
459.921194	30556.107125
460.293930	31224.249052
460.666607	33221.408013
461.039224	34985.227085
461.411782	35387.329681
461.784280	34209.300247
462.156719	33718.664908
462.529099	33148.321364
462.901419	31872.254091
463.273680	30816.207978
463.645882	30892.233619
464.018024	30864.270339
464.390106	31668.823369
464.762130	34334.976212
465.134094	38333.195986
465.505999	43603.366931
465.877845	48188.371971
466.249631	49382.301204
466.621358	47664.275973
466.993026	45549.985803
467.364634	43484.700690
467.736184	41521.062882
468.107674	40272.757243
468.479105	39504.261066
468.850477	38808.869181
469.221790	37395.251504
469.593043	35673.755439
469.964238	34791.460255
470.335373	34690.531314
470.706449	36363.349997
471.077467	38859.983960
471.448425	43400.107608
471.819324	46286.422763
472.190164	44503.437224
472.560945	40962.737450
472.931667	37873.525934
473.302330	36780.760056
473.672934	35956.619623
474.043479	36452.747299
474.413965	35661.157596
474.784393	35292.828211
475.154761	36171.415626
475.525070	36207.573302
475.895321	35753.720742
476.265513	36342.456935
476.635645	37302.632905
477.005719	37125.005329
477.375734	37582.739578
477.745691	38267.862632
478.115588	39576.347045
478.485427	41516.931657
478.855207	44818.227035
479.224928	47436.441025
479.594591	49095.106670
479.964194	48095.541644
480.333739	48231.398219
480.703226	48259.386706
481.072653	48886.985154
481.442022	49375.230986
481.811333	49656.242545
482.180584	48378.723420
482.549777	47854.304788
482.918912	47331.199377
483.287988	47026.544806
483.657005	46211.405353
484.025964	45576.547643
484.394864	45580.086533
484.763706	45144.228372
485.132489	44295.262776
485.501213	44121.748781
485.869879	44272.123880
486.238487	43861.229512
486.607036	44055.455087
486.975527	43526.234757
487.343959	43743.944547
487.712333	43812.567254
488.080648	43718.917739
488.448905	44156.260520
488.817104	43968.376716
489.185244	44919.264361
489.553326	46545.890952
489.921350	49260.675806
490.289315	52175.314684
490.657222	52818.306295
491.025070	53111.618270
491.392861	52216.115263
491.760593	50962.740744
492.128267	49269.603689
492.495883	47752.133203
492.863440	46362.488733
493.230939	45033.015477
493.598380	43938.371769
493.965763	43593.367802
494.333088	42793.175370
494.700354	42330.384844
495.067563	42035.742005
495.434713	41911.449836
495.801805	41982.719148
496.168839	41604.143618
496.535815	41283.480863
496.902733	41313.538743
497.269593	40907.453636
497.636395	40849.324091
498.003139	41244.815213
498.369825	40709.167411
498.736453	40986.955153
499.103023	40532.545545
499.469535	40419.278380
499.835989	40505.124189
500.202385	40188.567453
500.568723	40188.698523
500.935003	40391.824256
501.301226	40189.477382
501.667390	40814.429224
502.033497	41064.558675
502.399546	40495.704793
502.765537	39824.913738
503.131470	40211.923119
503.497345	40545.554242
503.863163	39228.083973
504.228923	39842.467036
504.594625	40240.362789
504.960269	39543.236747
505.325856	40221.841589
505.691385	39600.665571
506.056856	39726.260878
506.422270	40166.666161
506.787625	39727.788348
507.152924	39937.018918
507.518164	40037.758816
507.883347	39272.809090
508.248472	39513.723312
508.613540	39981.146658
508.978550	40267.103589
509.343503	40036.891737
509.708398	40219.744469
510.073236	40755.568712
510.438016	40749.579821
510.802738	40209.515968
511.167403	40835.155928
511.532010	41051.444113
511.896561	41355.208921
512.261053	42198.203270
512.625488	41746.752819
512.989866	41615.652572
513.354186	41456.616771
513.718449	41458.736577
514.082655	42137.401913
514.446803	41811.158601
514.810894	42324.373268
515.174927	42253.834923
515.538904	42161.659945
515.902822	42824.168384
516.266684	42265.169957
516.630488	42689.514123
516.994235	42543.797051
517.357925	43107.125829
517.721558	43278.320893
518.085133	43571.174123
518.448651	43718.272471
518.812112	43496.461702
519.175516	43603.992034
519.538863	43931.326756
519.902152	43885.124581
520.265385	44348.290673
520.628560	44394.208023
520.991678	44185.635324
521.354739	44427.202375
521.717743	44738.516310
522.080690	44643.344367
522.443580	45192.504981
522.806413	45231.636938
523.169189	45166.457339
523.531908	45366.573503
523.894569	45218.298045
524.257174	45380.484567
524.619722	45686.137287
524.982213	45675.855853
525.344647	45589.339571
525.707025	45641.628939
526.069345	46036.033693
526.431608	45943.263859
526.793815	46281.668955
527.155964	45810.326112
527.518057	45985.808677
527.880093	45756.143790
528.242072	46294.365101
528.603995	45980.039076
528.965860	45992.016858
529.327669	46096.136849
529.689421	45985.962432
530.051117	45945.582790
530.412755	46083.486074
530.774337	46159.577250
531.135862	45970.012221
531.497331	46164.227714
531.858743	46076.352841
532.220098	46417.855726
532.581396	46124.263967
532.942638	45804.072560
533.303824	46086.490602
533.664953	46062.686273
534.026025	45771.970493
534.387040	46258.711540
534.747999	46203.737758
535.108902	46365.563837
535.469748	45885.209931
535.830537	46005.968251
536.191270	46193.007662
536.551947	45858.209511
536.912567	46162.271747
537.273131	46270.109589
537.633638	45768.958403
537.994089	46122.126518
538.354483	45724.200519
538.714821	46276.776515
539.075103	46630.209291
539.435328	46400.244455
539.795497	46277.358768
540.155609	46276.942873
540.515665	46724.471306
540.875665	46192.821139
541.235609	46520.690223
541.595496	46484.968607
541.955328	47148.661717
542.315102	46510.461722
542.674821	46315.288410
543.034483	46346.208327
543.394090	46309.972513
543.753640	46270.583458
544.113134	47270.700490
544.472571	46302.221739
544.831953	47533.011889
545.191278	46746.612054
545.550548	46467.775752
545.909761	46912.521468
546.268918	47110.038917
546.628019	47426.386444
546.987064	46986.119793
547.346053	46269.575227
547.704986	47140.532856
548.063863	46708.505972
548.422684	46895.621000
548.781449	46739.882113
549.140158	47156.810742
549.498811	46989.832603
549.857408	46434.978005
550.215949	47263.842000
550.574434	47188.859878
550.932864	46957.932182
551.291237	47668.044236
551.649555	47288.079868
552.007817	47535.640851
552.366022	47156.432656
552.724173	47351.701750
553.082267	47744.148015
553.440305	48044.200012
553.798288	47365.007875
554.156215	47663.469389
554.514086	47875.197850
554.871902	47616.548849
555.229661	47635.916962
555.587365	47457.341649
555.945014	47555.606341
556.302606	47473.584247
556.660143	47706.465390
557.017625	47797.644740
557.375050	47580.948221
557.732421	47909.472655
558.089735	47903.708096
558.446994	47840.386162
558.804197	48293.417015
559.161345	48217.882886
559.518437	47492.806167
559.875474	47786.344993
560.232455	47948.274417
560.589381	48119.802197
560.946251	47830.195470
561.303065	48494.790946
561.659825	48308.739602
562.016528	47981.823295
562.373177	47691.052062
562.729770	48174.145835
563.086307	47690.442082
563.442789	48153.227567
563.799216	48197.025112
564.155587	47994.766458
564.511904	48013.849746
564.868164	48105.228221
565.224370	48357.749699
565.580520	48071.923838
565.936615	48298.410277
566.292654	48025.736787
566.648638	48239.310310
567.004567	48216.368019
567.360441	48248.946476
567.716260	48091.884287
568.072023	48395.603724
568.427732	48384.175428
568.783385	47933.047611
569.138982	48325.952622
569.494525	48294.188311
569.850013	48045.674550
570.205445	48026.893731
570.560823	47998.383486
570.916145	47858.015078
571.271412	47888.514058
571.626625	47641.779824
571.981782	47692.773616
572.336884	47386.896565
572.691931	47714.644662
573.046923	47317.011050
573.401860	47170.757094
573.756743	47152.603899
574.111570	47266.218904
574.466342	47123.390413
574.821059	47230.048625
575.175722	46764.427491
575.530330	46778.517516
575.884882	46492.225348
576.239380	46468.937738
576.593823	46446.555015
576.948211	46356.462034
577.302544	45883.561474
577.656823	45906.221461
578.011047	46126.066180
578.365216	45858.267485
578.719330	45670.033321
579.073389	45508.623136
579.427394	45599.774759
579.781344	45569.230408
580.135239	45219.293673
580.489080	45301.603112
580.842866	44780.186488
581.196597	45238.739924
581.550273	45172.521847
581.903895	45042.913782
582.257463	45456.941227
582.610975	44853.845307
582.964434	45118.815915
583.317837	44770.106701
583.671186	44611.645591
584.024481	44832.985013
584.377721	44364.409762
584.730906	44655.911963
585.084037	44692.084763
585.437113	44385.239810
585.790135	44437.347697
586.143103	44030.796283
586.496016	44158.914688
586.848874	44178.184498
587.201679	44200.108476
587.554428	43682.545814
587.907124	43881.789858
588.259765	43628.613029
588.612352	43875.851379
588.964884	43283.873724
589.317362	43546.361563
589.669786	43493.847864
590.022155	43260.727266
590.374470	43694.488307
590.726731	43235.357659
591.078937	42727.930236
591.431090	42818.539936
591.783188	42494.197138
592.135232	42160.344204
592.487222	42416.142433
592.839157	42504.876823
593.191038	42164.835872
593.542866	41943.448560
593.894639	41337.441374
594.246358	41618.286575
594.598022	41593.317740
594.949633	41200.130425
595.301190	41163.481237
595.652692	40990.398261
596.004141	41330.671104
596.355535	40333.679588
596.706876	40300.521398
597.058162	40120.602617
597.409395	40599.905443
597.760573	40670.423623
598.111698	40245.111556
598.462768	40255.055232
598.813785	40303.906533
599.164748	39749.440104
599.515657	40126.178133
599.866511	39616.756934
600.217312	40234.454556
600.568060	39196.551556
600.918753	39939.670565
601.269392	39890.756249
601.619978	39553.528262
601.970510	39768.299060
602.320988	39938.080081
602.671412	40244.806566
603.021783	39974.729269
603.372100	39639.512703
603.722363	39739.078012
604.072572	39807.892283
604.422728	39825.422895
604.772830	39639.222837
605.122878	39734.593906
605.472872	39674.820944
605.822813	39938.367426
606.172701	39771.870718
606.522534	40026.771621
606.872314	40282.383327
607.222041	40037.317715
607.571714	40416.049521
607.921333	39869.129699
608.270899	40167.694556
608.620411	40487.485191
608.969870	40299.314042
609.319276	40292.584101
609.668627	40335.650679
610.017926	40812.483339
610.367171	40984.449699
610.716362	41052.878322
611.065500	41009.055571
611.414585	41194.938037
611.763616	41480.141316
612.112594	41406.769842
612.461518	41636.195274
612.810389	41915.883531
613.159207	41786.146916
613.507971	41856.415559
613.856682	42338.259126
614.205340	42212.285733
614.553945	42907.107967
614.902496	42363.104453
615.250994	42834.079292
615.599439	42911.314810
615.947830	43102.467803
616.296169	43147.278619
616.644454	43277.859627
616.992686	43438.916931
617.340864	43960.026045
617.688990	43676.935010
618.037063	44271.818890
618.385082	44246.930713
618.733048	44564.518364
619.080961	44566.920474
619.428821	44566.164301
619.776628	44677.803174
620.124382	44515.142783
620.472083	44648.415767
620.819731	44780.741015
621.167326	44445.269870
621.514868	44424.777580
621.862357	43985.927493
622.209793	44022.546435
622.557176	43701.185480
622.904506	43449.954537
623.251783	43103.370169
623.599007	42877.909604
623.946179	42659.506655
624.293297	42613.420427
624.640363	42016.003367
624.987376	42001.595749
625.334336	41760.679007
625.681243	41403.724985
626.028097	41361.122194
626.374899	41219.032232
626.721647	41182.957735
627.068343	41076.342372
627.414987	40829.262819
627.761577	40612.583945
628.108115	40945.617691
628.454600	40403.393704
628.801032	40578.876269
629.147412	40535.139219
629.493739	40538.816740
629.840014	40180.005054
630.186236	40521.076920
630.532405	40134.518722
630.878521	40339.360968
631.224585	40221.329912
631.570597	39929.699162
631.916556	40098.260223
632.262462	40042.439527
632.608316	40058.183050
632.954117	39963.071601
633.299866	39954.113470
633.645562	39871.932580
633.991206	39363.118840
634.336797	38944.546795
634.682336	38963.884662
635.027823	38701.021256
