Dividing Wavelength (nm)	Counts (n)	Blue Motor Position (mm): 0.800000	Red Motor Position (mm): 0.000000	
326.493990	1980.152628
326.888308	1980.152628
327.282561	1980.152628
327.676750	1955.622373
328.070874	1959.587241
328.464933	1965.626543
328.858929	1970.854220
329.252859	1985.037506
329.646726	1997.630308
330.040528	2015.518843
330.434265	2035.121369
330.827938	2051.689122
331.221547	2071.442883
331.615091	2092.890472
332.008571	2114.138935
332.401986	2137.237502
332.795338	2156.086377
333.188625	2176.193019
333.581847	2193.864783
333.975006	2212.307845
334.368100	2230.057748
334.761129	2245.639954
335.154095	2262.245515
335.546996	2277.187495
335.939833	2288.824998
336.332606	2303.862760
336.725315	2311.343833
337.117960	2320.430513
337.510540	2328.924857
337.903056	2338.286279
338.295508	2342.621672
338.687896	2352.454442
339.080220	2356.517612
339.472480	2363.618078
339.864676	2367.272914
340.256807	2369.228882
340.648875	2371.968749
341.040879	2372.878677
341.432818	2374.428832
341.824694	2376.029398
342.216506	2375.300952
342.608253	2373.070241
342.999937	2373.551671
343.391557	2373.942361
343.783113	2369.705271
344.174605	2367.527492
344.566033	2367.983717
344.957397	2366.078161
345.348697	2362.922398
345.739934	2362.211596
346.131106	2365.805938
346.522215	2360.951307
346.913260	2357.026769
347.304241	2355.194309
347.695159	2352.482169
348.086012	2353.376973
348.476802	2348.882785
348.867528	2350.238855
349.258191	2350.632065
349.648789	2348.971005
350.039324	2347.783813
350.429796	2343.897084
350.820203	2346.785665
351.210548	2344.365911
351.600828	2343.529079
351.991045	2345.268278
352.381198	2344.633092
352.771288	2342.271312
353.161314	2341.207628
353.551276	2345.646364
353.941175	2343.433298
354.331010	2344.993535
354.720782	2343.224090
355.110490	2344.333143
355.500135	2343.917248
355.889717	2345.462362
356.279235	2344.363390
356.668689	2343.229131
357.058080	2345.391786
357.447408	2341.323575
357.836672	2342.314161
358.225873	2344.194512
358.615010	2341.126970
359.004084	2347.196519
359.393095	2346.357167
359.782043	2347.962774
360.170927	2345.669049
360.559748	2346.697445
360.948505	2348.255161
361.337199	2349.039061
361.725830	2348.983608
362.114398	2350.841273
362.502903	2351.725996
362.891344	2349.580985
363.279722	2348.923114
363.668037	2352.099041
364.056289	2353.636593
364.444478	2353.578620
364.832603	2353.140039
365.220665	2353.258506
365.608665	2352.676253
365.996601	2353.639113
366.384474	2354.670029
366.772284	2354.967458
367.160031	2357.132633
367.547715	2355.985771
367.935336	2357.737572
368.322893	2355.761439
368.710388	2353.765142
369.097820	2357.795545
369.485189	2354.627180
369.872495	2357.034331
370.259738	2357.553569
370.646918	2358.191275
371.034035	2357.465349
371.421090	2359.988447
371.808081	2360.401821
372.195010	2359.355782
372.581875	2358.592047
372.968678	2360.028776
373.355418	2358.511389
373.742096	2359.512058
374.128710	2361.039527
374.515262	2359.733868
374.901751	2360.984075
375.288177	2357.785463
375.674540	2357.944259
376.060841	2361.830988
376.447079	2359.509537
376.833254	2361.145392
377.219367	2356.399145
377.605417	2358.990298
377.991404	2356.321007
378.377329	2358.445854
378.763191	2357.082222
379.148991	2364.144878
379.534727	2359.696060
379.920402	2361.457943
380.306013	2361.067254
380.691563	2363.877697
381.077049	2363.313088
381.462474	2363.111442
381.847835	2362.690505
382.233134	2364.454909
382.618371	2364.273428
383.003545	2363.451719
383.388657	2364.835516
383.773706	2365.412728
384.158693	2364.099508
384.543618	2364.528006
384.928480	2366.075640
385.313280	2364.608664
385.698017	2365.654704
386.082692	2364.311236
386.467305	2365.238808
386.851856	2364.951463
387.236344	2365.538757
387.620770	2367.068747
388.005133	2365.954652
388.389435	2369.337267
388.773674	2367.434231
389.157851	2370.005219
389.541965	2364.941380
389.926018	2368.593696
390.310008	2369.304499
390.693936	2367.262832
391.077802	2366.859539
391.461606	2368.586135
391.845348	2370.443800
392.229027	2368.621423
392.612645	2366.889786
392.996200	2370.975642
393.379694	2369.238964
393.763125	2372.745087
394.146494	2368.639067
394.529801	2370.612678
394.913047	2370.935312
395.296230	2371.794829
395.679351	2367.167050
396.062410	2369.705271
396.445408	2370.965559
396.828343	2372.727443
397.211217	2366.163860
397.594028	2369.813656
397.976778	2367.920702
398.359466	2371.076465
398.742092	2368.036649
399.124656	2372.293903
399.507158	2373.476054
399.889598	2373.407998
400.271977	2372.659387
400.654294	2373.453369
401.036549	2372.067051
401.418742	2373.372710
401.800874	2374.340612
402.182944	2372.198121
402.564952	2373.685262
402.946898	2371.285673
403.328783	2372.387165
403.710606	2375.300952
404.092367	2374.244830
404.474067	2375.628627
404.855705	2372.838348
405.237282	2375.744573
405.618797	2374.678369
406.000250	2373.876826
406.381642	2375.172402
406.762972	2373.281969
407.144240	2375.989069
407.525447	2375.817670
407.906593	2373.768441
408.287677	2377.561909
408.668700	2377.148534
409.049661	2375.666435
409.430560	2377.831611
409.811399	2375.903369
410.192176	2376.954450
410.572891	2374.126363
410.953545	2378.658360
411.334138	2379.222969
411.714669	2376.210880
412.095139	2379.336395
412.475547	2376.974615
412.855894	2376.611652
413.236180	2377.133411
413.616405	2380.425284
413.996568	2380.863865
414.376670	2380.332023
414.756711	2378.696169
415.136691	2380.241282
415.516609	2381.567106
415.896466	2377.932434
416.276262	2380.223638
416.655997	2378.008051
417.035670	2376.142824
417.415283	2380.107692
417.794834	2374.794316
418.174324	2380.972250
418.553753	2380.521066
418.933121	2380.372352
419.312428	2381.383104
419.691674	2381.229348
420.070859	2379.225490
420.449983	2383.409648
420.829045	2382.988711
421.208047	2379.774976
421.586988	2381.768752
421.965867	2383.626417
422.344686	2383.112219
422.723444	2383.767569
423.102141	2383.155069
423.480777	2382.492158
423.859352	2383.074411
424.237866	2380.954606
424.616319	2383.263454
424.994712	2380.392517
425.373044	2383.250851
425.751314	2383.034082
426.129524	2379.301107
426.507673	2382.524925
426.885762	2381.995604
427.263789	2385.118599
427.641756	2382.512322
428.019662	2384.639689
428.397508	2385.683208
428.775292	2382.822353
429.153016	2380.931920
429.530679	2383.674308
429.908282	2386.509957
430.285824	2383.712117
430.663305	2382.736653
431.040726	2380.344626
431.418086	2385.254710
431.795385	2384.677498
432.172624	2384.604401
432.549802	2383.631458
432.926920	2384.022148
433.303977	2383.825543
433.680974	2384.478372
434.057910	2384.851418
434.434786	2382.416540
434.811601	2382.877806
435.188355	2387.107334
435.565050	2384.737992
435.941683	2384.523743
436.318257	2383.737323
436.694770	2381.410830
437.071222	2386.630945
437.447614	2379.225490
437.823946	2385.194216
438.200218	2387.170348
438.576429	2386.000801
438.952580	2386.467107
439.328670	2386.925852
439.704700	2388.307128
440.080670	2387.606408
440.456580	2385.826881
440.832429	2387.233363
441.208218	2388.110523
441.583947	2389.620349
441.959616	2386.129350
442.335224	2387.588764
442.710773	2385.930224
443.086261	2384.821171
443.461689	2387.114896
443.837057	2388.758312
444.212365	2385.980636
444.587612	2391.021790
444.962800	2387.596326
445.337927	2387.182951
445.712995	2389.118754
446.088002	2387.593805
446.462949	2387.283774
446.837837	2387.682025
447.212664	2386.872920
447.587431	2389.504403
447.962139	2389.060781
448.336786	2389.360730
448.711374	2387.480379
449.085901	2388.927190
449.460369	2390.585730
449.834776	2388.576830
450.209124	2389.345606
450.583412	2388.193703
450.957640	2386.250338
451.331808	2389.640514
451.705917	2387.490462
452.079965	2389.678322
452.453954	2388.387787
452.827883	2389.582540
453.201752	2389.645555
453.575562	2389.912736
453.949311	2391.183107
454.323001	2390.794938
454.696632	2390.096738
455.070202	2390.938611
455.443713	2388.841491
455.817164	2390.174876
456.190556	2385.335368
456.563888	2388.239073
456.937160	2385.007693
457.310373	2387.064484
457.683526	2389.098590
458.056619	2389.554814
458.429653	2389.159083
458.802628	2387.734958
459.175542	2389.968189
459.548398	2388.874258
459.921194	2391.470453
460.293930	2390.928528
460.666607	2387.739999
461.039224	2392.229146
461.411782	2391.510782
461.784280	2393.330638
462.156719	2391.717469
462.529099	2394.941287
462.901419	2391.878786
463.273680	2391.157901
463.645882	2389.121275
464.018024	2391.581358
464.390106	2389.816954
464.762130	2394.192676
465.134094	2389.587582
465.505999	2394.154867
465.877845	2391.818292
466.249631	2393.323077
466.621358	2393.401214
466.993026	2395.493293
467.364634	2396.761143
467.736184	2392.796276
468.107674	2392.929867
468.479105	2393.512120
468.850477	2394.492624
469.221790	2395.407594
469.593043	2394.379198
469.964238	2392.884496
470.335373	2391.808210
470.706449	2393.083622
471.077467	2390.207643
471.448425	2392.143447
471.819324	2394.918602
472.190164	2394.159908
472.560945	2393.862480
472.931667	2393.988509
473.302330	2392.513971
473.672934	2397.635784
474.043479	2393.171842
474.413965	2390.520195
474.784393	2390.971378
475.154761	2390.888199
475.525070	2389.149001
475.895321	2394.462377
476.265513	2388.970040
476.635645	2393.486914
477.005719	2392.987840
477.375734	2395.069836
477.745691	2392.854249
478.115588	2393.141595
478.485427	2393.842315
478.855207	2394.099414
479.224928	2395.299209
479.594591	2392.302243
479.964194	2395.737789
480.333739	2394.754764
480.703226	2393.494476
481.072653	2396.128479
481.442022	2394.283416
481.811333	2395.039589
482.180584	2394.583365
482.549777	2391.772922
482.918912	2394.537995
483.287988	2397.476987
483.657005	2394.049003
484.025964	2394.515309
484.394864	2394.721997
484.763706	2395.941956
485.132489	2394.464898
485.501213	2395.263921
485.869879	2393.491955
486.238487	2397.534961
486.607036	2395.710063
486.975527	2394.941287
487.343959	2394.724517
487.712333	2394.656462
488.080648	2394.447254
488.448905	2396.040258
488.817104	2396.965310
489.185244	2396.299878
489.553326	2395.110166
489.921350	2394.162429
490.289315	2395.498334
490.657222	2395.208468
491.025070	2393.028169
491.392861	2398.041597
491.760593	2395.699981
492.128267	2395.594116
492.495883	2397.776936
492.863440	2396.425907
493.230939	2397.214847
493.598380	2395.397511
493.965763	2393.207130
494.333088	2396.816596
494.700354	2391.974568
495.067563	2394.827861
495.434713	2393.683519
495.801805	2395.757954
496.168839	2395.147974
496.535815	2398.233160
496.902733	2396.841802
497.269593	2397.797101
497.636395	2394.676626
498.003139	2393.504558
498.369825	2393.791904
498.736453	2394.943808
499.103023	2395.037069
499.469535	2396.904816
499.835989	2393.476832
500.202385	2396.519168
500.568723	2394.913561
500.935003	2396.554456
501.301226	2397.988664
501.667390	2394.764847
502.033497	2396.693088
502.399546	2396.599827
502.765537	2397.008160
503.131470	2395.543705
503.497345	2397.071174
503.863163	2396.168808
504.228923	2396.143602
504.594625	2396.567059
504.960269	2393.635628
505.325856	2397.600496
505.691385	2396.224261
506.056856	2397.502193
506.422270	2397.025804
506.787625	2395.904147
507.152924	2397.673592
507.518164	2399.511093
507.883347	2397.058572
508.248472	2397.134189
508.613540	2398.298695
508.978550	2397.383726
509.343503	2397.787018
509.708398	2394.515309
510.073236	2399.420352
510.438016	2398.689385
510.802738	2397.935732
511.167403	2398.727193
511.532010	2397.716442
511.896561	2399.243912
512.261053	2396.912378
512.625488	2394.306102
512.989866	2391.777963
513.354186	2393.489435
513.718449	2393.202089
514.082655	2398.485218
514.446803	2396.055382
514.810894	2397.313150
515.174927	2397.865156
515.538904	2401.010836
515.902822	2394.805176
516.266684	2399.417832
516.630488	2398.321381
516.994235	2398.255846
517.357925	2396.012532
517.721558	2396.501524
518.085133	2399.448078
518.448651	2401.348593
518.812112	2395.906668
519.175516	2398.568397
519.538863	2395.042110
519.902152	2396.375495
520.265385	2397.315670
520.628560	2399.022101
520.991678	2397.779457
521.354739	2396.357851
521.717743	2395.843653
522.080690	2398.860784
522.443580	2397.976062
522.806413	2400.418501
523.169189	2397.844992
523.531908	2397.597975
523.894569	2398.734755
524.257174	2399.306926
524.619722	2395.896586
524.982213	2397.968500
525.344647	2398.402039
525.707025	2399.624519
526.069345	2398.588562
526.431608	2398.492780
526.793815	2399.644683
527.155964	2399.168294
527.518057	2396.977913
527.880093	2401.419170
528.242072	2398.951525
528.603995	2398.906154
528.965860	2399.853891
529.327669	2400.017729
529.689421	2396.940104
530.051117	2395.442882
530.412755	2398.162584
530.774337	2400.463871
531.135862	2399.349776
531.497331	2395.505896
531.858743	2394.941287
532.220098	2396.826678
532.581396	2394.449774
532.942638	2392.778632
533.303824	2397.943294
533.664953	2400.998233
534.026025	2397.159395
534.387040	2399.080074
534.747999	2399.599313
535.108902	2400.153840
535.469748	2399.863974
535.830537	2399.634601
536.191270	2399.926988
536.551947	2400.973027
536.912567	2400.368089
537.273131	2399.430434
537.633638	2400.148799
537.994089	2398.092008
538.354483	2396.897255
538.714821	2398.969169
539.075103	2399.579148
539.435328	2400.315157
539.795497	2398.281051
540.155609	2398.931360
540.515665	2399.213665
540.875665	2398.308778
541.235609	2401.991341
541.595496	2398.354148
541.955328	2398.878428
542.315102	2397.822306
542.674821	2398.205434
543.034483	2400.017729
543.394090	2397.953376
543.753640	2401.182235
544.113134	2399.115362
544.472571	2399.412790
544.831953	2399.682492
545.191278	2402.097205
545.550548	2397.469426
545.909761	2401.083933
546.268918	2397.988664
546.628019	2400.239540
546.987064	2399.019580
547.346053	2398.812893
547.704986	2395.402552
548.063863	2399.233829
548.422684	2400.695764
548.781449	2399.279200
549.140158	2399.362379
549.498811	2401.008316
549.857408	2400.037893
550.215949	2398.409601
550.574434	2400.211813
550.932864	2398.006308
551.291237	2393.928015
551.649555	2398.548233
552.007817	2397.986144
552.366022	2399.571587
552.724173	2398.608726
553.082267	2399.248953
553.440305	2399.672410
553.798288	2400.899931
554.156215	2397.698798
554.514086	2403.251629
554.871902	2397.298026
555.229661	2402.692061
555.587365	2399.858933
555.945014	2399.032183
556.302606	2402.187946
556.660143	2399.952194
557.017625	2400.715929
557.375050	2400.143758
557.732421	2401.678789
558.089735	2401.882956
558.446994	2402.578635
558.804197	2399.685013
559.161345	2399.090157
559.518437	2400.118552
559.875474	2399.972358
560.232455	2398.437327
560.589381	2400.370610
560.946251	2401.225085
561.303065	2400.950342
561.659825	2400.408418
562.016528	2400.660476
562.373177	2401.726680
562.729770	2398.391957
563.086307	2402.066958
563.442789	2396.877090
563.799216	2398.611247
564.155587	2397.265259
564.511904	2400.322719
564.868164	2398.938922
565.224370	2401.053686
565.580520	2400.322719
565.936615	2399.637122
566.292654	2398.434807
566.648638	2400.332801
567.004567	2398.460012
567.360441	2401.358676
567.716260	2403.047462
568.072023	2399.697616
568.427732	2395.959600
568.783385	2397.908006
569.138982	2395.417676
569.494525	2397.277862
569.850013	2394.452295
570.205445	2400.647873
570.560823	2399.311967
570.916145	2399.548902
571.271412	2400.516803
571.626625	2401.482184
571.981782	2400.277348
572.336884	2401.845147
572.691931	2398.802811
573.046923	2400.458830
573.401860	2399.059910
573.756743	2398.427245
574.111570	2399.606875
574.466342	2401.857750
574.821059	2401.043604
575.175722	2400.854560
575.530330	2403.337329
575.884882	2402.762637
576.239380	2400.259704
576.593823	2399.863974
576.948211	2402.674417
577.302544	2399.818603
577.656823	2399.909344
578.011047	2400.998233
578.365216	2400.358007
578.719330	2400.854560
579.073389	2399.584190
579.427394	2399.843809
579.781344	2402.389592
580.135239	2399.748027
580.489080	2400.065620
580.842866	2400.753737
581.196597	2408.202042
581.550273	2400.988151
581.903895	2399.664848
582.257463	2401.010836
582.610975	2401.504869
582.964434	2403.876732
583.317837	2401.981258
583.671186	2402.397153
584.024481	2400.794067
584.377721	2401.041083
584.730906	2400.670558
585.084037	2401.472102
585.437113	2400.133675
585.790135	2400.443706
586.143103	2397.567728
586.496016	2400.468912
586.848874	2394.469939
587.201679	2397.335835
587.554428	2396.844323
587.907124	2398.986813
588.259765	2394.517830
588.612352	2400.373130
588.964884	2401.787174
589.317362	2399.876577
589.669786	2401.565363
590.022155	2399.974879
590.374470	2401.991341
590.726731	2399.178377
591.078937	2399.117883
591.431090	2402.664335
591.783188	2399.551422
592.135232	2398.472615
592.487222	2398.719632
592.839157	2401.280538
593.191038	2402.240878
593.542866	2400.940260
593.894639	2402.177863
594.246358	2401.462019
594.598022	2400.728532
594.949633	2401.625857
595.301190	2400.274828
595.652692	2400.315157
596.004141	2404.126269
596.355535	2399.720301
596.706876	2401.593089
597.058162	2398.545712
597.409395	2401.855229
597.760573	2403.680127
598.111698	2398.840619
598.462768	2401.945970
598.813785	2400.632750
599.164748	2400.100908
599.515657	2400.481515
599.866511	2400.264745
600.217312	2400.267266
600.568060	2399.448078
600.918753	2403.735580
601.269392	2400.605023
601.619978	2401.313305
601.970510	2398.069323
602.320988	2400.229457
602.671412	2402.717267
603.021783	2399.969838
603.372100	2399.841288
603.722363	2400.688202
604.072572	2399.599313
604.422728	2399.652245
604.772830	2397.804662
605.122878	2396.577141
605.472872	2400.920095
605.822813	2396.320042
606.172701	2402.387071
606.522534	2398.618809
606.872314	2400.032852
607.222041	2398.941443
607.571714	2402.422359
607.921333	2401.792215
608.270899	2401.096536
608.620411	2396.007491
608.969870	2402.316495
609.319276	2399.599313
609.668627	2401.187277
610.017926	2396.708211
610.367171	2401.391443
610.716362	2400.269787
611.065500	2401.313305
611.414585	2400.907493
611.763616	2401.527554
612.112594	2397.298026
612.461518	2400.657955
612.810389	2400.544529
613.159207	2398.936401
613.507971	2400.095867
613.856682	2401.497308
614.205340	2400.877246
614.553945	2399.894221
614.902496	2400.070661
615.250994	2400.892369
615.599439	2399.730383
615.947830	2399.289282
616.296169	2401.572925
616.644454	2398.964128
616.992686	2400.970507
617.340864	2402.959242
617.688990	2399.591751
618.037063	2400.181566
618.385082	2400.758778
618.733048	2401.265414
619.080961	2398.197872
619.428821	2400.574776
619.776628	2402.097205
620.124382	2400.433624
620.472083	2400.209293
620.819731	2400.078223
621.167326	2398.765002
621.514868	2401.807338
621.862357	2400.315157
622.209793	2402.099725
622.557176	2401.000754
622.904506	2401.706515
623.251783	2396.758623
623.599007	2400.572256
623.946179	2397.189642
624.293297	2398.293654
624.640363	2398.638973
624.987376	2400.920095
625.334336	2399.339694
625.681243	2399.611916
626.028097	2403.049983
626.374899	2398.228119
626.721647	2397.681154
627.068343	2399.990003
627.414987	2399.100239
627.761577	2400.710887
628.108115	2401.386402
628.454600	2400.942781
628.801032	2403.304561
629.147412	2399.997564
629.493739	2400.668038
629.840014	2401.235167
630.186236	2398.318860
630.532405	2402.513100
630.878521	2401.698954
631.224585	2398.762482
631.570597	2396.836761
631.916556	2400.458830
632.262462	2401.729201
632.608316	2402.850857
632.954117	2398.301216
633.299866	2401.005795
633.645562	2397.429096
633.991206	2400.846999
634.336797	2399.463202
634.682336	2399.987482
635.027823	2399.478325
635.373257	2399.170815
635.718639	2398.666700
636.063968	2402.046793
636.409245	2401.396484
636.754470	2400.368089
637.099642	2399.869015
637.444762	2399.632081
637.789829	2398.500342
638.134845	2399.800959
638.479808	2398.535630
638.824719	2400.083264
639.169577	2401.792215
639.514383	2399.846330
639.859137	2399.390105
640.203839	2402.336660
640.548489	2396.367933
640.893086	2399.400188
641.237632	2395.452964
641.582125	2396.504045
641.926566	2396.332645
642.270955	2401.588048
642.615292	2400.907492
642.959576	2400.229457
643.303809	2397.875238
643.647990	2400.428583
643.992118	2399.944632
644.336195	2401.799777
