Dividing Wavelength (nm)	Counts (n)	Blue Motor Position (mm): 40.400000	Red Motor Position (mm): 0.000000	
326.493990	1972.694241
326.888308	1972.694241
327.282561	1972.694241
327.676750	1947.186002
328.070874	1947.528801
328.464933	1953.300922
328.858929	1961.762499
329.252859	1977.178347
329.646726	1991.389360
330.040528	2004.962667
330.434265	2026.800945
330.827938	2043.346012
331.221547	2062.267983
331.615091	2084.007959
332.008571	2106.877153
332.401986	2126.661162
332.795338	2145.038688
333.188625	2167.355876
333.581847	2184.652075
333.975006	2202.805270
334.368100	2222.942159
334.761129	2237.755589
335.154095	2252.448032
335.546996	2294.902109
335.939833	2373.687782
336.332606	2392.703015
336.725315	2404.610220
337.117960	2413.361663
337.510540	2419.408527
337.903056	2429.712646
338.295508	2435.459561
338.687896	2441.166147
339.080220	2448.329627
339.472480	2455.820781
339.864676	2461.290433
340.256807	2465.144395
340.648875	2464.118521
341.040879	2465.882924
341.432818	2466.936526
341.824694	2469.595734
342.216506	2467.349900
342.608253	2470.069603
342.999937	2465.610702
343.391557	2465.613223
343.783113	2463.690023
344.174605	2460.877059
344.566033	2461.098869
344.957397	2459.130299
345.348697	2459.778087
345.739934	2456.085442
346.131106	2456.783642
346.522215	2457.670885
346.913260	2451.626541
347.304241	2452.138218
347.695159	2448.090172
348.086012	2447.717127
348.476802	2445.282249
348.867528	2445.496498
349.258191	2442.302927
349.648789	2443.895932
350.039324	2439.356373
350.429796	2441.503904
350.820203	2439.883173
351.210548	2438.937957
351.600828	2435.283121
351.991045	2437.642381
352.381198	2436.971907
352.771288	2440.523400
353.161314	2435.575508
353.551276	2437.728080
353.941175	2434.131217
354.331010	2437.808739
354.720782	2439.512649
355.110490	2440.382248
355.500135	2437.526434
355.889717	2436.850919
356.279235	2437.541557
356.668689	2439.376538
357.058080	2440.674635
357.447408	2438.403595
357.836672	2435.971238
358.225873	2438.627926
358.615010	2437.226485
359.004084	2443.253185
359.393095	2442.262598
359.782043	2445.458690
360.170927	2444.742846
360.559748	2444.926848
360.948505	2446.971036
361.337199	2448.319544
361.725830	2448.599328
362.114398	2449.642847
362.502903	2447.328958
362.891344	2449.678135
363.279722	2447.545727
363.668037	2451.508074
364.056289	2452.092848
364.444478	2452.294494
364.832603	2449.836932
365.220665	2453.685853
365.608665	2451.510595
365.996601	2455.515792
366.384474	2450.693928
366.772284	2456.947479
367.160031	2456.037551
367.547715	2456.738271
367.935336	2455.712397
368.322893	2456.453446
368.710388	2460.362861
369.097820	2460.791359
369.485189	2459.347068
369.872495	2464.385702
370.259738	2461.320680
370.646918	2463.057358
371.034035	2461.129116
371.421090	2460.294805
371.808081	2463.566514
372.195010	2464.055506
372.581875	2463.445527
372.968678	2463.712708
373.355418	2466.170270
373.742096	2466.591207
374.128710	2466.649180
374.515262	2470.576239
374.901751	2471.150930
375.288177	2469.038687
375.674540	2471.050107
376.060841	2471.939871
376.447079	2472.973307
376.833254	2471.599593
377.219367	2469.651187
377.605417	2475.854327
377.991404	2472.771661
378.377329	2474.082361
378.763191	2474.097485
379.148991	2478.952116
379.534727	2477.591004
379.920402	2480.018320
380.306013	2481.603763
380.691563	2480.109061
381.077049	2482.329689
381.462474	2483.831953
381.847835	2482.911942
382.233134	2484.915801
382.618371	2487.877479
383.003545	2489.457880
383.388657	2489.168014
383.773706	2493.858808
384.158693	2490.158601
384.543618	2493.100114
384.928480	2491.522233
385.313280	2494.720845
385.698017	2497.468274
386.082692	2500.147647
386.467305	2501.236536
386.851856	2502.338028
387.236344	2505.818945
387.620770	2507.359018
388.005133	2506.557474
388.389435	2509.796416
388.773674	2514.391427
389.157851	2516.299504
389.541965	2519.515760
389.926018	2520.052643
390.310008	2525.819723
390.693936	2534.671989
391.077802	2542.447969
391.461606	2548.935934
391.845348	2559.149312
392.229027	2569.781105
392.612645	2586.661409
392.996200	2602.278903
393.379694	2625.959724
393.763125	2647.276243
394.146494	2668.653256
394.529801	2697.939839
394.913047	2734.420149
395.296230	2758.887389
395.679351	2789.346040
396.062410	2838.393947
396.445408	2874.108001
396.828343	2919.932090
397.211217	2973.660707
397.594028	3013.664784
397.976778	3083.935948
398.359466	3154.406237
398.742092	3207.139227
399.124656	3289.002524
399.507158	3378.956874
399.889598	3447.869447
400.271977	3551.666804
400.654294	3631.369967
401.036549	3746.073861
401.418742	3831.959999
401.800874	3979.441476
402.182944	4086.591201
402.564952	4266.270527
402.946898	4320.165503
403.328783	4427.955454
403.710606	4587.523097
404.092367	4760.729581
404.474067	4987.299200
404.855705	5035.406931
405.237282	5134.011900
405.618797	5391.440942
406.000250	5606.743581
406.381642	5867.550196
406.762972	5982.750644
407.144240	6027.989958
407.525447	6266.696155
407.906593	6366.798347
408.287677	6614.200533
408.668700	6821.644014
409.049661	6944.927952
409.430560	7163.121693
409.811399	7291.383771
410.192176	7501.544433
410.572891	7686.058226
410.953545	8099.112728
411.334138	7938.236906
411.714669	8421.582737
412.095139	8155.482910
412.475547	8582.960154
412.855894	8618.157490
413.236180	8954.851114
413.616405	8886.863593
413.996568	9191.840798
414.376670	9307.807501
414.756711	9342.200773
415.136691	9661.888064
415.516609	9906.051310
415.896466	10072.086753
416.276262	10394.609694
416.655997	10849.757830
417.035670	10995.374080
417.415283	11601.590474
417.794834	11793.643312
418.174324	11709.713142
418.553753	11735.738098
418.933121	12238.472207
419.312428	12185.905575
419.691674	12215.484545
420.070859	12709.706665
420.449983	12500.357628
420.829045	13088.221702
421.208047	12950.210033
421.586988	13433.875977
421.965867	13740.226896
422.344686	13818.241273
422.723444	14401.306168
423.102141	13288.108493
423.480777	14430.559983
423.859352	14050.255337
424.237866	15117.460045
424.616319	14908.511780
424.994712	15578.236630
425.373044	15430.649289
425.751314	16118.245030
426.129524	15345.514283
426.507673	16401.482259
426.885762	16179.116962
427.263789	16387.276287
427.641756	16593.376300
428.019662	16687.918100
428.397508	16752.825476
428.775292	17049.051238
429.153016	17052.088533
429.530679	17148.659397
429.908282	17194.198660
430.285824	16953.261753
430.663305	17648.661200
431.040726	17289.300027
431.418086	17140.540618
431.795385	17773.696938
432.172624	18186.506945
432.549802	17771.567051
432.926920	17970.175910
433.303977	17867.051546
433.680974	18124.967059
434.057910	18419.672913
434.434786	18457.920147
434.811601	18368.681642
435.188355	19391.746006
435.565050	19056.743689
435.941683	19025.443165
436.318257	19875.008658
436.694770	19697.491987
437.071222	20282.417068
437.447614	19388.285254
437.823946	19396.976203
438.200218	19557.315142
438.576429	19342.851855
438.952580	19618.003073
439.328670	19580.043185
439.704700	19981.959257
440.080670	19575.102854
440.456580	20148.844135
440.832429	20316.328910
441.208218	19350.045582
441.583947	19777.684142
441.959616	19881.857065
442.335224	20115.426326
442.710773	20238.458206
443.086261	20762.571848
443.461689	20141.852054
443.837057	20271.886097
444.212365	20892.648741
444.587612	20897.062271
444.962800	20493.059161
445.337927	20904.629043
445.712995	19664.805145
446.088002	21477.767906
446.462949	21667.703459
446.837837	21836.985406
447.212664	21796.217594
447.587431	24570.137704
447.962139	27450.837014
448.336786	29813.842591
448.711374	28275.325287
449.085901	24658.627598
449.460369	24587.300312
449.834776	24506.102447
450.209124	26938.156709
450.583412	26507.654773
450.957640	27027.508640
451.331808	25694.877100
451.705917	24351.545712
452.079965	24385.291195
452.453954	24732.006633
452.827883	24633.225224
453.201752	24443.151039
453.575562	24589.117648
453.949311	25680.804719
454.323001	25750.980102
454.696632	25517.090728
455.070202	27041.765023
455.443713	27188.606273
455.817164	27757.581143
456.190556	28288.260888
456.563888	27728.128202
456.937160	28168.505758
457.310373	26526.233946
457.683526	26948.067617
458.056619	26924.598526
458.429653	26870.282613
458.802628	27435.625332
459.175542	27568.953769
459.548398	28842.891155
459.921194	30424.464954
460.293930	31086.812075
460.666607	33090.582509
461.039224	34835.169579
461.411782	35198.568716
461.784280	34000.276364
462.156719	33486.587829
462.529099	32915.162958
462.901419	31627.833747
463.273680	30589.600551
463.645882	30684.545642
464.018024	30667.118373
464.390106	31512.958454
464.762130	34199.185172
465.134094	38262.806355
465.505999	43539.122466
465.877845	48098.382334
466.249631	49213.435153
466.621358	47423.515507
466.993026	45252.106543
467.364634	43151.908919
467.736184	41203.230735
468.107674	39970.098969
468.479105	39201.685971
468.850477	38512.731639
469.221790	37093.805628
469.593043	35399.194036
469.964238	34525.499060
470.335373	34437.233498
470.706449	36100.786540
471.077467	38633.033735
471.448425	43194.574724
471.819324	46054.910293
472.190164	44254.210139
472.560945	40697.235000
472.931667	37606.007023
473.302330	36503.665473
473.672934	35702.260644
474.043479	36192.177618
474.413965	35408.442033
474.784393	35064.347995
475.154761	35930.330005
475.525070	35971.044884
475.895321	35513.214854
476.265513	36099.493484
476.635645	37074.066990
477.005719	36888.824751
477.375734	37339.430808
477.745691	38047.342398
478.115588	39354.344712
478.485427	41312.825420
478.855207	44653.966078
479.224928	47268.285777
479.594591	48890.183766
479.964194	47858.514152
480.333739	47963.571798
480.703226	47978.720465
481.072653	48629.319178
481.442022	49135.221651
481.811333	49395.083050
482.180584	48101.528014
482.549777	47579.430834
482.918912	47067.736074
483.287988	46751.640605
483.657005	45942.747141
484.025964	45298.636393
484.394864	45307.922199
484.763706	44867.582451
485.132489	43995.359492
485.501213	43845.556565
485.869879	43984.087472
486.238487	43596.158081
486.607036	43794.028411
486.975527	43262.002678
487.343959	43462.786794
487.712333	43563.539295
488.080648	43464.967093
488.448905	43908.676852
488.817104	43704.618506
489.185244	44669.263459
489.553326	46328.168558
489.921350	49055.624353
490.289315	51993.152590
490.657222	52622.059217
491.025070	52896.285384
491.392861	51978.573573
491.760593	50696.638397
492.128267	48976.037136
492.495883	47444.136347
492.863440	46053.987762
493.230939	44717.073762
493.598380	43643.635668
493.965763	43326.582379
494.333088	42510.303625
494.700354	42048.992678
495.067563	41765.369800
495.434713	41627.516928
495.801805	41702.851931
496.168839	41344.597292
496.535815	41014.736952
496.902733	41066.370970
497.269593	40645.331280
497.636395	40585.558319
498.003139	40973.023924
498.369825	40434.953848
498.736453	40740.256207
499.103023	40288.737701
499.469535	40156.813225
499.835989	40260.552610
500.202385	39911.772819
500.568723	39939.574783
500.935003	40121.444490
501.301226	39932.824678
501.667390	40545.123224
502.033497	40795.169496
502.399546	40225.206560
502.765537	39550.039784
503.131470	39924.665570
503.497345	40267.572417
503.863163	38955.642375
504.228923	39562.937576
504.594625	39955.673708
504.960269	39265.789283
505.325856	39936.839957
505.691385	39307.736724
506.056856	39440.792939
506.422270	39871.831757
506.787625	39453.597470
507.152924	39643.301130
507.518164	39748.888097
507.883347	38973.803132
508.248472	39220.144156
508.613540	39686.796205
508.978550	39976.886883
509.343503	39732.711035
509.708398	39934.901633
510.073236	40456.489657
510.438016	40452.708792
510.802738	39908.037324
511.167403	40526.730574
511.532010	40751.639132
511.896561	41042.448174
512.261053	41869.394010
512.625488	41419.004722
512.989866	41296.305558
513.354186	41136.596763
513.718449	41134.925621
514.082655	41796.231744
514.446803	41476.857004
514.810894	41985.718635
515.174927	41912.964703
515.538904	41814.410145
515.902822	42469.223262
516.266684	41924.934923
516.630488	42356.495500
516.994235	42199.508928
517.357925	42760.022222
517.721558	42931.585290
518.085133	43234.263729
518.448651	43364.973286
518.812112	43141.851817
519.175516	43247.607663
519.538863	43589.481073
519.902152	43540.602045
520.265385	43994.515099
520.628560	44026.687743
520.991678	43842.738560
521.354739	44072.005195
521.717743	44390.021345
522.080690	44291.885203
522.443580	44829.551987
522.806413	44880.245830
523.169189	44837.378378
523.531908	45010.887332
523.894569	44869.427514
524.257174	45030.447009
524.619722	45321.263612
524.982213	45327.955744
525.344647	45244.607827
525.707025	45294.868131
526.069345	45689.885384
526.431608	45607.674248
526.793815	45931.863290
527.155964	45482.741852
527.518057	45643.887376
527.880093	45436.272496
528.242072	45956.675849
528.603995	45668.848649
528.965860	45666.149112
529.327669	45758.566064
529.689421	45661.549059
530.051117	45635.907230
530.412755	45767.932528
530.774337	45845.843561
531.135862	45646.266801
531.497331	45865.163783
531.858743	45781.253777
532.220098	46121.045191
532.581396	45834.102714
532.942638	45494.749881
533.303824	45791.570499
533.664953	45764.602846
534.026025	45488.786196
534.387040	45961.301107
534.747999	45905.245997
535.108902	46066.802375
535.469748	45600.152846
535.830537	45728.603967
536.191270	45907.983344
536.551947	45577.654176
536.912567	45862.169338
537.273131	45994.839904
537.633638	45495.168297
537.994089	45829.542990
538.354483	45444.645853
538.714821	46011.755496
539.075103	46355.753752
539.435328	46109.657224
539.795497	46008.435896
540.155609	45998.424164
540.515665	46454.063814
540.875665	45929.100737
541.235609	46240.119765
541.595496	46201.496965
541.955328	46864.542286
542.315102	46279.118131
542.674821	46061.612507
543.034483	46078.850733
543.394090	46055.059007
543.753640	46014.346649
544.113134	47003.166455
544.472571	46036.719290
544.831953	47269.397352
545.191278	46503.290681
545.550548	46216.126393
545.909761	46674.087494
546.268918	46858.908797
546.628019	47180.617591
546.987064	46750.788650
547.346053	46039.343210
547.704986	46901.778769
548.063863	46471.037379
548.422684	46653.832138
548.781449	46512.183276
549.140158	46912.551715
549.498811	46755.996162
549.857408	46197.728702
550.215949	47026.081020
550.574434	46968.654716
550.932864	46733.096720
551.291237	47441.673743
551.649555	47048.080615
552.007817	47297.169068
552.366022	46943.879965
552.724173	47121.862943
553.082267	47521.797842
553.440305	47836.721244
553.798288	47139.436405
554.156215	47460.477247
554.514086	47650.717790
554.871902	47410.302643
555.229661	47420.158098
555.587365	47255.375382
555.945014	47358.008233
556.302606	47271.355840
556.660143	47492.755755
557.017625	47583.284796
557.375050	47369.373515
557.732421	47724.580776
558.089735	47705.817602
558.446994	47634.863361
558.804197	48098.145400
559.161345	48038.657264
559.518437	47290.875188
559.875474	47590.607072
560.232455	47754.557998
560.589381	47916.525230
560.946251	47623.296434
561.303065	48305.689704
561.659825	48112.379098
562.016528	47795.351015
562.373177	47514.372223
562.729770	47991.376282
563.086307	47507.465842
563.442789	47968.862489
563.799216	48003.769959
564.155587	47802.370821
564.511904	47829.225048
564.868164	47923.837423
565.224370	48182.231846
565.580520	47904.655833
565.936615	48108.837687
566.292654	47834.987087
566.648638	48071.379393
567.004567	48032.852375
567.360441	48056.971776
567.716260	47938.534907
568.072023	48212.133450
568.427732	48211.163028
568.783385	47753.486753
569.138982	48157.469698
569.494525	48109.465311
569.850013	47873.025113
570.205445	47841.681739
570.560823	47811.875917
570.916145	47658.861774
571.271412	47696.700675
571.626625	47460.378944
571.981782	47529.427629
572.336884	47194.382462
572.691931	47529.415026
573.046923	47119.302037
573.401860	46977.524626
573.756743	46960.651884
574.111570	47089.987727
574.466342	46923.637212
574.821059	47037.559727
575.175722	46565.589260
575.530330	46575.860611
575.884882	46308.066957
576.239380	46266.875689
576.593823	46240.570948
576.948211	46158.500964
577.302544	45689.774479
577.656823	45721.412761
578.011047	45931.157528
578.365216	45660.719789
578.719330	45472.306664
579.073389	45314.959649
579.427394	45400.810499
579.781344	45374.974586
580.135239	45020.526018
580.489080	45107.743021
580.842866	44593.222694
581.196597	45053.923662
581.550273	44989.964023
581.903895	44858.667171
582.257463	45275.038752
582.610975	44669.618860
582.964434	44955.248117
583.317837	44589.376294
583.671186	44415.693421
584.024481	44656.466490
584.377721	44186.124316
584.730906	44471.128469
585.084037	44498.401111
585.437113	44211.529210
585.790135	44252.596970
586.143103	43845.831308
586.496016	43973.080113
586.848874	44003.916851
587.201679	44020.920663
587.554428	43490.505579
587.907124	43691.816496
588.259765	43444.462200
588.612352	43679.017006
588.964884	43072.752721
589.317362	43363.952453
589.669786	43308.388855
590.022155	43076.810850
590.374470	43494.253677
590.726731	43021.038044
591.078937	42536.696586
591.431090	42624.878969
591.783188	42285.387505
592.135232	41971.487458
592.487222	42211.690877
592.839157	42294.615337
593.191038	41977.221770
593.542866	41739.511202
593.894639	41136.533749
594.246358	41427.010075
594.598022	41406.071642
594.949633	41000.228511
595.301190	40958.407098
595.652692	40797.848869
596.004141	41114.655141
596.355535	40138.657510
596.706876	40100.145615
597.058162	39921.308162
597.409395	40390.770655
597.760573	40456.615686
598.111698	40052.998224
598.462768	40050.792719
598.813785	40100.069998
599.164748	39564.742309
599.515657	39959.174789
599.866511	39417.769989
600.217312	40034.776973
600.568060	39001.801700
600.918753	39756.013768
601.269392	39709.783867
601.619978	39351.864464
601.970510	39568.808000
602.320988	39756.790106
602.671412	40061.240510
603.021783	39796.000201
603.372100	39455.818098
603.722363	39551.852079
604.072572	39625.614242
604.422728	39653.280094
604.772830	39456.223911
605.122878	39549.006347
605.472872	39487.292542
605.822813	39769.188824
606.172701	39604.128844
606.522534	39840.269093
606.872314	40105.413621
607.222041	39857.035971
607.571714	40242.895968
607.921333	39700.303977
608.270899	39987.614458
608.620411	40316.070837
608.969870	40124.302824
609.319276	40134.697683
609.668627	40161.317496
610.017926	40659.020533
610.367171	40813.166415
610.716362	40901.479869
611.065500	40841.835457
611.414585	41036.257637
611.763616	41313.652169
612.112594	41257.458427
612.461518	41483.677685
612.810389	41756.429314
613.159207	41624.577935
613.507971	41702.299925
613.856682	42193.986344
614.205340	42062.041704
614.553945	42763.422480
614.902496	42211.403531
615.250994	42672.812781
615.599439	42764.942388
615.947830	42962.958911
616.296169	43018.446891
616.644454	43140.321827
616.992686	43309.013958
617.340864	43819.861803
617.688990	43555.007142
618.037063	44143.352646
618.385082	44121.322803
618.733048	44413.722329
619.080961	44421.962095
619.428821	44430.947952
619.776628	44538.755548
620.124382	44352.512639
620.472083	44493.140667
620.819731	44614.829080
621.167326	44277.117143
621.514868	44264.128610
621.862357	43821.926156
622.209793	43827.751209
622.557176	43498.553781
622.904506	43257.158129
623.251783	42902.066814
623.599007	42690.527395
623.946179	42462.538692
624.293297	42417.674943
624.640363	41829.664677
624.987376	41807.289515
625.334336	41556.968500
625.681243	41219.904351
626.028097	41174.138236
626.374899	41019.833558
626.721647	41005.456187
627.068343	40898.445094
627.414987	40663.214773
627.761577	40434.306059
628.108115	40778.921857
628.454600	40229.070604
628.801032	40410.610116
629.147412	40372.506554
629.493739	40365.441377
629.840014	40019.600579
630.186236	40367.024300
630.532405	39972.536367
630.878521	40200.260410
631.224585	40068.542622
631.570597	39781.748859
631.916556	39944.058889
632.262462	39890.937730
632.608316	39887.303058
632.954117	39791.067432
633.299866	39790.006269
633.645562	39699.285664
633.991206	39181.380203
634.336797	38761.802448
634.682336	38771.199159
635.027823	38519.796816
635.373257	38331.272786
