Dividing Wavelength (nm)	Counts (n)	Blue Motor Position (mm): 24.800000	Red Motor Position (mm): 0.000000	
326.493990	1970.660135
326.888308	1970.660135
327.282561	1970.660135
327.676750	1949.613318
328.070874	1948.915118
328.464933	1953.719338
328.858929	1967.063272
329.252859	1975.401340
329.646726	1990.413897
330.040528	2003.989724
330.434265	2024.406397
330.827938	2045.664943
331.221547	2062.310833
331.615091	2084.280181
332.008571	2102.488829
332.401986	2125.587396
332.795338	2145.631023
333.188625	2168.051555
333.581847	2184.911694
333.975006	2203.291741
334.368100	2221.031562
334.761129	2237.377503
335.154095	2250.602970
335.546996	2289.228291
335.939833	2357.616584
336.332606	2376.268853
336.725315	2385.100955
337.117960	2394.543036
337.510540	2399.768192
337.903056	2413.558268
338.295508	2415.705800
338.687896	2426.352717
339.080220	2431.580393
339.472480	2437.539037
339.864676	2439.535334
340.256807	2439.908379
340.648875	2445.897270
341.040879	2446.093875
341.432818	2447.333999
341.824694	2449.766356
342.216506	2448.876592
342.608253	2449.456325
342.999937	2448.944648
343.391557	2446.217383
343.783113	2447.429781
344.174605	2441.889553
344.566033	2443.197732
344.957397	2441.254367
345.348697	2436.097267
345.739934	2439.046342
346.131106	2434.763882
346.522215	2434.670620
346.913260	2431.444282
347.304241	2431.048551
347.695159	2427.129054
348.086012	2426.619898
348.476802	2424.149732
348.867528	2424.855494
349.258191	2422.113106
349.648789	2421.966913
350.039324	2420.550348
350.429796	2420.346182
350.820203	2421.785431
351.210548	2420.263003
351.600828	2417.918866
351.991045	2416.136818
352.381198	2415.494071
352.771288	2415.486509
353.161314	2414.521128
353.551276	2415.332754
353.941175	2413.709503
354.331010	2415.642785
354.720782	2418.314597
355.110490	2419.199319
355.500135	2417.157652
355.889717	2416.456932
356.279235	2418.211253
356.668689	2416.991294
357.058080	2417.644123
357.447408	2417.288722
357.836672	2417.127405
358.225873	2415.831828
358.615010	2414.269071
359.004084	2419.932807
359.393095	2422.743250
359.782043	2422.788621
360.170927	2420.628486
360.559748	2422.836512
360.948505	2424.527819
361.337199	2425.155442
361.725830	2426.914805
362.114398	2427.320618
362.502903	2426.607295
362.891344	2426.521595
363.279722	2423.466656
363.668037	2429.160639
364.056289	2425.936821
364.444478	2427.938159
364.832603	2428.671647
365.220665	2431.408994
365.608665	2429.616864
365.996601	2428.122162
366.384474	2428.817841
366.772284	2427.625608
367.160031	2432.487801
367.547715	2430.998140
367.935336	2430.113417
368.322893	2428.767429
368.710388	2429.755495
369.097820	2432.137441
369.485189	2435.552822
369.872495	2433.128027
370.259738	2432.205496
370.646918	2438.194387
371.034035	2434.494180
371.421090	2434.811773
371.808081	2434.103491
372.195010	2434.375713
372.581875	2434.181628
372.968678	2435.189859
373.355418	2434.862184
373.742096	2435.610796
374.128710	2439.479881
374.515262	2435.240271
374.901751	2439.177412
375.288177	2439.495005
375.674540	2437.392843
376.060841	2437.546599
376.447079	2439.835282
376.833254	2436.591300
377.219367	2434.405960
377.605417	2440.132711
377.991404	2434.045517
378.377329	2440.649429
378.763191	2435.671289
379.148991	2441.803853
379.534727	2440.074737
379.920402	2440.578853
380.306013	2440.248657
380.691563	2444.236210
381.077049	2443.467434
381.462474	2441.670263
381.847835	2441.957608
382.233134	2442.260078
382.618371	2444.279060
383.003545	2445.660336
383.388657	2443.737136
383.773706	2445.877105
384.158693	2444.868875
384.543618	2444.427774
384.928480	2445.743515
385.313280	2446.093875
385.698017	2446.547579
386.082692	2447.828032
386.467305	2447.656633
386.851856	2451.243414
387.236344	2447.661674
387.620770	2452.259206
388.005133	2448.528752
388.389435	2449.514298
388.773674	2447.543207
389.157851	2449.786520
389.541965	2450.474638
389.926018	2451.392128
390.310008	2449.037909
390.693936	2451.313990
391.077802	2452.634772
391.461606	2452.695266
391.845348	2452.486058
392.229027	2452.218877
392.612645	2450.212498
392.996200	2454.870524
393.379694	2454.323559
393.763125	2452.813733
394.146494	2456.587037
394.529801	2457.857408
394.913047	2454.487396
395.296230	2457.065946
395.679351	2453.464042
396.062410	2457.174331
396.445408	2455.810699
396.828343	2457.726338
397.211217	2453.118723
397.594028	2452.987653
397.976778	2453.390945
398.359466	2459.752881
398.742092	2452.286932
399.124656	2460.710701
399.507158	2456.541666
399.889598	2460.962758
400.271977	2459.757922
400.654294	2461.255145
401.036549	2457.197016
401.418742	2459.957048
401.800874	2455.931687
402.182944	2462.341514
402.564952	2461.119034
402.946898	2462.351596
403.328783	2463.808490
403.710606	2462.376802
404.092367	2461.618108
404.474067	2465.492235
404.855705	2462.099538
405.237282	2464.320167
405.618797	2465.393933
406.000250	2464.342852
406.381642	2465.618264
406.762972	2465.083902
407.144240	2462.341514
407.525447	2465.441823
407.906593	2465.557770
408.287677	2466.576083
408.668700	2468.975672
409.049661	2469.575570
409.430560	2467.594396
409.811399	2469.653708
410.192176	2468.209417
410.572891	2470.878708
410.953545	2467.687657
411.334138	2472.587659
411.714669	2472.534727
412.095139	2471.312247
412.475547	2470.117494
412.855894	2471.808801
413.236180	2469.489870
413.616405	2473.104377
413.996568	2471.680251
414.376670	2472.494398
414.756711	2473.878194
415.136691	2472.537247
415.516609	2475.443473
415.896466	2474.157978
416.276262	2473.290900
416.655997	2471.466002
417.035670	2471.556743
417.415283	2474.334419
417.794834	2469.782257
418.174324	2478.435398
418.553753	2474.899028
418.933121	2477.502784
419.312428	2477.449852
419.691674	2478.097640
420.070859	2476.192084
420.449983	2480.832466
420.829045	2477.449852
421.208047	2482.077631
421.586988	2479.620069
421.965867	2481.626448
422.344686	2481.016468
422.723444	2481.089565
423.102141	2481.273567
423.480777	2483.579895
423.859352	2481.442446
424.237866	2483.027889
424.616319	2485.926552
424.994712	2484.734319
425.373044	2482.788434
425.751314	2486.307159
426.129524	2485.440081
426.507673	2488.810092
426.885762	2485.964361
427.263789	2487.872438
427.641756	2489.052068
428.019662	2489.339413
428.397508	2487.879999
428.775292	2489.291522
429.153016	2487.660709
429.530679	2493.977275
429.908282	2490.730772
430.285824	2489.606594
430.663305	2491.970896
431.040726	2492.127171
431.418086	2492.084322
431.795385	2492.101966
432.172624	2494.872080
432.549802	2494.715804
432.926920	2495.287975
433.303977	2495.436689
433.680974	2494.677995
434.057910	2497.798469
434.434786	2499.353665
434.811601	2499.315857
435.188355	2500.210662
435.565050	2499.946001
435.941683	2498.607575
436.318257	2501.463388
436.694770	2497.364930
437.071222	2502.229644
437.447614	2498.955414
437.823946	2500.626557
438.200218	2504.331805
438.576429	2504.697288
438.952580	2504.848523
439.328670	2506.607886
439.704700	2506.907834
440.080670	2506.335663
440.456580	2507.381703
440.832429	2512.264060
441.208218	2508.508401
441.583947	2512.627023
441.959616	2514.489730
442.335224	2513.776407
442.710773	2517.622807
443.086261	2516.377642
443.461689	2517.443846
443.837057	2519.742612
444.212365	2520.997859
444.587612	2521.300329
444.962800	2525.028262
445.337927	2524.274609
445.712995	2522.646317
446.088002	2530.432379
446.462949	2531.606968
446.837837	2531.758202
447.212664	2533.499921
447.587431	2545.195398
447.962139	2552.182437
448.336786	2560.523026
448.711374	2562.995712
449.085901	2553.462890
449.460369	2553.394835
449.834776	2559.718962
450.209124	2571.706826
450.583412	2572.914182
450.957640	2577.158834
451.331808	2574.308061
451.705917	2578.139338
452.079965	2581.562282
452.453954	2588.282140
452.827883	2592.660382
453.201752	2598.243460
453.575562	2603.206476
453.949311	2613.666870
454.323001	2623.245062
454.696632	2629.987606
455.070202	2648.806233
455.443713	2658.954076
455.817164	2671.138544
456.190556	2688.434743
456.563888	2696.213244
456.937160	2709.277394
457.310373	2715.679659
457.683526	2734.261352
458.056619	2753.382449
458.429653	2768.778133
458.802628	2794.064560
459.175542	2821.864003
459.548398	2861.918491
459.921194	2915.155596
460.293930	2961.877010
460.666607	3031.760005
461.039224	3100.105449
461.411782	3147.525062
461.784280	3155.905981
462.156719	3182.152748
462.529099	3208.439845
462.901419	3220.175651
463.273680	3239.110225
463.645882	3284.112605
464.018024	3338.428517
464.390106	3421.481527
464.762130	3577.727049
465.134094	3824.020182
465.505999	4134.792193
465.877845	4425.515536
466.249631	4555.947830
466.621358	4551.254515
466.993026	4541.459553
467.364634	4530.185013
467.736184	4534.669119
468.107674	4578.242332
468.479105	4636.969254
468.850477	4698.350343
469.221790	4716.226275
469.593043	4713.824165
469.964238	4758.080455
470.335373	4855.601576
470.706449	5099.603504
471.077467	5436.743271
471.448425	5958.006140
471.819324	6340.269275
472.190164	6319.547612
472.560945	6125.876563
472.931667	5969.152131
473.302330	5993.732798
473.672934	6053.460388
474.043479	6235.859417
474.413965	6293.570546
474.784393	6388.082098
475.154761	6630.949767
475.525070	6777.838908
475.895321	6873.159565
476.265513	7094.080571
476.635645	7381.678398
477.005719	7528.383537
477.375734	7763.203003
477.745691	8044.534676
478.115588	8422.621214
478.485427	8943.916851
478.855207	9733.646369
479.224928	10434.696949
479.594591	10965.507764
479.964194	10995.142187
480.333739	11237.218394
480.703226	11494.798671
481.072653	11900.891339
481.442022	12275.844801
481.811333	12604.699431
482.180584	12570.641395
482.549777	12711.652551
482.918912	12874.254968
483.287988	13065.113053
483.657005	13128.984472
484.025964	13229.563053
484.394864	13494.362262
484.763706	13651.348833
485.132489	13677.371270
485.501213	13911.185026
485.869879	14220.545514
486.238487	14380.544176
486.607036	14718.545979
486.975527	14839.279093
487.343959	15179.705692
487.712333	15497.053888
488.080648	15760.141625
488.448905	16190.341092
488.817104	16431.015858
489.185244	17078.773881
489.553326	18041.455304
489.921350	19444.274829
490.289315	21025.374760
490.657222	21678.060510
491.025070	22154.263026
491.392861	22109.684102
491.760593	21873.238863
492.128267	21463.471194
492.495883	21121.915377
492.863440	20847.777430
493.230939	20579.111657
493.598380	20419.536452
493.965763	20586.081052
494.333088	20531.543329
494.700354	20619.801330
495.067563	20783.056577
495.434713	21040.140299
495.801805	21377.161599
496.168839	21483.724029
496.535815	21621.130760
496.902733	21933.624325
497.269593	22020.180936
497.636395	22269.909616
498.003139	22779.981123
498.369825	22777.947018
498.736453	23235.063725
499.103023	23263.226131
499.469535	23485.911541
499.835989	23832.342153
500.202385	23921.900772
500.568723	24208.140008
500.935003	24592.074285
501.301226	24766.125163
501.667390	25414.220942
502.033497	25851.218405
502.399546	25776.024554
502.765537	25611.965243
503.131470	26128.489428
503.497345	26622.797248
503.863163	26029.627360
504.228923	26693.542280
504.594625	27226.472900
504.960269	27004.074837
505.325856	27722.154434
505.691385	27537.058389
506.056856	27888.381441
506.422270	28437.032900
506.787625	28397.419513
507.152924	28770.661502
507.518164	29093.139073
507.883347	28768.294681
508.248472	29176.673513
508.613540	29767.012792
508.978550	30218.183459
509.343503	30256.256773
509.708398	30629.057662
510.073236	31263.189445
510.438016	31488.856697
510.802738	31273.276794
511.167403	31970.445686
511.532010	32364.469832
511.896561	32802.024342
512.261053	33698.691856
512.625488	33545.221489
512.989866	33639.178514
513.354186	33709.984041
513.718449	33899.405397
514.082655	34651.492618
514.446803	34566.241666
514.810894	35193.038570
515.174927	35307.104758
515.538904	35406.513792
515.902822	36133.445656
516.266684	35842.752560
516.630488	36366.750256
516.994235	36410.875475
517.357925	37046.471714
517.721558	37369.692854
518.085133	37783.246431
518.448651	38067.393588
518.812112	38001.180553
519.175516	38242.482943
519.538863	38687.911735
519.902152	38789.306983
520.265385	39341.207465
520.628560	39503.184779
520.991678	39453.017737
521.354739	39779.790370
521.717743	40197.543228
522.080690	40214.937729
522.443580	40833.872954
522.806413	41003.981650
523.169189	41056.714640
523.531908	41334.575478
523.894569	41308.676550
524.257174	41552.169322
524.619722	41923.462906
524.982213	42030.665563
525.344647	42045.423541
525.707025	42160.167764
526.069345	42634.063952
526.431608	42631.482881
526.793815	43008.662012
527.155964	42658.453054
527.518057	42888.773291
527.880093	42748.936724
528.242072	43332.225951
528.603995	43100.945374
528.965860	43168.859799
529.327669	43334.749048
529.689421	43298.717401
530.051117	43306.127897
530.412755	43502.992517
530.774337	43621.719252
531.135862	43508.147097
531.497331	43742.611162
531.858743	43683.662429
532.220098	44052.319490
532.581396	43826.253987
532.942638	43544.050194
533.303824	43865.022980
533.664953	43865.254873
534.026025	43642.234227
534.387040	44115.858193
534.747999	44093.911529
535.108902	44296.386953
535.469748	43861.118607
535.830537	44005.991286
536.191270	44228.737189
536.551947	43911.565433
536.912567	44213.016351
537.273131	44372.636926
537.633638	43898.849123
537.994089	44258.318680
538.354483	43900.963887
538.714821	44467.549250
539.075103	44828.687429
539.435328	44629.246780
539.795497	44516.597156
540.155609	44534.369744
540.515665	44985.225338
540.875665	44477.760107
541.235609	44803.937884
541.595496	44787.266788
541.955328	45454.488706
542.315102	44866.841402
542.674821	44671.534499
543.034483	44731.577162
543.394090	44697.481318
543.753640	44666.596689
544.113134	45660.828174
544.472571	44706.051279
544.831953	45935.810513
545.191278	45171.133010
545.550548	44915.236479
545.909761	45372.212034
546.268918	45573.777529
546.628019	45880.950156
546.987064	45471.139637
547.346053	44771.029232
547.704986	45633.268186
548.063863	45224.675105
548.422684	45406.875008
548.781449	45276.780471
549.140158	45660.928997
549.498811	45519.862389
549.857408	44976.589842
550.215949	45801.806562
550.574434	45745.116266
550.932864	45536.203289
551.291237	46232.656337
551.649555	45854.030395
552.007817	46103.595237
552.366022	45766.362209
552.724173	45940.576924
553.082267	46322.928279
553.440305	46620.754607
553.798288	45971.413662
554.156215	46274.598737
554.514086	46481.868298
554.871902	46244.485404
555.229661	46260.097858
555.587365	46102.324866
555.945014	46185.319902
556.302606	46123.265819
556.660143	46352.363576
557.017625	46443.255580
557.375050	46235.517192
557.732421	46609.086856
558.089735	46588.904597
558.446994	46499.960999
558.804197	46949.561346
559.161345	46908.624656
559.518437	46179.394026
559.875474	46485.729822
560.232455	46651.767785
560.589381	46816.948753
560.946251	46541.129582
561.303065	47188.539764
561.659825	47001.414654
562.016528	46690.985442
562.373177	46428.419464
562.729770	46899.938748
563.086307	46433.183354
563.442789	46873.268523
563.799216	46930.286494
564.155587	46720.234216
564.511904	46761.170906
564.868164	46838.081270
565.224370	47094.852441
565.580520	46838.280395
565.936615	47044.299750
566.292654	46784.922302
566.648638	47016.719597
567.004567	46990.339239
567.360441	47020.485339
567.716260	46878.617188
568.072023	47183.722942
568.427732	47188.043211
568.783385	46732.174189
569.138982	47133.639078
569.494525	47095.633820
569.850013	46847.636777
570.205445	46830.791761
570.560823	46773.804038
570.916145	46666.195567
571.271412	46713.360603
571.626625	46463.533621
571.981782	46527.639454
572.336884	46226.576705
572.691931	46545.177628
573.046923	46141.419014
573.401860	46012.733480
573.756743	45986.005282
574.111570	46117.009747
574.466342	45954.369521
574.821059	46083.339880
575.175722	45607.838085
575.530330	45631.753319
575.884882	45358.845414
576.239380	45318.793447
576.593823	45307.095449
576.948211	45219.412140
577.302544	44768.803562
577.656823	44807.373430
578.011047	45012.215676
578.365216	44758.728816
578.719330	44558.607612
579.073389	44416.132001
579.427394	44486.622455
579.781344	44488.429709
580.135239	44143.725691
580.489080	44224.986571
580.842866	43726.930653
581.196597	44171.116801
581.550273	44127.162980
581.903895	43979.888191
582.257463	44417.604018
582.610975	43811.841328
582.964434	44090.914563
583.317837	43740.844238
583.671186	43589.874283
584.024481	43814.538345
584.377721	43360.393398
584.730906	43630.364830
585.084037	43664.367413
585.437113	43381.198240
585.790135	43421.277933
586.143103	43035.092781
586.496016	43147.971778
586.848874	43189.039538
587.201679	43198.126217
587.554428	42692.448075
587.907124	42883.278433
588.259765	42636.708037
588.612352	42907.309614
588.964884	42315.926815
589.317362	42584.184255
589.669786	42546.322669
590.022155	42318.051661
590.374470	42718.659554
590.726731	42271.410906
591.078937	41778.007973
591.431090	41886.307081
591.783188	41557.785167
592.135232	41243.988464
592.487222	41465.406023
592.839157	41559.211814
593.191038	41249.861408
593.542866	41010.814934
593.894639	40424.742991
594.246358	40695.851203
594.598022	40673.856649
594.949633	40301.280092
595.301190	40260.812229
595.652692	40090.103637
596.004141	40415.978945
596.355535	39444.697312
596.706876	39399.168132
597.058162	39237.684850
597.409395	39680.938385
597.760573	39769.171180
598.111698	39342.543371
598.462768	39366.781239
598.813785	39409.941077
599.164748	38868.720280
599.515657	39270.316239
599.866511	38748.314841
600.217312	39345.187456
600.568060	38331.043413
600.918753	39067.772760
601.269392	39033.346720
601.619978	38684.299749
601.970510	38901.190352
602.320988	39086.372097
602.671412	39362.498778
603.021783	39114.093402
603.372100	38759.997715
603.722363	38886.414730
604.072572	38947.533679
604.422728	38974.531578
604.772830	38774.770816
605.122878	38874.668841
605.472872	38813.060900
605.822813	39094.432902
606.172701	38927.333776
606.522534	39146.341663
606.872314	39410.697250
607.222041	39185.324906
607.571714	39562.783821
607.921333	39004.009726
608.270899	39298.239190
608.620411	39640.967076
608.969870	39436.346641
609.319276	39427.017986
609.668627	39491.267492
610.017926	39958.285025
610.367171	40115.770671
610.716362	40204.048837
611.065500	40160.029482
611.414585	40338.599754
611.763616	40635.904322
612.112594	40559.603938
612.461518	40777.240632
612.810389	41060.571122
613.159207	40924.810329
613.507971	41019.720132
613.856682	41471.163021
614.205340	41363.494057
614.553945	42047.198027
614.902496	41506.753567
615.250994	41965.778351
615.599439	42030.355532
615.947830	42253.759306
616.296169	42290.163998
616.644454	42430.174484
616.992686	42600.686472
617.340864	43123.761636
617.688990	42830.089219
618.037063	43429.041310
618.385082	43397.592072
618.733048	43705.299062
619.080961	43700.411663
619.428821	43720.631731
619.776628	43804.130883
620.124382	43638.269360
620.472083	43756.197072
620.819731	43887.433430
621.167326	43570.854009
621.514868	43547.216039
621.862357	43110.427784
622.209793	43128.578459
622.557176	42802.133500
622.904506	42553.435737
623.251783	42205.467572
623.599007	41973.234218
623.946179	41769.727878
624.293297	41700.928731
624.640363	41126.726184
624.987376	41111.665737
625.334336	40873.655220
625.681243	40532.648889
626.028097	40476.886165
626.374899	40344.606288
626.721647	40315.982617
627.068343	40205.069671
627.414987	39968.571500
627.761577	39744.623281
628.108115	40078.695505
628.454600	39538.654338
628.801032	39710.146830
629.147412	39684.694044
629.493739	39690.579591
629.840014	39349.386737
630.186236	39685.813180
630.532405	39311.351232
630.878521	39528.322493
631.224585	39383.553158
631.570597	39111.227506
631.916556	39268.687947
632.262462	39215.652487
632.608316	39239.514789
632.954117	39118.824525
633.299866	39110.725911
633.645562	39037.845950
633.991206	38539.152327
634.336797	38122.987432
634.682336	38113.439487
635.027823	37865.316415
635.373257	37684.091976
635.718639	37448.435678
636.063968	37311.951478
636.409245	36744.819150
636.754470	36792.594165
637.099642	36559.823927
637.444762	36093.345797
637.789829	36224.632567
