Dividing Wavelength (nm)	Counts (n)	Blue Motor Position (mm): 9.800000	Red Motor Position (mm): 0.000000	
326.493990	1976.666670
326.888308	1976.666670
327.282561	1976.666670
327.676750	1951.473504
328.070874	1952.592640
328.464933	1960.691253
328.858929	1970.382872
329.252859	1985.155973
329.646726	1993.015132
330.040528	2013.209994
330.434265	2030.203724
330.827938	2048.556044
331.221547	2068.045145
331.615091	2087.821592
332.008571	2110.763883
332.401986	2130.341204
332.795338	2151.703093
333.188625	2172.187822
333.581847	2189.511747
333.975006	2209.252906
334.368100	2226.816286
334.761129	2242.262381
335.154095	2256.967427
335.546996	2285.326438
335.939833	2324.594506
336.332606	2336.627740
336.725315	2348.308093
337.117960	2354.170955
337.510540	2363.943232
337.903056	2371.779706
338.295508	2380.982332
338.687896	2386.378887
339.080220	2393.922974
339.472480	2396.471277
339.864676	2403.740621
340.256807	2405.454613
340.648875	2405.537792
341.040879	2408.958215
341.432818	2410.795716
341.824694	2410.294121
342.216506	2407.728174
342.608253	2411.511560
342.999937	2409.013668
343.391557	2407.009809
343.783113	2406.198183
344.174605	2404.315312
344.566033	2400.032852
344.957397	2401.560322
345.348697	2398.916237
345.739934	2396.458674
346.131106	2395.175701
346.522215	2396.478839
346.913260	2394.777449
347.304241	2389.433826
347.695159	2389.126316
348.086012	2387.987015
348.476802	2386.270502
348.867528	2381.957795
349.258191	2381.110881
349.648789	2382.973588
350.039324	2380.500902
350.429796	2381.841849
350.820203	2378.814636
351.210548	2378.214738
351.600828	2377.438401
351.991045	2376.851106
352.381198	2377.876981
352.771288	2379.767414
353.161314	2375.336240
353.551276	2375.522762
353.941175	2371.641074
354.331010	2379.490150
354.720782	2377.017464
355.110490	2378.645757
355.500135	2380.173227
355.889717	2375.991590
356.279235	2377.551827
356.668689	2382.121633
357.058080	2378.635675
357.447408	2376.873792
357.836672	2376.102495
358.225873	2376.102495
358.615010	2375.321116
359.004084	2382.015768
359.393095	2380.871427
359.782043	2381.473844
360.170927	2381.932589
360.559748	2381.872096
360.948505	2382.787065
361.337199	2386.114227
361.725830	2383.490306
362.114398	2385.726058
362.502903	2382.489637
362.891344	2384.717827
363.279722	2384.720348
363.668037	2388.400390
364.056289	2388.833929
364.444478	2387.790410
364.832603	2384.974926
365.220665	2385.597508
365.608665	2384.795965
365.996601	2389.872407
366.384474	2388.977602
366.772284	2388.208826
367.160031	2389.597664
367.547715	2387.651778
367.935336	2389.567417
368.322893	2390.915926
368.710388	2389.010369
369.097820	2391.823333
369.485189	2390.300905
369.872495	2390.134547
370.259738	2391.256203
370.646918	2389.204454
371.034035	2391.861142
371.421090	2392.382901
371.808081	2392.105638
372.195010	2392.836605
372.581875	2392.811399
372.968678	2394.059085
373.355418	2392.095556
373.742096	2392.955072
374.128710	2392.884496
374.515262	2393.194527
374.901751	2394.041441
375.288177	2395.863818
375.674540	2394.258211
376.060841	2395.803324
376.447079	2395.483211
376.833254	2393.315515
377.219367	2390.578168
377.605417	2391.288971
377.991404	2394.054044
378.377329	2392.960113
378.763191	2391.616646
379.148991	2395.372306
379.534727	2398.417163
379.920402	2397.076216
380.306013	2397.580331
380.691563	2397.000598
381.077049	2397.436658
381.462474	2397.479508
381.847835	2398.822975
382.233134	2399.652245
382.618371	2399.019580
383.003545	2397.688716
383.388657	2400.786505
383.773706	2399.317008
384.158693	2400.360527
384.543618	2399.309447
384.928480	2398.462533
385.313280	2404.337998
385.698017	2398.996895
386.082692	2402.240878
386.467305	2400.247101
386.851856	2400.705846
387.236344	2401.887997
387.620770	2402.263563
388.005133	2402.974366
388.389435	2402.679458
388.773674	2402.452606
389.157851	2405.492422
389.541965	2403.765827
389.926018	2404.020405
390.310008	2405.384037
390.693936	2405.222720
391.077802	2401.809859
391.461606	2404.781619
391.845348	2403.284397
392.229027	2402.956722
392.612645	2405.931002
392.996200	2407.050138
393.379694	2406.483009
393.763125	2406.505694
394.146494	2402.266083
394.529801	2406.230951
394.913047	2403.483522
395.296230	2403.057545
395.679351	2404.509397
396.062410	2407.156003
396.445408	2406.157854
396.828343	2405.557957
397.211217	2400.277348
397.594028	2403.170971
397.976778	2403.236506
398.359466	2405.835220
398.742092	2401.905641
399.124656	2405.658780
399.507158	2407.072824
399.889598	2405.227761
400.271977	2409.326219
400.654294	2408.801939
401.036549	2407.836558
401.418742	2408.809501
401.800874	2408.363359
402.182944	2408.214645
402.564952	2409.328740
402.946898	2409.182547
403.328783	2409.502660
403.710606	2410.024419
404.092367	2411.554409
404.474067	2411.761097
404.855705	2410.820922
405.237282	2410.619275
405.618797	2410.152969
406.000250	2409.275808
406.381642	2412.597928
406.762972	2412.008113
407.144240	2412.807136
407.525447	2410.526014
407.906593	2411.423339
408.287677	2408.501991
408.668700	2412.129101
409.049661	2413.205387
409.430560	2414.150604
409.811399	2410.253792
410.192176	2413.659091
410.572891	2414.848803
410.953545	2415.040367
411.334138	2412.320665
411.714669	2412.623134
412.095139	2414.874009
412.475547	2413.212949
412.855894	2416.497261
413.236180	2413.603638
413.616405	2415.299987
413.996568	2411.803947
414.376670	2414.805954
414.756711	2414.029616
415.136691	2415.252096
415.516609	2414.619431
415.896466	2416.003228
416.276262	2414.379976
416.655997	2412.655902
417.035670	2414.057342
417.415283	2413.394431
417.794834	2410.117681
418.174324	2415.907446
418.553753	2414.909297
418.933121	2416.247724
419.312428	2413.470048
419.691674	2414.679925
420.070859	2417.714699
420.449983	2417.349216
420.829045	2416.381314
421.208047	2416.378794
421.586988	2415.085738
421.965867	2414.959709
422.344686	2416.577919
422.723444	2417.109761
423.102141	2418.145718
423.480777	2419.038002
423.859352	2416.698907
424.237866	2419.222004
424.616319	2416.663619
424.994712	2414.155645
425.373044	2416.537590
425.751314	2420.068918
426.129524	2418.032292
426.507673	2417.218146
426.885762	2415.244534
427.263789	2418.181006
427.641756	2417.548341
428.019662	2420.129412
428.397508	2417.843249
428.775292	2417.845769
429.153016	2419.005235
429.530679	2418.362488
429.908282	2417.974319
430.285824	2418.780903
430.663305	2416.298135
431.040726	2419.181675
431.418086	2419.940369
431.795385	2421.936666
432.172624	2418.123033
432.549802	2416.242682
432.926920	2416.088927
433.303977	2420.179824
433.680974	2421.490524
434.057910	2417.886099
434.434786	2420.661254
434.811601	2419.234607
435.188355	2421.306522
435.565050	2419.363157
435.941683	2421.288877
436.318257	2420.434402
436.694770	2417.671850
437.071222	2418.266706
437.447614	2416.346026
437.823946	2419.169072
438.200218	2421.661923
438.576429	2420.825091
438.952580	2419.368198
439.328670	2419.287539
439.704700	2420.323497
440.080670	2421.712334
440.456580	2421.119999
440.832429	2422.841553
441.208218	2423.065884
441.583947	2423.524629
441.959616	2422.460946
442.335224	2422.947417
442.710773	2420.447005
443.086261	2422.287026
443.461689	2423.285174
443.837057	2420.507499
444.212365	2420.996491
444.587612	2421.563620
444.962800	2422.881882
445.337927	2424.737027
445.712995	2419.441295
446.088002	2423.867428
446.462949	2423.577561
446.837837	2423.995977
447.212664	2423.012952
447.587431	2420.661254
447.962139	2426.022521
448.336786	2423.998498
448.711374	2425.241142
449.085901	2425.155443
449.460369	2423.910277
449.834776	2424.381625
450.209124	2425.498241
450.583412	2427.958324
450.957640	2428.265834
451.331808	2426.723241
451.705917	2423.433888
452.079965	2425.833478
452.453954	2427.547470
452.827883	2428.800197
453.201752	2427.577717
453.575562	2426.135947
453.949311	2429.669796
454.323001	2425.457912
454.696632	2428.026380
455.070202	2428.921184
455.443713	2425.820875
455.817164	2426.758529
456.190556	2426.861873
456.563888	2426.471184
456.937160	2423.169228
457.310373	2428.969075
457.683526	2428.139806
458.056619	2433.095260
458.429653	2428.308684
458.802628	2429.453026
459.175542	2429.193407
459.548398	2430.592327
459.921194	2431.300609
460.293930	2429.611823
460.666607	2431.522420
461.039224	2433.231371
461.411782	2433.017122
461.784280	2435.436876
462.156719	2432.429828
462.529099	2434.310178
462.901419	2435.467123
463.273680	2430.428489
463.645882	2433.758172
464.018024	2436.094746
464.390106	2435.313367
464.762130	2439.580704
465.134094	2437.791095
465.505999	2438.481733
465.877845	2442.086158
466.249631	2443.538010
466.621358	2442.287804
466.993026	2444.034564
467.364634	2446.779472
467.736184	2443.033895
468.107674	2440.636826
468.479105	2441.203956
468.850477	2439.623554
469.221790	2442.247475
469.593043	2438.852257
469.964238	2438.529624
470.335373	2437.352514
470.706449	2438.358224
471.077467	2442.020623
471.448425	2441.128338
471.819324	2447.094544
472.190164	2445.677980
472.560945	2444.405088
472.931667	2443.265788
473.302330	2441.186312
473.672934	2443.001127
474.043479	2440.568770
474.413965	2439.096753
474.784393	2435.099118
475.154761	2438.358224
475.525070	2433.551484
475.895321	2438.950560
476.265513	2437.231527
476.635645	2441.430808
477.005719	2441.458534
477.375734	2444.130346
477.745691	2443.595983
478.115588	2443.099430
478.485427	2445.458690
478.855207	2446.310645
479.224928	2448.374997
479.594591	2448.291818
479.964194	2446.875254
480.333739	2449.993208
480.703226	2447.727209
481.072653	2451.293825
481.442022	2448.916921
481.811333	2450.134360
482.180584	2450.348609
482.549777	2446.313165
482.918912	2450.275512
483.287988	2449.579833
483.657005	2447.954061
484.025964	2449.158897
484.394864	2447.765017
484.763706	2447.056735
485.132489	2448.495985
485.501213	2448.768207
485.869879	2446.081272
486.238487	2446.827363
486.607036	2447.986828
486.975527	2448.470779
487.343959	2448.485902
487.712333	2449.587395
488.080648	2447.661674
488.448905	2449.118567
488.817104	2448.503547
489.185244	2449.731068
489.553326	2449.030347
489.921350	2453.098558
490.289315	2453.406069
490.657222	2454.373970
491.025070	2453.579988
491.392861	2453.799279
491.760593	2454.615946
492.128267	2451.707200
492.495883	2453.101079
492.863440	2452.677622
493.230939	2452.377673
493.598380	2451.634103
493.965763	2444.659667
494.333088	2448.115378
494.700354	2446.668567
495.067563	2450.560337
495.434713	2446.895418
495.801805	2449.882302
496.168839	2451.142591
496.535815	2452.070163
496.902733	2449.622683
497.269593	2452.740636
497.636395	2450.225101
498.003139	2450.260389
498.369825	2450.162086
498.736453	2452.138218
499.103023	2452.458332
499.469535	2452.138218
499.835989	2454.442026
500.202385	2455.977057
500.568723	2455.241049
500.935003	2455.719958
501.301226	2456.599640
501.667390	2457.955710
502.033497	2458.437140
502.399546	2456.511419
502.765537	2459.422686
503.131470	2458.447223
503.497345	2457.572582
503.863163	2461.653396
504.228923	2462.565845
504.594625	2462.696915
504.960269	2463.488376
505.325856	2463.168263
505.691385	2463.400156
506.056856	2467.828810
506.422270	2467.727987
506.787625	2470.535909
507.152924	2471.677731
507.518164	2473.164871
507.883347	2473.013637
508.248472	2474.168061
508.613540	2473.701754
508.978550	2479.438587
509.343503	2481.293732
509.708398	2482.175934
510.073236	2483.342961
510.438016	2487.464104
510.802738	2484.043681
511.167403	2488.046357
511.532010	2491.809579
511.896561	2496.820486
512.261053	2496.505413
512.625488	2495.454333
512.989866	2492.981647
513.354186	2502.038080
513.718449	2498.272338
514.082655	2506.965808
514.446803	2505.990344
514.810894	2509.141066
515.174927	2514.741788
515.538904	2513.315141
515.902822	2516.455780
516.266684	2522.779907
516.630488	2523.619259
516.994235	2523.084897
517.357925	2527.989940
517.721558	2529.353572
518.085133	2534.619057
518.448651	2538.785571
518.812112	2537.477391
519.175516	2540.731456
519.538863	2545.117260
519.902152	2543.662887
520.265385	2551.247303
520.628560	2555.496996
520.991678	2554.093034
521.354739	2557.687377
521.717743	2561.521175
522.080690	2560.412121
522.443580	2565.740620
522.806413	2569.813873
523.169189	2571.021229
523.531908	2573.020047
523.894569	2576.508525
524.257174	2577.725964
524.619722	2584.478589
524.982213	2585.305338
525.344647	2586.361460
525.707025	2588.690473
526.069345	2593.255238
526.431608	2592.178952
526.793815	2603.138420
527.155964	2597.431834
527.518057	2603.105653
527.880093	2603.186311
528.242072	2608.787033
528.603995	2608.449276
528.965860	2611.100923
529.327669	2609.550768
529.689421	2613.354318
530.051117	2614.450769
530.412755	2620.449743
530.774337	2621.369753
531.135862	2622.879579
531.497331	2621.405041
531.858743	2621.173148
532.220098	2625.972327
532.581396	2627.898047
532.942638	2629.077677
533.303824	2630.958028
533.664953	2636.067237
534.026025	2635.726959
534.387040	2639.139820
534.747999	2643.243320
535.108902	2644.254071
535.469748	2645.262302
535.830537	2644.566622
536.191270	2649.113743
536.551947	2650.255565
536.912567	2653.159269
537.273131	2652.269506
537.633638	2651.218425
537.994089	2653.640699
538.354483	2655.624393
538.714821	2658.578510
539.075103	2661.885507
539.435328	2664.776608
539.795497	2659.012049
540.155609	2665.769716
540.515665	2665.792401
540.875665	2667.471105
541.235609	2668.933040
541.595496	2669.782474
541.955328	2676.197342
542.315102	2674.604338
542.674821	2673.170129
543.034483	2674.168278
543.394090	2675.599966
543.753640	2676.240192
544.113134	2681.813188
544.472571	2679.602642
544.831953	2688.273426
545.191278	2682.891995
545.550548	2680.169772
545.909761	2686.277129
546.268918	2687.728982
546.628019	2690.806606
546.987064	2689.836184
547.346053	2685.762932
547.704986	2690.529343
548.063863	2687.824764
548.422684	2689.962213
548.781449	2689.868952
549.140158	2692.870959
549.498811	2692.286185
549.857408	2690.725948
550.215949	2691.754343
550.574434	2690.040351
550.932864	2694.227029
551.291237	2694.761391
551.649555	2696.487987
552.007817	2698.698532
552.366022	2699.553008
552.724173	2697.818851
553.082267	2699.371527
553.440305	2702.005529
553.798288	2696.266176
554.156215	2699.701722
554.514086	2701.448482
554.871902	2702.003009
555.229661	2703.742207
555.587365	2699.719366
555.945014	2703.868236
556.302606	2702.199614
556.660143	2706.091385
557.017625	2704.942002
557.375050	2703.908565
557.732421	2705.778833
558.089735	2703.502752
558.446994	2705.725901
558.804197	2708.695141
559.161345	2710.424256
559.518437	2705.960315
559.875474	2705.622557
560.232455	2709.673124
560.589381	2706.771940
560.946251	2707.702033
561.303065	2711.054401
561.659825	2710.235213
562.016528	2710.404092
562.373177	2708.886704
562.729770	2713.350646
563.086307	2710.343598
563.442789	2712.876778
563.799216	2713.416181
564.155587	2714.610935
564.511904	2715.533466
564.868164	2715.422560
565.224370	2720.524208
565.580520	2719.037068
565.936615	2724.383211
566.292654	2720.763663
566.648638	2726.223232
567.004567	2724.552090
567.360441	2728.637945
567.716260	2729.832699
568.072023	2733.595920
568.427732	2732.653224
568.783385	2733.069119
569.138982	2736.671024
569.494525	2736.897876
569.850013	2737.538102
570.205445	2744.378948
570.560823	2748.810122
570.916145	2748.875657
571.271412	2755.698859
571.626625	2755.882861
571.981782	2759.787235
572.336884	2762.607760
572.691931	2765.692947
573.046923	2770.749224
573.401860	2774.580501
573.756743	2774.492281
574.111570	2782.931172
574.466342	2783.420164
574.821059	2789.293108
575.175722	2793.691515
575.530330	2799.982875
575.884882	2800.265180
576.239380	2806.982517
576.593823	2814.254382
576.948211	2818.705720
577.302544	2819.996256
577.656823	2826.345589
578.011047	2838.305727
578.365216	2838.214986
578.719330	2847.016840
579.073389	2853.340968
579.427394	2862.115096
579.781344	2870.254039
580.135239	2875.935419
580.489080	2887.794734
580.842866	2891.104251
581.196597	2907.233423
581.550273	2914.832963
581.903895	2925.575661
582.257463	2944.737087
582.610975	2950.179013
582.964434	2965.461271
583.317837	2971.319091
583.671186	2983.795947
584.024481	2996.978564
584.377721	3003.348062
584.730906	3019.192409
585.084037	3032.191024
585.437113	3041.154196
585.790135	3048.259702
586.143103	3062.329562
586.496016	3073.946901
586.848874	3086.065835
587.201679	3106.369082
587.554428	3108.650204
587.907124	3132.089049
588.259765	3146.471461
588.612352	3172.771161
588.964884	3174.966583
589.317362	3201.145295
589.669786	3215.752038
590.022155	3230.303329
590.374470	3254.021958
590.726731	3262.987650
591.078937	3268.865635
591.431090	3289.385652
591.783188	3295.009059
592.135232	3305.245122
592.487222	3332.124554
592.839157	3352.760518
593.191038	3365.002960
593.542866	3380.996020
593.894639	3384.577760
594.246358	3413.738315
594.598022	3430.119544
594.949633	3441.540278
595.301190	3458.483596
595.652692	3471.744351
596.004141	3500.587313
596.355535	3496.758557
596.706876	3512.708767
597.058162	3526.667722
597.409395	3559.594019
597.760573	3583.499170
598.111698	3592.295984
598.462768	3615.439921
598.813785	3640.638129
599.164748	3647.027791
599.515657	3681.000127
599.866511	3690.142259
600.217312	3729.838825
600.568060	3720.492526
600.918753	3774.054786
601.269392	3798.814413
601.619978	3806.698778
601.970510	3845.107329
602.320988	3879.064541
602.671412	3916.696754
603.021783	3930.688477
603.372100	3944.223975
603.722363	3975.751351
604.072572	4008.334849
604.422728	4037.429868
604.772830	4055.147004
605.122878	4082.989296
605.472872	4114.430973
605.822813	4151.715347
606.172701	4178.536806
606.522534	4219.735636
606.872314	4265.295063
607.222041	4286.593938
607.571714	4332.080270
607.921333	4342.449923
608.270899	4391.691914
608.620411	4438.531795
608.969870	4468.118327
609.319276	4501.873893
609.668627	4541.638514
610.017926	4603.551445
610.367171	4655.137573
610.716362	4695.237431
611.065500	4730.172627
611.414585	4785.872336
611.763616	4843.734700
612.112594	4880.930853
612.461518	4935.539153
612.810389	4991.926979
613.159207	5033.337537
613.507971	5078.347479
613.856682	5158.101054
614.205340	5194.677145
614.553945	5290.068379
614.902496	5293.650119
615.250994	5380.138675
615.599439	5433.002735
615.947830	5498.799875
616.296169	5561.327826
616.644454	5622.991220
616.992686	5693.844637
617.340864	5794.398013
617.688990	5831.563919
618.037063	5945.589778
618.385082	6001.886864
618.733048	6084.644966
619.080961	6147.155274
619.428821	6201.844231
619.776628	6264.810763
620.124382	6291.233971
620.472083	6354.739907
620.819731	6411.059677
621.167326	6421.348673
621.514868	6460.558767
621.862357	6453.738086
622.209793	6494.979766
622.557176	6503.569892
622.904506	6512.371746
623.251783	6512.281006
623.599007	6533.592483
623.946179	6554.145268
624.293297	6589.370330
624.640363	6572.623617
624.987376	6617.978878
625.334336	6639.446632
625.681243	6650.688405
626.028097	6693.079468
626.374899	6727.364355
626.721647	6773.269102
627.068343	6815.801317
627.414987	6842.509350
627.761577	6871.891715
628.108115	6960.953780
628.454600	6955.184180
628.801032	7034.892384
629.147412	7086.884324
629.493739	7138.909032
629.840014	7159.512227
630.186236	7257.471929
630.532405	7270.589011
630.878521	7359.817434
631.224585	7406.531286
631.570597	7430.259997
631.916556	7512.060280
632.262462	7569.597490
632.608316	7635.737428
632.954117	7666.977459
633.299866	7725.878300
633.645562	7765.002695
633.991206	7744.190292
634.336797	7725.744710
634.682336	7770.031246
635.027823	7778.908718
635.373257	7789.427086
635.718639	7795.733569
636.063968	7820.649472
636.409245	7780.451311
636.754470	7840.413316
637.099642	7846.863472
637.444762	7820.697363
637.789829	7891.891058
638.134845	7885.972743
638.479808	7926.276768
638.824719	7963.044424
639.169577	7948.288967
639.514383	8009.632247
639.859137	8015.948813
640.203839	8105.328471
640.548489	8097.426462
640.893086	8156.970051
641.237632	8164.884662
641.582125	8239.012309
641.926566	8279.336499
642.270955	8333.231474
642.615292	8394.952842
642.959576	8437.326260
643.303809	8498.480497
643.647990	8577.205677
643.992118	8624.559755
644.336195	8685.308180
