Dividing Wavelength (nm)	Counts (n)	Blue Motor Position (mm): 7.600000	Red Motor Position (mm): 0.000000	
326.493990	1978.957874
326.888308	1978.957874
327.282561	1978.957874
327.676750	1951.869234
328.070874	1954.389811
328.464933	1959.945163
328.858929	1969.062089
329.252859	1981.077680
329.646726	1997.496718
330.040528	2011.828718
330.434265	2029.026614
330.827938	2049.667619
331.221547	2068.652604
331.615091	2091.463825
332.008571	2108.727257
332.401986	2131.122583
332.795338	2150.926756
333.188625	2170.120949
333.581847	2190.709021
333.975006	2208.529500
334.368100	2225.646738
334.761129	2242.484192
335.154095	2258.167221
335.546996	2278.283946
335.939833	2302.506690
336.332606	2317.335244
336.725315	2325.736327
337.117960	2336.526917
337.510540	2342.480519
337.903056	2354.491068
338.295508	2358.634897
338.687896	2368.780219
339.080220	2376.795654
339.472480	2380.029554
339.864676	2382.287991
340.256807	2384.029709
340.648875	2388.682694
341.040879	2389.275030
341.432818	2390.023641
341.824694	2391.067160
342.216506	2392.294681
342.608253	2393.602861
342.999937	2388.632283
343.391557	2389.912736
343.783113	2385.395862
344.174605	2386.550286
344.566033	2383.172713
344.957397	2384.894267
345.348697	2378.618031
345.739934	2378.731457
346.131106	2377.720705
346.522215	2373.304655
346.913260	2374.985879
347.304241	2372.699716
347.695159	2371.638553
348.086012	2369.039838
348.476802	2367.227544
348.867528	2367.764427
349.258191	2364.636391
349.648789	2363.176977
350.039324	2358.619773
350.429796	2364.013808
350.820203	2361.044568
351.210548	2362.350227
351.600828	2359.290247
351.991045	2355.728672
352.381198	2358.987778
352.771288	2358.796214
353.161314	2357.898888
353.551276	2357.235977
353.941175	2355.763960
354.331010	2359.996008
354.720782	2361.347038
355.110490	2360.681605
355.500135	2358.705473
355.889717	2356.366378
356.279235	2359.171780
356.668689	2357.790504
357.058080	2360.164887
357.447408	2358.536594
357.836672	2358.874352
358.225873	2356.570544
358.615010	2356.900740
359.004084	2360.815196
359.393095	2362.481297
359.782043	2363.791997
360.170927	2362.264528
360.559748	2363.360979
360.948505	2363.872656
361.337199	2365.828623
361.725830	2364.868284
362.114398	2366.128572
362.502903	2365.553881
362.891344	2367.875332
363.279722	2367.555219
363.668037	2367.424149
364.056289	2367.426669
364.444478	2369.508666
364.832603	2368.523120
365.220665	2366.587317
365.608665	2368.598738
365.996601	2370.768954
366.384474	2369.987575
366.772284	2370.269880
367.160031	2369.526310
367.547715	2370.209386
367.935336	2372.072093
368.322893	2371.278111
368.710388	2371.184849
369.097820	2373.100488
369.485189	2373.718029
369.872495	2374.766589
370.259738	2370.990765
370.646918	2374.456558
371.034035	2374.708616
371.421090	2371.825076
371.808081	2375.643750
372.195010	2375.704244
372.581875	2374.459079
372.968678	2374.270036
373.355418	2376.203318
373.742096	2377.511498
374.128710	2374.638040
374.515262	2376.054604
374.901751	2375.827752
375.288177	2375.928575
375.674540	2375.091744
376.060841	2375.643750
376.447079	2375.227855
376.833254	2373.896990
377.219367	2372.762731
377.605417	2374.242309
377.991404	2370.647967
378.377329	2376.508308
378.763191	2371.759541
379.148991	2375.681559
379.534727	2376.321785
379.920402	2378.625592
380.306013	2377.123329
380.691563	2379.754811
381.077049	2381.826725
381.462474	2376.770448
381.847835	2377.675335
382.233134	2382.199771
382.618371	2379.374204
383.003545	2379.285984
383.388657	2380.085007
383.773706	2378.829759
384.158693	2380.659698
384.543618	2379.976622
384.928480	2379.858155
385.313280	2379.626262
385.698017	2381.791437
386.082692	2381.257075
386.467305	2381.241951
386.851856	2382.086345
387.236344	2381.463762
387.620770	2383.208001
388.005133	2379.873278
388.389435	2383.392003
388.773674	2382.812271
389.157851	2386.719165
389.541965	2382.116592
389.926018	2382.383773
390.310008	2383.984339
390.693936	2381.884698
391.077802	2382.729092
391.461606	2385.355533
391.845348	2382.219935
392.229027	2386.073897
392.612645	2385.849566
392.996200	2386.278064
393.379694	2383.255892
393.763125	2383.533156
394.146494	2387.026675
394.529801	2388.158414
394.913047	2384.755636
395.296230	2384.523743
395.679351	2383.160110
396.062410	2387.213198
396.445408	2387.253527
396.828343	2387.714793
397.211217	2379.603576
397.594028	2386.870400
397.976778	2381.884698
398.359466	2388.720503
398.742092	2381.993083
399.124656	2388.377705
399.507158	2387.745040
399.889598	2386.053733
400.271977	2387.059443
400.654294	2390.215205
401.036549	2389.033055
401.418742	2387.848383
401.800874	2389.819475
402.182944	2389.907695
402.564952	2387.165307
402.946898	2389.101110
403.328783	2389.509444
403.710606	2389.569938
404.092367	2390.558004
404.474067	2391.228477
404.855705	2388.410472
405.237282	2390.104300
405.618797	2391.218395
406.000250	2390.731923
406.381642	2391.515823
406.762972	2392.745864
407.144240	2391.732592
407.525447	2391.064640
407.906593	2389.181769
408.287677	2389.867366
408.668700	2391.440206
409.049661	2390.409290
409.430560	2390.358878
409.811399	2392.987840
410.192176	2391.384753
410.572891	2393.290309
410.953545	2393.255021
411.334138	2393.365926
411.714669	2393.852398
412.095139	2393.953221
412.475547	2394.512789
412.855894	2392.556821
413.236180	2390.817623
413.616405	2393.464229
413.996568	2393.549928
414.376670	2395.402553
414.756711	2391.992212
415.136691	2393.988509
415.516609	2397.045969
415.896466	2396.516647
416.276262	2397.476987
416.655997	2391.306615
417.035670	2391.752757
417.415283	2397.358520
417.794834	2389.529608
418.174324	2396.766185
418.553753	2395.432799
418.933121	2394.207799
419.312428	2398.767523
419.691674	2397.058572
420.070859	2398.190311
420.449983	2397.580331
420.829045	2395.463046
421.208047	2397.134189
421.586988	2396.141082
421.965867	2396.473798
422.344686	2395.505896
422.723444	2397.862636
423.102141	2397.834909
423.480777	2397.557646
423.859352	2396.347769
424.237866	2398.754920
424.616319	2396.730897
424.994712	2398.265928
425.373044	2397.844992
425.751314	2399.803480
426.129524	2395.674775
426.507673	2396.138561
426.885762	2399.926988
427.263789	2398.928840
427.641756	2397.290465
428.019662	2396.002450
428.397508	2399.322050
428.775292	2398.724673
429.153016	2400.413459
429.530679	2401.215003
429.908282	2397.061092
430.285824	2399.133006
430.663305	2394.422048
431.040726	2396.088149
431.418086	2399.266597
431.795385	2398.742317
432.172624	2402.303892
432.549802	2400.736093
432.926920	2399.201062
433.303977	2399.052348
433.680974	2399.410270
434.057910	2400.937739
434.434786	2399.069992
434.811601	2400.902451
435.188355	2399.672410
435.565050	2400.484036
435.941683	2398.200393
436.318257	2400.161402
436.694770	2395.929353
437.071222	2396.758623
437.447614	2397.406411
437.823946	2397.988664
438.200218	2397.925650
438.576429	2401.162071
438.952580	2399.707698
439.328670	2401.787174
439.704700	2399.954714
440.080670	2400.930178
440.456580	2401.237688
440.832429	2400.811711
441.208218	2398.162584
441.583947	2406.419994
441.959616	2402.250960
442.335224	2403.927144
442.710773	2401.462019
443.086261	2404.101063
443.461689	2400.027811
443.837057	2400.121073
444.212365	2402.119890
444.587612	2399.135527
444.962800	2401.598131
445.337927	2401.640980
445.712995	2403.165929
446.088002	2404.290107
446.462949	2404.824469
446.837837	2401.217523
447.212664	2400.950342
447.587431	2405.366393
447.962139	2401.598131
448.336786	2404.572411
448.711374	2403.496125
449.085901	2401.545198
449.460369	2405.159706
449.834776	2404.171640
450.209124	2402.939078
450.583412	2403.483522
450.957640	2403.352452
451.331808	2405.124418
451.705917	2404.073337
452.079965	2407.090468
452.453954	2404.232133
452.827883	2407.206414
453.201752	2403.758265
453.575562	2403.390261
453.949311	2404.779099
454.323001	2403.798594
454.696632	2404.658111
455.070202	2405.399161
455.443713	2407.254305
455.817164	2402.581156
456.190556	2404.027967
456.563888	2402.555950
456.937160	2402.079561
457.310373	2406.130128
457.683526	2406.024264
458.056619	2407.266908
458.429653	2406.735066
458.802628	2406.835889
459.175542	2408.348236
459.548398	2408.570046
459.921194	2407.725653
460.293930	2408.040725
460.666607	2408.804460
461.039224	2406.356980
461.411782	2408.471744
461.784280	2409.837897
462.156719	2410.505849
462.529099	2412.131622
462.901419	2407.602145
463.273680	2409.081723
463.645882	2408.973339
464.018024	2409.132135
464.390106	2411.627506
464.762130	2410.276477
465.134094	2409.714388
465.505999	2411.919893
465.877845	2413.180182
466.249631	2412.126580
466.621358	2413.744791
466.993026	2414.606828
467.364634	2413.429719
467.736184	2414.359812
468.107674	2411.388051
468.479105	2414.455593
468.850477	2411.120870
469.221790	2411.846796
469.593043	2410.087434
469.964238	2411.163720
470.335373	2409.863102
470.706449	2413.099523
471.077467	2411.549368
471.448425	2412.608011
471.819324	2412.875192
472.190164	2414.327044
472.560945	2413.401992
472.931667	2412.703792
473.302330	2411.882084
473.672934	2411.899728
474.043479	2411.410737
474.413965	2411.952661
474.784393	2407.125756
475.154761	2412.418967
475.525070	2406.225910
475.895321	2410.609193
476.265513	2409.114491
476.635645	2414.740419
477.005719	2413.076838
477.375734	2414.138001
477.745691	2413.223031
478.115588	2418.062539
478.485427	2413.338978
478.855207	2414.876530
479.224928	2417.155131
479.594591	2417.976839
479.964194	2417.240831
480.333739	2419.632858
480.703226	2414.170768
481.072653	2415.519277
481.442022	2417.787796
481.811333	2418.090265
482.180584	2416.237641
482.549777	2417.697055
482.918912	2415.287384
483.287988	2416.325862
483.657005	2415.851993
484.025964	2418.473393
484.394864	2418.843918
484.763706	2419.930287
485.132489	2417.513053
485.501213	2417.800399
485.869879	2413.588515
486.238487	2418.614545
486.607036	2417.623959
486.975527	2416.608166
487.343959	2416.870306
487.712333	2418.871644
488.080648	2417.016500
488.448905	2415.990625
488.817104	2415.806623
489.185244	2418.884247
489.553326	2414.974832
489.921350	2418.536407
490.289315	2421.056984
490.657222	2418.831315
491.025070	2418.397776
491.392861	2418.591860
491.760593	2421.457756
492.128267	2419.980698
492.495883	2419.610173
492.863440	2417.475245
493.230939	2419.937848
493.598380	2416.784607
493.965763	2411.516601
494.333088	2417.271078
494.700354	2417.984401
495.067563	2415.665470
495.434713	2416.063722
495.801805	2417.911304
496.168839	2420.116809
496.535815	2417.074473
496.902733	2418.090265
497.269593	2419.146387
497.636395	2417.013979
498.003139	2420.472211
498.369825	2418.170924
498.736453	2418.695204
499.103023	2418.082704
499.469535	2416.900553
499.835989	2417.923907
500.202385	2418.654875
500.568723	2418.589340
500.935003	2418.957344
501.301226	2417.240831
501.667390	2418.415420
502.033497	2420.293250
502.399546	2418.881727
502.765537	2419.905081
503.131470	2419.184196
503.497345	2420.114289
503.863163	2420.618404
504.228923	2417.666808
504.594625	2419.413568
504.960269	2419.902560
505.325856	2421.082190
505.691385	2421.825760
506.056856	2419.947931
506.422270	2420.457087
506.787625	2417.407189
507.152924	2419.698393
507.518164	2418.826274
507.883347	2419.269895
508.248472	2418.123033
508.613540	2421.402303
508.978550	2419.632858
509.343503	2422.045051
509.708398	2422.206368
510.073236	2421.679567
510.438016	2420.860379
510.802738	2421.520771
511.167403	2422.239135
511.532010	2422.443302
511.896561	2422.367684
512.261053	2424.769794
512.625488	2421.881213
512.989866	2420.822571
513.354186	2421.651841
513.718449	2421.379618
514.082655	2426.428334
514.446803	2426.841708
514.810894	2427.565114
515.174927	2427.071081
515.538904	2428.129723
515.902822	2428.250711
516.266684	2432.157605
516.630488	2430.047882
516.994235	2433.778336
517.357925	2436.077102
517.721558	2434.703388
518.085133	2436.792946
518.448651	2434.000147
518.812112	2436.929057
519.175516	2438.199428
519.538863	2436.525765
519.902152	2439.484922
520.265385	2441.264450
520.628560	2443.595983
520.991678	2441.816456
521.354739	2445.103288
521.717743	2442.749069
522.080690	2446.401385
522.443580	2445.027671
522.806413	2447.480192
523.169189	2449.715944
523.531908	2451.540842
523.894569	2450.152004
524.257174	2453.317848
524.619722	2453.718620
524.982213	2459.067284
525.344647	2457.524691
525.707025	2457.670885
526.069345	2460.526698
526.431608	2464.030300
526.793815	2463.816051
527.155964	2463.042234
527.518057	2465.003243
527.880093	2466.923923
528.242072	2468.501804
528.603995	2469.245374
528.965860	2468.882411
529.327669	2472.421301
529.689421	2473.709316
530.051117	2473.384161
530.412755	2476.854996
530.774337	2479.025212
531.135862	2478.359780
531.497331	2475.660242
531.858743	2476.239975
532.220098	2481.233238
532.581396	2481.397075
532.942638	2480.840028
533.303824	2485.861017
533.664953	2488.006028
534.026025	2487.121306
534.387040	2487.932931
534.747999	2490.778663
535.108902	2492.386791
535.469748	2489.256234
535.830537	2492.323776
536.191270	2492.507778
536.551947	2498.025321
536.912567	2496.170177
537.273131	2499.744355
537.633638	2496.376864
537.994089	2500.593789
538.354483	2501.826351
538.714821	2502.249808
539.075103	2503.421877
539.435328	2502.791732
539.795497	2502.834582
540.155609	2507.606034
540.515665	2505.408091
540.875665	2507.109481
541.235609	2509.093175
541.595496	2509.894718
541.955328	2512.561488
542.315102	2514.436798
542.674821	2513.640295
543.034483	2516.218846
543.394090	2514.963598
543.753640	2517.116171
544.113134	2520.062725
544.472571	2515.634072
544.831953	2524.771163
545.191278	2521.411234
545.550548	2520.234125
545.909761	2525.333252
546.268918	2523.213447
546.628019	2528.108407
546.987064	2526.459950
547.346053	2525.171935
547.704986	2526.122192
548.063863	2525.592871
548.422684	2528.214271
548.781449	2529.595547
549.140158	2530.669313
549.498811	2530.613860
549.857408	2526.129754
550.215949	2529.005732
550.574434	2527.473222
550.932864	2530.823068
551.291237	2530.273583
551.649555	2532.320291
552.007817	2532.809283
552.366022	2533.678882
552.724173	2534.109901
553.082267	2534.346835
553.440305	2535.022349
553.798288	2536.590148
554.156215	2537.018646
554.514086	2538.644418
554.871902	2538.102494
555.229661	2535.223996
555.587365	2535.130734
555.945014	2537.696682
556.302606	2538.430169
556.660143	2537.656352
557.017625	2535.765920
557.375050	2536.093595
557.732421	2537.336239
558.089735	2536.401105
558.446994	2536.844727
558.804197	2538.367155
559.161345	2537.159799
559.518437	2536.091074
559.875474	2533.976310
560.232455	2534.825744
560.589381	2537.631147
560.946251	2535.453368
561.303065	2535.536547
561.659825	2536.567463
562.016528	2531.178470
562.373177	2536.000333
562.729770	2534.792977
563.086307	2533.300795
563.442789	2535.060158
563.799216	2532.612678
564.155587	2531.460774
564.511904	2529.182173
564.868164	2532.373223
565.224370	2532.809283
565.580520	2529.018335
565.936615	2532.176618
566.292654	2529.156967
566.648638	2528.655372
567.004567	2530.122348
567.360441	2530.223171
567.716260	2528.945238
568.072023	2529.202337
568.427732	2522.081707
568.783385	2523.682274
569.138982	2521.958199
569.494525	2523.566327
569.850013	2516.982580
570.205445	2520.934845
570.560823	2521.529701
570.916145	2519.442663
571.271412	2518.562982
571.626625	2522.101872
571.981782	2520.435771
572.336884	2518.212622
572.691931	2515.321520
573.046923	2515.442508
573.401860	2518.018538
573.756743	2515.268588
574.111570	2512.876561
574.466342	2514.083917
574.821059	2511.893536
575.175722	2510.507218
575.530330	2509.851868
575.884882	2508.596621
576.239380	2508.599142
576.593823	2508.921775
576.948211	2507.177536
577.302544	2504.876249
577.656823	2504.173008
578.011047	2504.349449
578.365216	2505.070334
578.719330	2504.420025
579.073389	2502.471619
579.427394	2501.100425
579.781344	2501.743172
580.135239	2496.558346
580.489080	2498.834427
580.842866	2500.162771
581.196597	2500.193017
581.550273	2500.087153
581.903895	2498.295023
582.257463	2500.238388
582.610975	2495.676144
582.964434	2498.410970
583.317837	2499.497338
583.671186	2496.107162
584.024481	2500.132524
584.377721	2496.518016
584.730906	2498.237050
585.084037	2497.627070
585.437113	2495.950887
585.790135	2492.961482
586.143103	2493.619353
586.496016	2496.848212
586.848874	2490.080463
587.201679	2496.336535
587.554428	2491.802017
587.907124	2495.245125
588.259765	2489.611636
588.612352	2496.311329
588.964884	2496.323932
589.317362	2498.232009
589.669786	2496.775115
590.022155	2498.799138
590.374470	2501.491115
590.726731	2496.112203
591.078937	2496.364261
591.431090	2499.436844
591.783188	2502.764006
592.135232	2497.306957
592.487222	2495.787049
592.839157	2501.516320
593.191038	2498.398367
593.542866	2501.523882
593.894639	2496.646566
594.246358	2500.220744
594.598022	2503.555467
594.949633	2502.489263
595.301190	2499.661176
595.652692	2502.027998
596.004141	2503.275683
596.355535	2502.985817
596.706876	2500.407267
597.058162	2503.099243
597.409395	2504.147803
597.760573	2506.255005
598.111698	2505.697958
598.462768	2508.662156
598.813785	2505.161075
599.164748	2503.691578
599.515657	2506.091168
599.866511	2509.672907
600.217312	2514.028464
600.568060	2512.085099
600.918753	2516.385204
601.269392	2515.132477
601.619978	2513.247085
601.970510	2520.962571
602.320988	2518.489885
602.671412	2521.746471
603.021783	2521.383508
603.372100	2526.948942
603.722363	2524.080525
604.072572	2526.638911
604.422728	2529.739220
604.772830	2527.901720
605.122878	2526.003725
605.472872	2530.124868
605.822813	2529.582944
606.172701	2538.747762
606.522534	2541.991745
606.872314	2545.505429
607.222041	2545.419729
607.571714	2548.288146
607.921333	2547.075748
608.270899	2552.754608
608.620411	2556.507747
608.969870	2561.102759
609.319276	2561.760629
609.668627	2565.448233
610.017926	2569.718091
610.367171	2573.700602
610.716362	2577.287383
611.065500	2581.060687
611.414585	2586.374063
611.763616	2591.599219
612.112594	2592.970413
612.461518	2597.837647
612.810389	2603.488780
613.159207	2609.303751
613.507971	2611.884822
613.856682	2618.375308
614.205340	2622.524177
614.553945	2630.849643
614.902496	2634.161681
615.250994	2641.589821
615.599439	2644.743063
615.947830	2654.182623
616.296169	2658.772594
616.644454	2669.515293
616.992686	2677.873526
617.340864	2687.043385
617.688990	2692.268541
618.037063	2704.783205
618.385082	2714.517673
618.733048	2724.950341
619.080961	2734.407546
619.428821	2739.277300
619.776628	2748.863054
620.124382	2753.957140
620.472083	2759.373860
620.819731	2765.294695
621.167326	2765.992895
621.514868	2769.287289
621.862357	2769.627567
622.209793	2773.542023
622.557176	2774.104112
622.904506	2774.187291
623.251783	2773.819287
623.599007	2780.319854
623.946179	2783.289094
624.293297	2788.267233
624.640363	2789.020886
624.987376	2796.655713
625.334336	2802.279121
625.681243	2804.595531
626.028097	2809.833290
626.374899	2818.554486
626.721647	2826.375836
627.068343	2833.347752
627.414987	2840.354956
627.761577	2843.921572
628.108115	2859.521422
628.454600	2861.346320
628.801032	2871.418546
629.147412	2881.042108
629.493739	2896.064747
629.840014	2904.140675
630.186236	2918.109713
630.532405	2926.775456
630.878521	2938.786005
631.224585	2950.854527
631.570597	2958.685960
631.916556	2975.551140
632.262462	2986.404744
632.608316	2999.211796
632.954117	3006.718074
633.299866	3018.786596
633.645562	3025.705580
633.991206	3028.637011
634.336797	3027.744726
634.682336	3033.794111
635.027823	3035.528268
635.373257	3038.482384
635.718639	3043.001778
636.063968	3048.501677
636.409245	3046.054197
636.754470	3049.958571
637.099642	3059.924932
637.444762	3061.785118
637.789829	3071.685944
638.134845	3075.673497
638.479808	3083.015937
638.824719	3092.629418
639.169577	3098.368771
639.514383	3105.698609
639.859137	3114.283694
640.203839	3126.054788
640.548489	3130.811117
640.893086	3141.447951
641.237632	3145.178405
641.582125	3159.265910
641.926566	3166.978875
642.270955	3186.536031
642.615292	3197.634132
642.959576	3212.923951
643.303809	3219.656412
643.647990	3237.522261
643.992118	3249.074065
644.336195	3261.954213
