Dividing Wavelength (nm)	Counts (n)	Blue Motor Position (mm): 18.200000	Red Motor Position (mm): 0.000000	
326.493990	1971.600310
326.888308	1971.600310
327.282561	1971.600310
327.676750	1947.753132
328.070874	1949.255396
328.464933	1956.781839
328.858929	1963.345421
329.252859	1977.977370
329.646726	1992.195944
330.040528	2006.462410
330.434265	2027.005112
330.827938	2045.148224
331.221547	2064.367623
331.615091	2086.808320
332.008571	2106.277256
332.401986	2129.648045
332.795338	2147.052629
333.188625	2169.238747
333.581847	2189.070646
333.975006	2203.039683
334.368100	2221.999463
334.761129	2240.934037
335.154095	2255.046747
335.546996	2289.434978
335.939833	2349.177692
336.332606	2362.463653
336.725315	2374.743904
337.117960	2386.300749
337.510540	2390.081615
337.903056	2398.558315
338.295508	2405.835220
338.687896	2413.654050
339.080220	2420.134453
339.472480	2427.839857
339.864676	2430.957811
340.256807	2433.440579
340.648875	2435.668769
341.040879	2437.818821
341.432818	2439.149686
341.824694	2440.455344
342.216506	2438.448965
342.608253	2440.795622
342.999937	2436.677000
343.391557	2435.255394
343.783113	2438.302772
344.174605	2429.357244
344.566033	2432.976793
344.957397	2431.141813
345.348697	2427.000505
345.739934	2426.720721
346.131106	2423.330545
346.522215	2422.062695
346.913260	2419.879875
347.304241	2420.434402
347.695159	2419.980698
348.086012	2416.335944
348.476802	2413.117167
348.867528	2412.885274
349.258191	2409.424522
349.648789	2409.490057
350.039324	2406.765313
350.429796	2413.031468
350.820203	2409.606003
351.210548	2411.231776
351.600828	2407.460992
351.991045	2406.810684
352.381198	2405.172309
352.771288	2406.178019
353.161314	2405.855385
353.551276	2403.473440
353.941175	2406.462844
354.331010	2405.764644
354.720782	2403.770868
355.110490	2407.995355
355.500135	2405.895714
355.889717	2404.930333
356.279235	2404.736249
356.668689	2406.586352
357.058080	2405.258008
357.447408	2404.622823
357.836672	2404.524520
358.225873	2403.912020
358.615010	2402.225754
359.004084	2408.484347
359.393095	2408.567526
359.782043	2411.289749
360.170927	2411.047773
360.559748	2413.097003
360.948505	2410.962074
361.337199	2411.302352
361.725830	2415.310069
362.114398	2414.435429
362.502903	2411.856879
362.891344	2413.638927
363.279722	2414.475758
363.668037	2415.978022
364.056289	2415.610018
364.444478	2412.665984
364.832603	2417.134967
365.220665	2413.517939
365.608665	2418.226377
365.996601	2416.565316
366.384474	2415.146232
366.772284	2421.488003
367.160031	2416.262847
367.547715	2419.050605
367.935336	2415.723444
368.322893	2418.236459
368.710388	2420.179824
369.097820	2418.667478
369.485189	2420.409196
369.872495	2423.380956
370.259738	2422.188723
370.646918	2420.878023
371.034035	2420.842735
371.421090	2421.177972
371.808081	2422.077818
372.195010	2423.088569
372.581875	2421.064546
372.968678	2423.212078
373.355418	2421.263672
373.742096	2424.366502
374.128710	2423.958168
374.515262	2422.657551
374.901751	2422.980185
375.288177	2425.430185
375.674540	2421.059505
376.060841	2425.064702
376.447079	2424.147212
376.833254	2425.150401
377.219367	2420.338620
377.605417	2424.941193
377.991404	2419.723599
378.377329	2423.353230
378.763191	2421.051943
379.148991	2428.273396
379.534727	2425.483117
379.920402	2428.119641
380.306013	2425.621749
380.691563	2429.566452
381.077049	2429.052254
381.462474	2426.539239
381.847835	2430.441092
382.233134	2426.796338
382.618371	2427.527305
383.003545	2430.216761
383.388657	2430.027718
383.773706	2428.888417
384.158693	2431.434200
384.543618	2432.097111
384.928480	2433.312029
385.313280	2430.463778
385.698017	2430.967893
386.082692	2433.554005
386.467305	2433.120466
386.851856	2431.313212
387.236344	2434.476536
387.620770	2432.054262
388.005133	2433.831268
388.389435	2435.668769
388.773674	2432.926381
389.157851	2435.260435
389.541965	2432.684406
389.926018	2431.766916
390.310008	2437.970056
390.693936	2435.928388
391.077802	2433.929571
391.461606	2438.212031
391.845348	2436.964345
392.229027	2435.663728
392.612645	2434.214396
392.996200	2436.966866
393.379694	2435.540219
393.763125	2439.245468
394.146494	2436.863522
394.529801	2441.708071
394.913047	2440.422577
395.296230	2436.336722
395.679351	2441.123297
396.062410	2438.252360
396.445408	2436.256063
396.828343	2436.961825
397.211217	2433.304468
397.594028	2438.459048
397.976778	2438.653132
398.359466	2439.540375
398.742092	2435.111721
399.124656	2439.774789
399.507158	2440.583894
399.889598	2440.639347
400.271977	2439.709254
400.654294	2439.318564
401.036549	2442.146652
401.418742	2442.406271
401.800874	2443.767383
402.182944	2443.588422
402.564952	2443.142279
402.946898	2441.604727
403.328783	2444.518514
403.710606	2442.169337
404.092367	2444.894080
404.474067	2440.979624
404.855705	2444.576488
405.237282	2445.945161
405.618797	2445.068000
406.000250	2446.204780
406.381642	2443.444749
406.762972	2443.638833
407.144240	2447.298711
407.525447	2445.894749
407.906593	2442.917948
408.287677	2445.677980
408.668700	2444.137907
409.049661	2446.819801
409.430560	2445.171344
409.811399	2447.596139
410.192176	2448.359874
410.572891	2447.157558
410.953545	2449.103444
411.334138	2447.132353
411.714669	2448.470779
412.095139	2448.236365
412.475547	2447.351643
412.855894	2450.767025
413.236180	2448.647219
413.616405	2448.874071
413.996568	2449.189143
414.376670	2449.889864
414.756711	2448.715275
415.136691	2451.404731
415.516609	2449.955399
415.896466	2448.669905
416.276262	2453.247272
416.655997	2450.245265
417.035670	2445.128494
417.415283	2452.047478
417.794834	2445.022630
418.174324	2452.148301
418.553753	2449.902467
418.933121	2453.040585
419.312428	2447.540686
419.691674	2451.248455
420.070859	2454.873044
420.449983	2457.607870
420.829045	2453.184258
421.208047	2452.261727
421.586988	2452.211315
421.965867	2453.090997
422.344686	2454.195009
422.723444	2451.621500
423.102141	2453.325410
423.480777	2451.651747
423.859352	2455.263734
424.237866	2455.052005
424.616319	2456.440843
424.994712	2454.242900
425.373044	2457.171811
425.751314	2455.974537
426.129524	2456.357664
426.507673	2455.200719
426.885762	2456.405555
427.263789	2455.034361
427.641756	2457.547377
428.019662	2456.196347
428.397508	2458.391770
428.775292	2458.555607
429.153016	2460.274641
429.530679	2458.560648
429.908282	2459.692387
430.285824	2460.251956
430.663305	2458.109465
431.040726	2458.757253
431.418086	2459.576441
431.795385	2461.663479
432.172624	2459.783128
432.549802	2460.458643
432.926920	2458.792542
433.303977	2463.589199
433.680974	2462.762450
434.057910	2462.132306
434.434786	2460.670371
434.811601	2463.072481
435.188355	2463.473253
435.565050	2462.475104
435.941683	2463.211113
436.318257	2462.797738
436.694770	2461.726493
437.071222	2462.538119
437.447614	2461.484518
437.823946	2462.742286
438.200218	2462.545681
438.576429	2463.639611
438.952580	2463.916874
439.328670	2463.044755
439.704700	2466.339149
440.080670	2464.630198
440.456580	2464.108438
440.832429	2466.702112
441.208218	2468.206896
441.583947	2467.634725
441.959616	2466.515589
442.335224	2470.072123
442.710773	2468.239664
443.086261	2468.796711
443.461689	2469.056331
443.837057	2469.852833
444.212365	2470.273769
444.587612	2470.256125
444.962800	2467.682616
445.337927	2469.018522
445.712995	2469.149592
446.088002	2471.065231
446.462949	2470.339304
446.837837	2470.757720
447.212664	2471.753348
447.587431	2477.414564
447.962139	2476.968422
448.336786	2478.475727
448.711374	2481.039153
449.085901	2475.871971
449.460369	2475.239306
449.834776	2475.743421
450.209124	2477.838021
450.583412	2480.998824
450.957640	2478.684935
451.331808	2481.485296
451.705917	2474.548668
452.079965	2481.099647
452.453954	2480.625779
452.827883	2480.020840
453.201752	2478.112764
453.575562	2480.872795
453.949311	2481.157621
454.323001	2481.119812
454.696632	2485.863538
455.070202	2485.258599
455.443713	2485.256079
455.817164	2483.032930
456.190556	2483.811788
456.563888	2483.405975
456.937160	2481.855820
457.310373	2485.417396
457.683526	2486.891933
458.056619	2488.099289
458.429653	2488.878148
458.802628	2491.108858
459.175542	2489.974599
459.548398	2490.735813
459.921194	2495.983654
460.293930	2497.609426
460.666607	2499.981289
461.039224	2501.367606
461.411782	2501.856598
461.784280	2503.164778
462.156719	2504.190652
462.529099	2501.831393
462.901419	2500.760147
463.273680	2501.483553
463.645882	2504.150323
464.018024	2503.721825
464.390106	2504.016733
464.762130	2510.933196
465.134094	2517.796727
465.505999	2528.312574
465.877845	2537.311033
466.249631	2542.165664
466.621358	2541.303627
466.993026	2538.520910
467.364634	2539.753472
467.736184	2534.704757
468.107674	2533.028573
468.479105	2529.456916
468.850477	2530.538243
469.221790	2528.748633
469.593043	2524.708149
469.964238	2526.729651
470.335373	2524.710669
470.706449	2533.981351
471.077467	2537.434542
471.448425	2552.542880
471.819324	2562.105948
472.190164	2560.954045
472.560945	2548.996428
472.931667	2546.102806
473.302330	2542.329502
473.672934	2544.968546
474.043479	2549.172868
474.413965	2542.994934
474.784393	2542.697506
475.154761	2547.345450
475.525070	2547.922662
475.895321	2549.745039
476.265513	2549.253527
476.635645	2557.843653
477.005719	2557.576472
477.375734	2561.934549
477.745691	2568.286403
478.115588	2573.435942
478.485427	2580.773341
478.855207	2594.185331
479.224928	2605.260746
479.594591	2609.402054
479.964194	2612.063783
480.333739	2613.538321
480.703226	2620.500154
481.072653	2623.277830
481.442022	2625.511061
481.811333	2630.474077
482.180584	2628.916360
482.549777	2629.148253
482.918912	2627.461987
483.287988	2632.679582
483.657005	2631.999026
484.025964	2634.723770
484.394864	2635.487504
484.763706	2639.800212
485.132489	2635.734521
485.501213	2640.185860
485.869879	2644.874133
486.238487	2648.082827
486.607036	2651.566265
486.975527	2650.938641
487.343959	2656.007521
487.712333	2660.166473
488.080648	2664.998419
488.448905	2669.391785
488.817104	2674.077537
489.185244	2683.670853
489.553326	2698.892617
489.921350	2716.619834
490.289315	2736.416446
490.657222	2752.623755
491.025070	2760.130033
491.392861	2761.148346
491.760593	2758.703387
492.128267	2756.545773
492.495883	2753.165679
492.863440	2747.265009
493.230939	2751.237438
493.598380	2750.246851
493.965763	2751.686101
494.333088	2756.863366
494.700354	2761.365116
495.067563	2770.043462
495.434713	2774.474637
495.801805	2787.153138
496.168839	2795.904582
496.535815	2801.258287
496.902733	2814.110709
497.269593	2822.844508
497.636395	2831.757268
498.003139	2848.650174
498.369825	2857.704087
498.736453	2877.886346
499.103023	2885.158210
499.469535	2895.437123
499.835989	2912.093095
500.202385	2923.975095
500.568723	2942.367745
500.935003	2963.729634
501.301226	2979.649598
501.667390	3008.802591
502.033497	3033.100952
502.399546	3043.813404
502.765537	3054.568706
503.131470	3085.425609
503.497345	3113.585494
503.863163	3119.791154
504.228923	3150.403561
504.594625	3187.753470
504.960269	3203.867518
505.325856	3246.311513
505.691385	3263.698453
506.056856	3295.601395
506.422270	3343.822552
506.787625	3368.405739
507.152924	3404.134917
507.518164	3445.805094
507.883347	3467.509782
508.248472	3508.683406
508.613540	3568.337900
508.978550	3619.059470
509.343503	3657.694873
509.708398	3709.253274
510.073236	3771.095628
510.438016	3826.220646
510.802738	3857.750543
511.167403	3932.657048
511.532010	4003.334024
511.896561	4068.382553
512.261053	4166.702697
512.625488	4207.893965
512.989866	4263.802882
513.354186	4323.908559
513.718449	4392.503540
514.082655	4494.385259
514.446803	4551.622520
514.810894	4652.372500
515.174927	4728.796392
515.538904	4803.216426
515.902822	4917.963170
516.266684	4970.683557
516.630488	5079.136420
516.994235	5153.770703
517.357925	5284.288696
517.721558	5392.981014
518.085133	5508.851935
518.448651	5608.016473
518.812112	5693.947981
519.175516	5801.765659
519.538863	5932.981853
519.902152	6029.923241
520.265385	6180.489903
520.628560	6291.294465
520.991678	6383.300564
521.354739	6518.461460
521.717743	6667.982083
522.080690	6778.108610
522.443580	6951.957841
522.806413	7075.110709
523.169189	7197.792229
523.531908	7342.001997
523.894569	7452.743544
524.257174	7608.595856
524.619722	7775.619365
524.982213	7907.354798
525.344647	8034.732152
525.707025	8180.030809
526.069345	8367.344963
526.431608	8504.809666
526.793815	8687.470835
527.155964	8773.233464
527.518057	8932.065099
527.880093	9045.012151
528.242072	9277.434549
528.603995	9379.432214
528.965860	9532.784114
529.327669	9703.865752
529.689421	9840.128141
530.051117	9984.121139
530.412755	10172.561990
530.774337	10337.561476
531.135862	10465.170724
531.497331	10658.955198
531.858743	10805.128495
532.220098	11042.808817
532.581396	11141.204578
532.942638	11250.035528
533.303824	11473.028448
533.664953	11640.074642
534.026025	11751.171591
534.387040	12017.611695
534.747999	12186.548322
535.108902	12408.951427
535.469748	12470.052732
535.830537	12689.680682
536.191270	12924.419490
536.551947	13022.157381
536.912567	13282.033903
537.273131	13510.428419
537.633638	13554.735120
537.994089	13829.954394
538.354483	13912.042022
538.714821	14259.485907
539.075103	14549.765628
539.435328	14692.405076
539.795497	14846.460217
540.155609	15038.223189
540.515665	15375.783891
540.875665	15404.460495
541.235609	15707.678337
541.595496	15899.121196
541.955328	16327.994838
542.315102	16319.523179
542.674821	16455.226000
543.034483	16667.622414
543.394090	16860.020571
543.753640	17057.873257
544.113134	17629.091440
544.472571	17478.726424
544.831953	18177.833639
545.191278	18099.103419
545.550548	18207.382363
545.909761	18590.149613
546.268918	18893.387619
546.628019	19239.798068
546.987064	19273.283932
547.346053	19190.661941
547.704986	19765.262739
548.063863	19810.328133
548.422684	20104.061045
548.781449	20262.373440
549.140158	20645.430556
549.498811	20806.883590
549.857408	20770.108373
550.215949	21354.756190
550.574434	21541.546064
550.932864	21660.426554
551.291237	22200.687012
551.649555	22241.608578
552.007817	22566.079925
552.366022	22622.818111
552.724173	22926.524945
553.082267	23345.517927
553.440305	23720.698240
553.798288	23588.148661
554.156215	23967.757628
554.514086	24291.311485
554.871902	24373.880544
555.229661	24605.395534
555.587365	24733.009823
555.945014	25002.958570
556.302606	25181.221332
556.660143	25510.953123
557.017625	25764.969303
557.375050	25881.309052
557.732421	26297.899923
558.089735	26480.782903
558.446994	26649.585939
558.804197	27137.095763
559.161345	27314.433473
559.518437	27079.800529
559.875474	27473.436507
560.232455	27788.281770
560.589381	28099.734337
560.946251	28116.934754
561.303065	28755.752290
561.659825	28832.110647
562.016528	28850.422638
562.373177	28881.506393
562.729770	29384.686644
563.086307	29287.962025
563.442789	29770.748287
563.799216	30014.009166
564.155587	30067.296683
564.511904	30303.981377
564.868164	30553.536136
565.224370	30902.194939
565.580520	30926.079926
565.936615	31263.930495
566.292654	31269.445517
566.648638	31628.975568
567.004567	31782.841666
567.360441	31996.402587
567.716260	32087.831474
568.072023	32493.039420
568.427732	32665.192303
568.783385	32524.738195
569.138982	32986.792713
569.494525	33145.478154
569.850013	33157.609690
570.205445	33314.432425
570.560823	33441.613175
570.916145	33537.135478
571.271412	33735.756940
571.626625	33714.747931
571.981782	33948.952377
572.336884	33872.757857
572.691931	34282.500321
573.046923	34139.941532
573.401860	34200.291705
573.756743	34347.589179
574.111570	34584.601548
574.466342	34635.829753
574.821059	34891.761572
575.175722	34679.707956
575.530330	34843.764747
575.884882	34795.268847
576.239380	34905.765898
576.593823	35025.921800
576.948211	35118.913444
577.302544	34899.409003
577.656823	35060.060493
578.011047	35376.574379
578.365216	35296.775434
578.719330	35263.095485
579.073389	35285.894103
579.427394	35492.591493
579.781344	35600.416733
580.135239	35459.070341
580.489080	35655.503942
580.842866	35373.292588
581.196597	35861.649325
581.550273	35929.853616
581.903895	35935.224966
582.257463	36420.075581
582.610975	36041.472324
582.964434	36373.896091
583.317837	36211.139919
583.671186	36181.525660
584.024481	36500.199680
584.377721	36212.927008
584.730906	36571.496719
585.084037	36711.108954
585.437113	36578.284633
585.790135	36709.463018
586.143103	36482.207802
586.496016	36705.127625
586.848874	36826.531213
587.201679	36938.951464
587.554428	36607.974508
587.907124	36863.157716
588.259765	36745.845025
588.612352	37074.142607
588.964884	36642.435836
589.317362	36996.322315
589.669786	37037.498460
590.022155	36931.682120
590.374470	37374.139152
590.726731	37063.682213
591.078937	36736.264312
591.431090	36904.079282
591.783188	36688.819493
592.135232	36504.030957
592.487222	36786.940511
592.839157	36967.126473
593.191038	36748.337875
593.542866	36619.541436
593.894639	36163.627044
594.246358	36485.202248
594.598022	36545.307925
594.949633	36262.552126
595.301190	36303.829094
595.652692	36241.023879
596.004141	36609.408717
596.355535	35803.991128
596.706876	35830.580694
597.058162	35738.234317
597.409395	36218.976392
597.760573	36358.500407
598.111698	36039.312190
598.462768	36109.376667
598.813785	36222.739614
599.164748	35789.190301
599.515657	36192.911106
599.866511	35802.236807
600.217312	36402.955823
600.568060	35512.922467
600.918753	36256.137258
601.269392	36274.018231
601.619978	36023.661928
601.970510	36252.704232
602.320988	36473.627758
602.671412	36802.084137
603.021783	36620.970603
603.372100	36352.330035
603.722363	36512.245517
604.072572	36619.564121
604.422728	36681.656013
604.772830	36545.202061
605.122878	36672.400454
605.472872	36675.604108
605.822813	36981.466035
606.172701	36868.710547
606.522534	37116.919318
606.872314	37417.041892
607.222041	37231.787050
607.571714	37641.826942
607.921333	37157.745103
608.270899	37474.553896
608.620411	37831.470108
608.969870	37683.038375
609.319276	37722.772749
609.668627	37807.348187
610.017926	38309.366452
610.367171	38496.204216
610.716362	38614.028585
611.065500	38612.332236
611.414585	38814.185077
611.763616	39152.786778
612.112594	39082.500491
612.461518	39329.128861
612.810389	39642.897838
613.159207	39547.436028
613.507971	39663.241414
613.856682	40146.773767
614.205340	40042.028673
614.553945	40755.873702
614.902496	40239.737686
615.250994	40719.660573
615.599439	40816.140696
615.947830	41060.949209
616.296169	41132.936886
616.644454	41276.972733
616.992686	41467.384676
617.340864	41994.061745
617.688990	41743.491193
618.037063	42353.725386
618.385082	42337.082017
618.733048	42646.006445
619.080961	42691.273486
619.428821	42712.678225
619.776628	42836.856968
620.124382	42677.858976
620.472083	42829.345649
620.819731	42977.459790
621.167326	42683.288298
621.514868	42684.803165
621.862357	42279.784262
622.209793	42332.189577
622.557176	42015.844570
622.904506	41799.064873
623.251783	41473.416417
623.599007	41280.554473
623.946179	41078.515109
624.293297	41043.925232
624.640363	40483.336322
624.987376	40496.113126
625.334336	40262.601839
625.681243	39942.740627
626.028097	39919.193398
626.374899	39790.691866
626.721647	39779.450093
627.068343	39691.146721
627.414987	39472.655552
627.761577	39256.448025
628.108115	39603.274368
628.454600	39075.228627
628.801032	39262.522615
629.147412	39237.722659
629.493739	39275.433010
629.840014	38917.785830
630.186236	39287.262078
630.532405	38911.224768
630.878521	39126.837439
631.224585	39012.569605
631.570597	38729.559228
631.916556	38896.877645
632.262462	38865.577120
632.608316	38889.121829
632.954117	38779.776682
633.299866	38787.149369
633.645562	38703.423366
633.991206	38236.201666
634.336797	37822.509458
634.682336	37828.364758
635.027823	37588.118489
635.373257	37426.491535
635.718639	37189.922788
636.063968	37057.801707
636.409245	36500.665987
636.754470	36567.403302
637.099642	36329.735583
637.444762	35868.170058
637.789829	36005.508733
638.134845	35679.088980
638.479808	35631.818080
638.824719	35529.603645
639.169577	35171.568296
639.514383	35244.181076
639.859137	34949.076971
