# Wavelength (nm)  kfactor (W s cts^-1 m^-2) // at each wavelength: Flame (cts) * integration_time (s) * kfactor (W s cts^-1 m^-2) = irradiance (w m^-2)
3.600000000000000000e+02 3.071874534867430480e-07
3.605003909304143690e+02 3.105675042992765987e-07
3.610007818608287948e+02 3.138364200948345435e-07
3.615011727912431638e+02 3.169829620569904096e-07
3.620015637216575328e+02 3.200274460498742404e-07
3.625019546520719587e+02 3.229310147359503130e-07
3.630023455824863277e+02 3.248725563495022889e-07
3.635027365129006967e+02 3.238080523103132336e-07
3.640031274433150656e+02 3.204642749123526786e-07
3.645035183737294915e+02 3.137034709246526619e-07
3.650039093041438605e+02 3.045672104689348808e-07
3.655043002345582295e+02 2.909086671415193375e-07
3.660046911649726553e+02 2.765426850028316433e-07
3.665050820953870243e+02 2.649044860470041515e-07
3.670054730258013933e+02 2.538429089768739552e-07
3.675058639562158191e+02 2.424337617391487617e-07
3.680062548866301881e+02 2.302095647497463442e-07
3.685066458170445571e+02 2.186828816444066176e-07
3.690070367474589261e+02 2.080721692217258190e-07
3.695074276778733520e+02 1.977761417561920970e-07
3.700078186082877210e+02 1.867959214952461404e-07
3.705082095387020900e+02 1.772475624194865020e-07
3.710086004691165158e+02 1.684621378121782402e-07
3.715089913995308848e+02 1.602307204336438550e-07
3.720093823299452538e+02 1.527603708740985797e-07
3.725097732603596796e+02 1.453320869762878340e-07
3.730101641907740486e+02 1.381577753015568746e-07
3.735105551211884176e+02 1.315086303974542734e-07
3.740109460516027866e+02 1.257011006869943177e-07
3.745113369820172124e+02 1.206416817340752640e-07
3.750117279124315814e+02 1.162401102279083916e-07
3.755121188428459504e+02 1.120851506343246329e-07
3.760125097732603763e+02 1.083192027075778235e-07
3.765129007036747453e+02 1.049390578131130025e-07
3.770132916340891143e+02 1.018677708146631287e-07
3.775136825645035401e+02 9.902659396787789034e-08
3.780140734949179091e+02 9.628577988612581908e-08
3.785144644253322781e+02 9.363608090514209861e-08
3.790148553557467039e+02 9.103202378070823744e-08
3.795152462861610729e+02 8.846657856135019963e-08
3.800156372165754419e+02 8.592573954298825147e-08
3.805160281469898109e+02 8.340297707036439515e-08
3.810164190774042368e+02 8.093153367790684455e-08
3.815168100078186058e+02 7.843276562883250158e-08
3.820172009382329747e+02 7.599272323659144154e-08
3.825175918686474006e+02 7.356711141821118060e-08
3.830179827990617696e+02 7.113387391841125843e-08
3.835183737294761386e+02 6.871745590658193296e-08
3.840187646598905076e+02 6.643264479615893319e-08
3.845191555903049334e+02 6.428543096511707690e-08
3.850195465207193024e+02 6.224104552954867908e-08
3.855199374511336714e+02 6.033148820612175808e-08
3.860203283815480972e+02 5.854600869149087385e-08
3.865207193119624662e+02 5.684517479280043826e-08
3.870211102423768352e+02 5.519821134399090613e-08
3.875215011727912611e+02 5.364170597619156856e-08
3.880218921032056301e+02 5.214666413524272895e-08
3.885222830336199991e+02 5.073069521368412984e-08
3.890226739640344249e+02 4.938149893451568517e-08
3.895230648944487939e+02 4.809245106057538878e-08
3.900234558248631629e+02 4.685277581065226722e-08
3.905238467552775319e+02 4.570375530928117815e-08
3.910242376856919577e+02 4.463057423690280784e-08
3.915246286161063267e+02 4.365621845849972245e-08
3.920250195465206957e+02 4.278417252121090099e-08
3.925254104769351216e+02 4.199563084992640071e-08
3.930258014073494905e+02 4.125067511028572350e-08
3.935261923377638595e+02 4.056674680615326480e-08
3.940265832681782854e+02 3.998513862608488077e-08
3.945269741985926544e+02 3.943080064803348826e-08
3.950273651290070234e+02 3.894112489658911697e-08
3.955277560594214492e+02 3.848517903358432464e-08
3.960281469898358182e+02 3.806620395203239553e-08
3.965285379202501872e+02 3.767001456427387795e-08
3.970289288506645562e+02 3.729957013364539284e-08
3.975293197810789820e+02 3.693573670367834094e-08
3.980297107114933510e+02 3.658736710579319404e-08
3.985301016419077200e+02 3.623026683931134156e-08
3.990304925723221459e+02 3.589999729117124786e-08
3.995308835027365149e+02 3.555959137968505386e-08
4.000312744331508839e+02 3.520989994049623011e-08
4.005316653635652528e+02 3.486092788461327474e-08
4.010320562939796787e+02 3.451757887265091241e-08
4.015324472243940477e+02 3.415288599054909578e-08
4.020328381548084167e+02 3.377789706763365851e-08
4.025332290852228425e+02 3.340385519438699659e-08
4.030336200156372115e+02 3.301361164359805200e-08
4.035340109460515805e+02 3.261444185397828824e-08
4.040344018764660063e+02 3.219419501924478336e-08
4.045347928068803753e+02 3.177100869856271896e-08
4.050351837372947443e+02 3.133982172001147677e-08
4.055355746677091702e+02 3.090657594614852107e-08
4.060359655981235392e+02 3.048653638496117958e-08
4.065363565285379082e+02 3.004528252676369450e-08
4.070367474589522772e+02 2.960700202305534909e-08
4.075371383893667030e+02 2.917382480943515703e-08
4.080375293197810720e+02 2.876441225765417542e-08
4.085379202501954410e+02 2.837504728717270295e-08
4.090383111806098668e+02 2.801829494299412800e-08
4.095387021110242358e+02 2.767580873444550076e-08
4.100390930414386048e+02 2.736706186164231583e-08
4.105394839718530307e+02 2.705949735062118603e-08
4.110398749022673996e+02 2.674982703359684296e-08
4.115402658326817686e+02 2.645795597509781728e-08
4.120406567630961945e+02 2.622342041927539042e-08
4.125410476935105635e+02 2.600645036917528591e-08
4.130414386239249325e+02 2.581222369917668724e-08
4.135418295543393015e+02 2.561886250912721691e-08
4.140422204847537273e+02 2.542912606030993969e-08
4.145426114151680963e+02 2.526730633057800577e-08
4.150430023455824653e+02 2.511516066896195682e-08
4.155433932759968911e+02 2.497390276097193583e-08
4.160437842064112601e+02 2.489204766050219769e-08
4.165441751368256291e+02 2.480408137515631299e-08
4.170445660672399981e+02 2.470441997804896475e-08
4.175449569976544240e+02 2.465025762118737287e-08
4.180453479280687930e+02 2.460410420054724279e-08
4.185457388584831619e+02 2.457633176861815827e-08
4.190461297888975878e+02 2.454851223788497827e-08
4.195465207193119568e+02 2.452649761570655562e-08
4.200469116497263258e+02 2.450764571781095027e-08
4.205473025801407516e+02 2.451098172768734914e-08
4.210476935105551206e+02 2.450028945382755806e-08
4.215480844409694896e+02 2.448431585056280873e-08
4.220484753713839154e+02 2.447795641339462355e-08
4.225488663017982844e+02 2.447179380180984419e-08
4.230492572322126534e+02 2.446008711019213731e-08
4.235496481626270224e+02 2.445240461090178002e-08
4.240500390930414483e+02 2.441747948970804530e-08
4.245504300234558173e+02 2.437465719586440611e-08
4.250508209538701863e+02 2.433344965450771626e-08
4.255512118842846121e+02 2.426806867093084475e-08
4.260516028146989811e+02 2.419246299992428769e-08
4.265519937451133501e+02 2.409565624843789914e-08
4.270523846755277191e+02 2.398285760924928349e-08
4.275527756059421449e+02 2.384451229347119030e-08
4.280531665363565139e+02 2.368648669994715220e-08
4.285535574667709398e+02 2.349606684054323422e-08
4.290539483971853087e+02 2.329040108169856864e-08
4.295543393275996777e+02 2.306971216760231494e-08
4.300547302580140467e+02 2.281267686733264752e-08
4.305551211884284726e+02 2.255877629481933494e-08
4.310555121188428416e+02 2.229062582158490491e-08
4.315559030492572106e+02 2.201188272807704729e-08
4.320562939796716364e+02 2.173478393089237487e-08
4.325566849100860054e+02 2.148058913159814914e-08
4.330570758405003744e+02 2.123854357276863113e-08
4.335574667709147434e+02 2.103453037433716018e-08
4.340578577013291692e+02 2.087330789278076292e-08
4.345582486317435382e+02 2.073570208112592270e-08
4.350586395621579641e+02 2.060852354679268553e-08
4.355590304925723331e+02 2.049363090714749020e-08
4.360594214229867021e+02 2.045660449541901798e-08
4.365598123534010711e+02 2.044911124333973351e-08
4.370602032838154400e+02 2.045763385588944013e-08
4.375605942142298659e+02 2.047281510495982099e-08
4.380609851446442349e+02 2.051491759561998165e-08
4.385613760750586607e+02 2.056801190861766500e-08
4.390617670054730297e+02 2.062525911026267031e-08
4.395621579358873987e+02 2.067918453582463018e-08
4.400625488663017677e+02 2.071966254237001692e-08
4.405629397967161935e+02 2.076203927808466214e-08
4.410633307271305625e+02 2.080489276413237885e-08
4.415637216575449315e+02 2.084053709786359181e-08
4.420641125879593574e+02 2.087382421123129859e-08
4.425645035183737264e+02 2.092157093329491057e-08
4.430648944487880954e+02 2.093948007311123913e-08
4.435652853792024644e+02 2.096723427095703223e-08
4.440656763096168902e+02 2.100435893088990947e-08
4.445660672400312592e+02 2.103769646052515153e-08
4.450664581704456850e+02 2.107645579970554948e-08
4.455668491008600540e+02 2.113183995729280942e-08
4.460672400312744230e+02 2.118711098660128414e-08
4.465676309616887920e+02 2.124908039556023020e-08
4.470680218921032179e+02 2.130851735547547237e-08
4.475684128225175868e+02 2.135841245370261430e-08
4.480688037529319558e+02 2.141574738036166706e-08
4.485691946833463817e+02 2.147697623441834674e-08
4.490695856137607507e+02 2.152174002643346199e-08
4.495699765441751197e+02 2.157871200905371188e-08
4.500703674745894887e+02 2.162648947729481210e-08
4.505707584050039145e+02 2.166715346750422521e-08
4.510711493354182835e+02 2.170919960225575145e-08
4.515715402658327093e+02 2.173148079280989357e-08
4.520719311962470783e+02 2.174701112296433839e-08
4.525723221266614473e+02 2.175827865413536606e-08
4.530727130570758163e+02 2.174760105267581014e-08
4.535731039874901853e+02 2.173487955127177652e-08
4.540734949179046112e+02 2.170477231683265233e-08
4.545738858483189802e+02 2.166999053039442415e-08
4.550742767787334060e+02 2.161838510698212973e-08
4.555746677091477750e+02 2.155262180135807146e-08
4.560750586395621440e+02 2.148398702830534119e-08
4.565754495699765130e+02 2.138441462945057250e-08
4.570758405003909388e+02 2.126674840564577931e-08
4.575762314308053078e+02 2.112857614687313803e-08
4.580766223612196768e+02 2.099508067310974925e-08
4.585770132916341026e+02 2.083926241989591699e-08
4.590774042220484716e+02 2.067351390415348157e-08
4.595777951524628406e+02 2.050782669225734801e-08
4.600781860828772096e+02 2.034885799302582205e-08
4.605785770132916355e+02 2.016627317492548992e-08
4.610789679437060045e+02 1.998813849022485551e-08
4.615793588741204303e+02 1.982524363618224524e-08
4.620797498045347993e+02 1.966995295912999360e-08
4.625801407349491683e+02 1.953349465867138726e-08
4.630805316653635373e+02 1.940014949180312785e-08
4.635809225957779631e+02 1.926956031380907586e-08
4.640813135261923321e+02 1.915008969379548686e-08
4.645817044566067011e+02 1.902797174840835576e-08
4.650820953870211270e+02 1.891263169927463083e-08
4.655824863174354959e+02 1.881892929345848723e-08
4.660828772478498649e+02 1.872352098343386423e-08
4.665832681782642339e+02 1.863697788756508447e-08
4.670836591086786598e+02 1.854382470753573700e-08
4.675840500390930288e+02 1.845014035981942864e-08
4.680844409695074546e+02 1.834432308023119146e-08
4.685848318999218236e+02 1.824055211530512652e-08
4.690852228303361926e+02 1.813328618069868957e-08
4.695856137607505616e+02 1.803656249692852534e-08
4.700860046911649306e+02 1.793112358207959186e-08
4.705863956215793564e+02 1.782242179811204413e-08
4.710867865519937254e+02 1.771364898109934613e-08
4.715871774824081513e+02 1.761579167211386070e-08
4.720875684128225203e+02 1.750770577695786746e-08
4.725879593432368893e+02 1.740680347385335042e-08
4.730883502736512582e+02 1.730550322288164882e-08
4.735887412040656841e+02 1.720298147682287336e-08
4.740891321344800531e+02 1.711050550354646377e-08
4.745895230648944221e+02 1.702211555742697490e-08
4.750899139953088479e+02 1.693585928971244412e-08
4.755903049257232169e+02 1.685287611855424411e-08
4.760906958561375859e+02 1.677210063539861715e-08
4.765910867865519549e+02 1.669559185206727573e-08
4.770914777169663807e+02 1.661960745818480396e-08
4.775918686473807497e+02 1.654612147372188021e-08
4.780922595777951756e+02 1.646924907339616926e-08
4.785926505082095446e+02 1.639507886669838938e-08
4.790930414386239136e+02 1.632268280153254874e-08
4.795934323690382826e+02 1.625049428947402777e-08
4.800938232994527084e+02 1.618285657463419285e-08
4.805942142298670774e+02 1.611596800749598010e-08
4.810946051602814464e+02 1.604557424967595133e-08
4.815949960906958722e+02 1.597560399271090074e-08
4.820953870211102412e+02 1.590855760106483785e-08
4.825957779515246102e+02 1.583890570424472873e-08
4.830961688819389792e+02 1.576878714757006887e-08
4.835965598123534051e+02 1.569949211761632011e-08
4.840969507427677740e+02 1.562880621779158787e-08
4.845973416731821999e+02 1.555880460097318905e-08
4.850977326035965689e+02 1.549115788452630146e-08
4.855981235340109379e+02 1.542906943746586637e-08
4.860985144644253069e+02 1.536588079834209362e-08
4.865989053948396759e+02 1.530640663446764546e-08
4.870992963252541017e+02 1.524816244003988015e-08
4.875996872556684707e+02 1.519111178432294819e-08
4.881000781860828965e+02 1.513925135470570542e-08
4.886004691164972655e+02 1.509111972961065656e-08
4.891008600469116345e+02 1.504454098436135906e-08
4.896012509773260035e+02 1.500271147733464019e-08
4.901016419077403725e+02 1.496597082247629762e-08
4.906020328381547984e+02 1.493631083785682602e-08
4.911024237685692242e+02 1.490862515702354772e-08
4.916028146989835932e+02 1.488380602194816768e-08
4.921032056293979622e+02 1.486871289098225411e-08
4.926035965598123312e+02 1.485663761295631249e-08
4.931039874902267002e+02 1.485029710033715985e-08
4.936043784206411260e+02 1.484583027020803962e-08
4.941047693510554950e+02 1.484330959446921273e-08
4.946051602814699208e+02 1.484489729781054914e-08
4.951055512118842898e+02 1.485367726509417085e-08
4.956059421422986588e+02 1.487049415291145209e-08
4.961063330727130278e+02 1.489521439067471904e-08
4.966067240031273968e+02 1.492518145584293459e-08
4.971071149335418227e+02 1.496327628058727220e-08
4.976075058639562485e+02 1.500739119871807083e-08
4.981078967943706175e+02 1.505182890246405998e-08
4.986082877247849865e+02 1.509593964292150425e-08
4.991086786551993555e+02 1.514223767784926343e-08
4.996090695856137245e+02 1.518815962822154101e-08
5.001094605160281503e+02 1.523772799788860810e-08
5.006098514464425193e+02 1.528744003132645920e-08
5.011102423768569452e+02 1.533484036414404656e-08
5.016106333072713142e+02 1.537916008965560485e-08
5.021110242376856831e+02 1.542083832342729944e-08
5.026114151681000521e+02 1.546217567166983612e-08
5.031118060985144211e+02 1.550132566797884974e-08
5.036121970289288470e+02 1.553539907422666642e-08
5.041125879593432160e+02 1.556766362141568899e-08
5.046129788897576418e+02 1.559689209572126037e-08
5.051133698201720108e+02 1.562294161811251405e-08
5.056137607505863798e+02 1.564771522509401026e-08
5.061141516810007488e+02 1.566913688917737253e-08
5.066145426114151178e+02 1.568852710092895248e-08
5.071149335418295436e+02 1.570692143552869876e-08
5.076153244722439695e+02 1.572256138613482873e-08
5.081157154026583385e+02 1.573693463211303361e-08
5.086161063330727075e+02 1.575085810276363622e-08
5.091164972634870765e+02 1.576290391890528014e-08
5.096168881939014454e+02 1.577453490428559259e-08
5.101172791243158713e+02 1.578400287194622265e-08
5.106176700547302403e+02 1.579142782278921264e-08
5.111180609851446661e+02 1.579696004414706895e-08
5.116184519155590351e+02 1.580025072269266915e-08
5.121188428459734041e+02 1.580095370886519950e-08
5.126192337763877731e+02 1.579862677512273982e-08
5.131196247068021421e+02 1.579703712943037749e-08
5.136200156372165111e+02 1.579382932954714545e-08
5.141204065676308801e+02 1.578549696009928714e-08
5.146207974980453628e+02 1.578019870935012059e-08
5.151211884284597318e+02 1.577219248415789054e-08
5.156215793588741008e+02 1.576361509173497292e-08
5.161219702892884698e+02 1.575489150384583195e-08
5.166223612197029524e+02 1.574642176971205690e-08
5.171227521501173214e+02 1.573174982859088030e-08
5.176231430805316904e+02 1.571436351708495170e-08
5.181235340109460594e+02 1.569348930187350364e-08
5.186239249413604284e+02 1.566810673310670395e-08
5.191243158717747974e+02 1.563608776360206455e-08
5.196247068021891664e+02 1.560175540202251728e-08
5.201250977326035354e+02 1.556886107226254862e-08
5.206254886630179044e+02 1.553608823882584222e-08
5.211258795934323871e+02 1.550264567320866003e-08
5.216262705238467561e+02 1.547004408355620666e-08
5.221266614542611251e+02 1.543507691004437007e-08
5.226270523846754941e+02 1.540263919951758147e-08
5.231274433150898631e+02 1.537212873560025870e-08
5.236278342455043457e+02 1.534743180524038147e-08
5.241282251759187147e+02 1.532190863026301198e-08
5.246286161063330837e+02 1.529664700394442190e-08
5.251290070367474527e+02 1.527494807359155531e-08
5.256293979671618217e+02 1.525517412526180890e-08
5.261297888975761907e+02 1.523797720955088200e-08
5.266301798279905597e+02 1.522073221461644200e-08
5.271305707584049287e+02 1.520751592256991993e-08
5.276309616888194114e+02 1.519328510696739095e-08
5.281313526192337804e+02 1.518232645131318121e-08
5.286317435496481494e+02 1.517040334022298809e-08
5.291321344800625184e+02 1.516045380410855696e-08
5.296325254104768874e+02 1.515212215250876999e-08
5.301329163408913701e+02 1.514222930209377892e-08
5.306333072713057391e+02 1.513323529274011484e-08
5.311336982017201080e+02 1.512388544571216472e-08
5.316340891321344770e+02 1.511427099752498552e-08
5.321344800625488460e+02 1.510748881572151171e-08
5.326348709929632150e+02 1.510126462511487000e-08
5.331352619233775840e+02 1.509660606659524861e-08
5.336356528537919530e+02 1.508993531473535144e-08
5.341360437842064357e+02 1.508591874757516963e-08
5.346364347146208047e+02 1.507948396389194598e-08
5.351368256450351737e+02 1.507624408844585404e-08
5.356372165754495427e+02 1.507215184356535589e-08
5.361376075058639117e+02 1.506702336547449307e-08
5.366379984362783944e+02 1.506288831314011450e-08
5.371383893666927634e+02 1.506033087669499866e-08
5.376387802971071324e+02 1.505770458129474647e-08
5.381391712275215014e+02 1.505465530614038911e-08
5.386395621579358703e+02 1.504952655639093594e-08
5.391399530883502393e+02 1.504405991547671121e-08
5.396403440187646083e+02 1.503984144381680268e-08
5.401407349491789773e+02 1.503327758030715449e-08
5.406411258795934600e+02 1.502768899587790499e-08
5.411415168100078290e+02 1.502095032506093717e-08
5.416419077404221980e+02 1.501461479555833665e-08
5.421422986708365670e+02 1.500941624542924819e-08
5.426426896012509360e+02 1.500261162997384639e-08
5.431430805316654187e+02 1.499329093436996895e-08
5.436434714620797877e+02 1.498559200854107489e-08
5.441438623924941567e+02 1.497479264787233364e-08
5.446442533229085257e+02 1.496491281110403681e-08
5.451446442533228947e+02 1.495392020934324372e-08
5.456450351837372637e+02 1.494333828450044570e-08
5.461454261141516326e+02 1.493256225246959308e-08
5.466458170445660016e+02 1.492034434785484308e-08
5.471462079749803706e+02 1.490835529387838634e-08
5.476465989053948533e+02 1.489459483889793859e-08
5.481469898358092223e+02 1.488151905739116175e-08
5.486473807662235913e+02 1.486554149535869454e-08
5.491477716966379603e+02 1.485266979591160491e-08
5.496481626270523293e+02 1.483722704512992570e-08
5.501485535574668120e+02 1.482319983517600505e-08
5.506489444878811810e+02 1.480943663924596037e-08
5.511493354182955500e+02 1.479163193684787327e-08
5.516497263487099190e+02 1.477689600993347020e-08
5.521501172791242880e+02 1.476171697106114009e-08
5.526505082095386570e+02 1.474698093171237935e-08
5.531508991399530260e+02 1.473300391224813271e-08
5.536512900703673949e+02 1.471547519826967781e-08
5.541516810007818776e+02 1.469768087908189719e-08
5.546520719311962466e+02 1.467911630824237931e-08
5.551524628616106156e+02 1.466314903328890589e-08
5.556528537920249846e+02 1.464569031958598234e-08
5.561532447224393536e+02 1.463196368662078863e-08
5.566536356528538363e+02 1.461535680222572640e-08
5.571540265832682053e+02 1.460088562806494723e-08
5.576544175136825743e+02 1.458779110863468951e-08
