Dividing Wavelength (nm)	Counts (n)	Blue Motor Position (mm): 16.000000	Red Motor Position (mm): 0.000000	
326.493990	2070.018757
326.888308	2070.018757
327.282561	2070.018757
327.676750	2043.265353
328.070874	2046.385828
328.464933	2050.494368
328.858929	2056.286654
329.252859	2069.292831
329.646726	2083.060222
330.040528	2099.874991
330.434265	2117.839142
330.827938	2138.195322
331.221547	2158.014618
331.615091	2178.433812
332.008571	2199.843592
332.401986	2217.953937
332.795338	2239.139386
333.188625	2260.624784
333.581847	2276.270005
333.975006	2295.282717
334.368100	2312.551189
334.761129	2329.731441
335.154095	2345.346415
335.546996	2385.569782
335.939833	2468.307719
336.332606	2478.412712
336.725315	2490.307315
337.117960	2503.522700
337.510540	2510.630727
337.903056	2520.541635
338.295508	2527.286699
338.687896	2535.395395
339.080220	2537.369007
339.472480	2544.018288
339.864676	2545.192877
340.256807	2552.376522
340.648875	2549.840821
341.040879	2554.045143
341.432818	2556.112017
341.824694	2553.883827
342.216506	2555.159238
342.608253	2552.074052
342.999937	2553.498178
343.391557	2554.685370
343.783113	2551.292673
344.174605	2549.913918
344.566033	2547.542055
344.957397	2545.883515
345.348697	2544.000644
345.739934	2543.244471
346.131106	2539.088040
346.522215	2538.047042
346.913260	2537.232895
347.304241	2538.122659
347.695159	2536.224665
348.086012	2536.199459
348.476802	2529.068747
348.867528	2527.488345
349.258191	2523.571368
349.648789	2523.253776
350.039324	2522.139681
350.429796	2526.651513
350.820203	2524.992974
351.210548	2524.745957
351.600828	2521.542304
351.991045	2521.302849
352.381198	2521.549866
352.771288	2522.910977
353.161314	2520.158507
353.551276	2521.953158
353.941175	2516.856552
354.331010	2518.981398
354.720782	2524.811492
355.110490	2525.512213
355.500135	2520.473579
355.889717	2520.171110
356.279235	2522.948786
356.668689	2523.314270
357.058080	2522.346368
357.447408	2524.730834
357.836672	2524.534229
358.225873	2524.420803
358.615010	2523.092459
359.004084	2521.806965
359.393095	2525.431554
359.782043	2525.013138
360.170927	2528.675537
360.559748	2528.002543
360.948505	2525.436595
361.337199	2528.352903
361.725830	2527.901720
362.114398	2526.651513
362.502903	2527.100176
362.891344	2530.712163
363.279722	2528.557070
363.668037	2529.545136
364.056289	2528.224353
364.444478	2531.619571
364.832603	2532.542102
365.220665	2532.037986
365.608665	2532.869777
365.996601	2532.955476
366.384474	2536.254912
366.772284	2530.031607
367.160031	2531.627132
367.547715	2531.571680
367.935336	2532.678213
368.322893	2532.600075
368.710388	2528.453726
369.097820	2531.420445
369.485189	2531.052441
369.872495	2536.073430
370.259738	2536.416228
370.646918	2534.364479
371.034035	2539.740869
371.421090	2538.838503
371.808081	2534.989582
372.195010	2538.029398
372.581875	2536.000333
372.968678	2536.590148
373.355418	2536.509490
373.742096	2535.516382
374.128710	2538.599048
374.515262	2538.851106
374.901751	2535.455889
375.288177	2541.583411
375.674540	2539.443441
376.060841	2539.037628
376.447079	2538.619213
376.833254	2540.323123
377.219367	2541.999306
377.605417	2538.283976
377.991404	2537.479912
378.377329	2539.065355
378.763191	2539.229192
379.148991	2542.672300
379.534727	2541.086857
379.920402	2541.948895
380.306013	2541.008720
380.691563	2541.323792
381.077049	2540.101312
381.462474	2538.641898
381.847835	2542.195911
382.233134	2543.473844
382.618371	2542.442928
383.003545	2541.505273
383.388657	2544.214893
383.773706	2540.151723
384.158693	2538.692309
384.543618	2542.019471
384.928480	2545.510470
385.313280	2543.098278
385.698017	2541.837989
386.082692	2545.633978
386.467305	2543.952753
386.851856	2547.153886
387.236344	2541.404450
387.620770	2542.833617
388.005133	2541.139790
388.389435	2545.492826
388.773674	2541.795140
389.157851	2548.283105
389.541965	2543.178936
389.926018	2549.314021
390.310008	2547.421067
390.693936	2544.673638
391.077802	2545.606252
391.461606	2548.278063
391.845348	2550.168496
392.229027	2545.492826
392.612645	2546.276725
392.996200	2546.455686
393.379694	2548.157076
393.763125	2548.484751
394.146494	2548.726726
394.529801	2551.683363
394.913047	2547.312682
395.296230	2550.513815
395.679351	2550.218908
396.062410	2550.264278
396.445408	2550.440718
396.828343	2549.276212
397.211217	2548.172199
397.594028	2554.972716
397.976778	2552.507592
398.359466	2551.310318
398.742092	2551.307797
399.124656	2551.048178
399.507158	2552.671429
399.889598	2552.719320
400.271977	2552.941131
400.654294	2553.704866
401.036549	2551.917777
401.418742	2554.466080
401.800874	2551.562375
402.182944	2551.937941
402.564952	2552.172355
402.946898	2551.769063
403.328783	2550.927190
403.710606	2554.703014
404.092367	2554.042623
404.474067	2552.933569
404.855705	2555.963303
405.237282	2555.617983
405.618797	2554.357695
406.000250	2553.384752
406.381642	2554.337530
406.762972	2551.552293
407.144240	2551.953065
407.525447	2555.151677
407.906593	2551.595143
408.287677	2552.966337
408.668700	2554.440874
409.049661	2555.315514
409.430560	2557.513457
409.811399	2554.345092
410.192176	2559.045968
410.572891	2553.667057
410.953545	2557.689898
411.334138	2557.755433
411.714669	2557.284085
412.095139	2557.024465
412.475547	2558.526729
412.855894	2557.992367
413.236180	2557.266441
413.616405	2556.593447
413.996568	2556.558159
414.376670	2558.534291
414.756711	2554.655123
415.136691	2558.312480
415.516609	2558.204095
415.896466	2557.667212
416.276262	2557.707542
416.655997	2560.099569
417.035670	2559.368602
417.415283	2558.294836
417.794834	2559.257697
418.174324	2556.359033
418.553753	2556.510268
418.933121	2559.071174
419.312428	2557.485731
419.691674	2557.049671
420.070859	2560.041596
420.449983	2557.624363
420.829045	2560.911195
421.208047	2558.428427
421.586988	2560.770043
421.965867	2560.959086
422.344686	2562.400856
422.723444	2560.424724
423.102141	2559.890361
423.480777	2559.565207
423.859352	2561.090156
424.237866	2561.679971
424.616319	2561.092677
424.994712	2560.225598
425.373044	2558.599826
425.751314	2556.795093
426.129524	2558.667882
426.507673	2557.170659
426.885762	2556.444733
427.263789	2559.353478
427.641756	2563.565363
428.019662	2560.618808
428.397508	2562.027811
428.775292	2562.274827
429.153016	2560.865825
429.530679	2563.976217
429.908282	2560.780125
430.285824	2561.654765
430.663305	2561.712738
431.040726	2560.530588
431.418086	2559.615618
431.795385	2561.982440
432.172624	2561.440516
432.549802	2561.390105
432.926920	2560.800290
433.303977	2560.752399
433.680974	2562.761298
434.057910	2562.985630
434.434786	2560.946483
434.811601	2562.491597
435.188355	2562.733572
435.565050	2559.292985
435.941683	2560.858263
436.318257	2561.148129
436.694770	2560.429765
437.071222	2564.389591
437.447614	2563.462019
437.823946	2560.323901
438.200218	2564.976886
438.576429	2561.806000
438.952580	2562.857080
439.328670	2564.215671
439.704700	2563.615774
440.080670	2562.138716
440.456580	2560.777604
440.832429	2563.875393
441.208218	2564.876063
441.583947	2565.591906
441.959616	2562.620146
442.335224	2564.734910
442.710773	2565.022256
443.086261	2567.704150
443.461689	2562.897410
443.837057	2565.367575
444.212365	2561.077553
444.587612	2562.970506
444.962800	2557.798283
445.337927	2561.715259
445.712995	2558.577141
446.088002	2566.214489
446.462949	2565.067626
446.837837	2566.287586
447.212664	2564.200548
447.587431	2566.844633
447.962139	2564.283727
448.336786	2565.314643
448.711374	2566.401012
449.085901	2563.288099
449.460369	2562.872204
449.834776	2561.929508
450.209124	2566.164077
450.583412	2564.868501
450.957640	2568.004098
451.331808	2564.245918
451.705917	2568.455282
452.079965	2564.049313
452.453954	2563.383881
452.827883	2567.411763
453.201752	2563.938408
453.575562	2565.042421
453.949311	2568.823286
454.323001	2565.249108
454.696632	2567.837740
455.070202	2567.134499
455.443713	2566.453944
455.817164	2567.668862
456.190556	2566.272462
456.563888	2569.970148
456.937160	2567.913358
457.310373	2563.706515
457.683526	2566.816907
458.056619	2567.762123
458.429653	2565.783470
458.802628	2566.033007
459.175542	2570.010478
459.548398	2567.603327
459.921194	2566.605178
460.293930	2566.907647
460.666607	2566.859757
461.039224	2567.636094
461.411782	2571.437124
461.784280	2571.563153
462.156719	2568.044428
462.529099	2570.383523
462.901419	2568.490570
463.273680	2566.048131
463.645882	2565.549057
464.018024	2568.636763
464.390106	2565.937225
464.762130	2571.636250
465.134094	2570.456620
465.505999	2571.608523
465.877845	2572.568863
466.249631	2573.751014
466.621358	2573.771178
466.993026	2572.911662
467.364634	2577.794019
467.736184	2571.200190
468.107674	2570.184397
468.479105	2570.789336
468.850477	2573.093143
469.221790	2572.755386
469.593043	2573.163719
469.964238	2573.181363
470.335373	2570.912844
470.706449	2572.959553
471.077467	2571.212793
471.448425	2576.498443
471.819324	2574.214800
472.190164	2574.401323
472.560945	2574.088771
472.931667	2574.146744
473.302330	2575.601117
473.672934	2572.082392
474.043479	2573.004923
474.413965	2573.940057
474.784393	2573.977866
475.154761	2573.655232
475.525070	2573.877043
475.895321	2572.894018
476.265513	2572.611713
476.635645	2576.939544
477.005719	2575.795202
477.375734	2576.901735
477.745691	2579.326530
478.115588	2578.522466
478.485427	2577.226889
478.855207	2582.681418
479.224928	2580.312076
479.594591	2582.557910
479.964194	2581.222004
480.333739	2580.811150
480.703226	2581.469020
481.072653	2583.160327
481.442022	2581.363156
481.811333	2581.378280
482.180584	2578.209914
482.549777	2581.174113
482.918912	2580.072621
483.287988	2583.329206
483.657005	2587.036975
484.025964	2583.011613
484.394864	2583.334247
484.763706	2586.406831
485.132489	2581.496747
485.501213	2586.066553
485.869879	2586.169896
486.238487	2586.999166
486.607036	2588.393045
486.975527	2586.164855
487.343959	2585.275092
487.712333	2588.367839
488.080648	2588.267016
488.448905	2589.549990
488.817104	2591.405135
489.185244	2593.519899
489.553326	2594.371854
489.921350	2594.576020
490.289315	2597.479725
490.657222	2602.699840
491.025070	2603.705550
491.392861	2604.176898
491.760593	2602.581373
492.128267	2601.618512
492.495883	2602.525920
492.863440	2600.010384
493.230939	2602.840992
493.598380	2600.227154
493.965763	2602.379727
494.333088	2601.308481
494.700354	2603.894593
495.067563	2603.266970
495.434713	2607.264605
495.801805	2603.261928
496.168839	2604.617999
496.535815	2608.056066
496.902733	2607.952722
497.269593	2610.153186
497.636395	2608.769389
498.003139	2611.841972
498.369825	2611.899946
498.736453	2612.714092
499.103023	2611.877260
499.469535	2614.339864
499.835989	2616.784824
500.202385	2613.949175
500.568723	2609.777620
500.935003	2612.850203
501.301226	2616.094186
501.667390	2622.130967
502.033497	2619.418827
502.399546	2620.764815
502.765537	2622.299846
503.131470	2626.814199
503.497345	2624.492748
503.863163	2623.378653
504.228923	2625.790845
504.594625	2627.519961
504.960269	2628.465177
505.325856	2633.256794
505.691385	2633.521454
506.056856	2635.684109
506.422270	2634.106228
506.787625	2636.944398
507.152924	2634.890128
507.518164	2639.659059
507.883347	2638.718884
508.248472	2639.704430
508.613540	2642.875315
508.978550	2646.290697
509.343503	2646.779689
509.708398	2647.838331
510.073236	2651.455359
510.438016	2652.113230
510.802738	2651.578868
511.167403	2655.246307
511.532010	2657.038437
511.896561	2658.497851
512.261053	2663.544046
512.625488	2663.763336
512.989866	2665.933553
513.354186	2668.539830
513.718449	2667.070333
514.082655	2670.994872
514.446803	2674.042249
514.810894	2675.400840
515.174927	2679.874864
515.538904	2680.782272
515.902822	2682.080369
516.266684	2684.066583
516.630488	2685.836028
516.994235	2692.606298
517.357925	2692.800382
517.721558	2698.496886
518.085133	2703.412011
518.448651	2700.072247
518.812112	2702.411342
519.175516	2708.601879
519.538863	2709.534493
519.902152	2719.231152
520.265385	2724.179045
520.628560	2727.223902
520.991678	2728.791700
521.354739	2735.304871
521.717743	2738.677403
522.080690	2744.142014
522.443580	2750.718199
522.806413	2757.780856
523.169189	2758.269847
523.531908	2766.549943
523.894569	2772.075047
524.257174	2776.538989
524.619722	2786.752367
524.982213	2789.078859
525.344647	2797.444654
525.707025	2805.903710
526.069345	2815.653302
526.431608	2820.649085
526.793815	2830.680981
527.155964	2834.940756
527.518057	2844.395440
527.880093	2853.164527
528.242072	2864.983513
528.603995	2871.920140
528.965860	2884.107130
529.327669	2893.556773
529.689421	2904.491035
530.051117	2917.673653
530.412755	2924.854776
530.774337	2938.929678
531.135862	2951.789661
531.497331	2966.076291
531.858743	2979.702530
532.220098	3000.706498
532.581396	3009.581449
532.942638	3022.731299
533.303824	3039.866181
533.664953	3058.619273
534.026025	3070.488670
534.387040	3092.319387
534.747999	3113.517438
535.108902	3139.000471
535.469748	3148.908859
535.830537	3170.578259
536.191270	3198.478525
536.551947	3210.806667
536.912567	3238.013774
537.273131	3264.822630
537.633638	3279.759569
537.994089	3313.623520
538.354483	3336.122189
538.714821	3370.200389
539.075103	3407.938467
539.435328	3433.050975
539.795497	3458.972588
540.155609	3493.567506
540.515665	3536.001419
540.875665	3552.105385
541.235609	3591.822115
541.595496	3632.995739
541.955328	3679.419725
542.315102	3705.248077
542.674821	3738.721338
543.034483	3774.047224
543.394090	3812.717915
543.753640	3856.018906
544.113134	3931.411883
544.472571	3950.159934
544.831953	4027.957540
545.191278	4052.328999
545.550548	4089.384000
545.909761	4155.657529
546.268918	4214.931416
546.628019	4279.548926
546.987064	4311.804749
547.346053	4339.987319
547.704986	4432.805044
548.063863	4473.494717
548.422684	4538.596178
548.781449	4580.117642
549.140158	4662.595960
549.498811	4717.035380
549.857408	4745.525461
550.215949	4852.801215
550.574434	4914.149537
550.932864	4976.556501
551.291237	5086.133541
551.649555	5138.180934
552.007817	5220.165219
552.366022	5278.829127
552.724173	5352.782853
553.082267	5463.254699
553.440305	5563.213218
553.798288	5601.364670
554.156215	5700.496440
554.514086	5793.740142
554.871902	5854.339852
555.229661	5956.002282
555.587365	6018.678947
555.945014	6126.221882
556.302606	6214.177414
556.660143	6313.460418
557.017625	6428.854951
557.375050	6498.317009
557.732421	6628.545137
558.089735	6737.812146
558.446994	6825.460168
558.804197	6974.612787
559.161345	7064.302475
559.518437	7100.170285
559.875474	7237.796305
560.232455	7362.385902
560.589381	7480.548028
560.946251	7570.154537
561.303065	7770.316071
561.659825	7843.937082
562.016528	7936.666587
562.373177	8004.671752
562.729770	8205.642391
563.086307	8266.065661
563.442789	8451.340668
563.799216	8561.988954
564.155587	8672.077671
564.511904	8800.811097
564.868164	8932.922095
565.224370	9113.125701
565.580520	9202.371768
565.936615	9363.731541
566.292654	9444.846227
566.648638	9650.192588
567.004567	9777.065827
567.360441	9938.642369
567.716260	10029.274754
568.072023	10237.741589
568.427732	10379.546726
568.783385	10439.624677
569.138982	10664.490385
569.494525	10842.344814
569.850013	10915.958263
570.205445	11093.726991
570.560823	11211.377440
570.916145	11333.264978
571.271412	11530.719412
571.626625	11628.991666
571.981782	11796.988117
572.336884	11872.766742
572.691931	12096.435177
573.046923	12182.344000
573.401860	12311.165645
573.756743	12487.454795
574.111570	12690.799818
574.466342	12844.088703
574.821059	13058.473853
575.175722	13099.710492
575.530330	13298.364721
575.884882	13376.081669
576.239380	13517.763298
576.593823	13716.667064
576.948211	13866.984189
577.302544	13922.215071
577.656823	14086.203805
578.011047	14344.152086
578.365216	14471.821828
578.719330	14563.661568
579.073389	14739.028187
579.427394	14932.033803
579.781344	15084.001907
580.135239	15189.082238
580.489080	15389.268978
580.842866	15413.978193
581.196597	15745.328195
581.550273	15928.717810
581.903895	16085.328816
582.257463	16416.015905
582.610975	16419.413643
582.964434	16717.492029
583.317837	16729.011065
583.671186	16901.597488
584.024481	17187.163730
584.377721	17214.433851
584.730906	17478.310529
585.084037	17726.431080
585.437113	17807.754974
585.790135	18044.031334
586.143103	18071.271209
586.496016	18329.595055
586.848874	18563.376044
587.201679	18783.440054
587.554428	18758.826620
587.907124	19052.274706
588.259765	19150.191558
588.612352	19396.119207
588.964884	19371.954436
589.317362	19679.207722
589.669786	19867.343583
590.022155	19999.101701
590.374470	20384.525639
590.726731	20397.589789
591.078937	20280.914804
591.431090	20620.776793
591.783188	20588.957030
592.135232	20688.270282
592.487222	20990.386632
592.839157	21251.815829
593.191038	21266.810741
593.542866	21349.541117
593.894639	21221.014379
594.246358	21558.423847
594.598022	21746.796643
594.949633	21705.287782
595.301190	21877.596941
595.652692	22020.947192
596.004141	22460.419861
596.355535	22060.593346
596.706876	22236.731262
597.058162	22257.105085
597.409395	22693.961395
597.760573	22990.633299
598.111698	22951.576959
598.462768	23087.468823
598.813785	23276.562504
599.164748	23229.846131
599.515657	23531.319734
599.866511	23416.663731
600.217312	23977.388753
600.568060	23540.179562
600.918753	24167.838504
601.269392	24281.551811
601.619978	24285.557008
601.970510	24575.647685
602.320988	24812.949920
602.671412	25128.715194
603.021783	25208.549427
603.372100	25101.359373
603.722363	25327.339176
604.072572	25509.839028
604.422728	25656.677757
604.772830	25672.005385
605.122878	25925.759426
605.472872	25984.181358
605.822813	26298.835057
606.172701	26290.277699
606.522534	26644.796843
606.872314	26921.231035
607.222041	26969.096791
607.571714	27329.322521
607.921333	27144.959963
608.270899	27403.240960
608.620411	27832.888420
608.969870	27816.602972
609.319276	27962.355333
609.668627	28119.198232
610.017926	28520.106074
610.367171	28774.724672
610.716362	28932.507747
611.065500	29008.387194
611.414585	29293.769434
611.763616	29547.967096
612.112594	29608.521436
612.461518	29827.970425
612.810389	30230.393133
613.159207	30211.236749
613.507971	30318.721711
613.856682	30818.471456
614.205340	30813.556331
614.553945	31448.608125
614.902496	31086.126478
615.250994	31519.353158
615.599439	31691.674919
615.947830	31891.559190
616.296169	32011.387417
616.644454	32174.236851
616.992686	32395.649369
617.340864	32853.181971
617.688990	32576.989755
618.037063	33183.579194
618.385082	33175.077288
618.733048	33576.262394
619.080961	33580.877570
619.428821	33735.577979
619.776628	33874.219792
620.124382	33850.233982
620.472083	34067.255655
620.819731	34254.474027
621.167326	34048.215217
621.514868	34171.821789
621.862357	33862.284860
622.209793	34056.328954
622.557176	33834.445088
622.904506	33767.982516
623.251783	33598.934983
623.599007	33455.095741
623.946179	33522.662326
624.293297	33406.756116
624.640363	33075.111208
624.987376	33050.039029
625.334336	33001.681761
625.681243	32756.170007
626.028097	32780.720426
626.374899	32726.671695
626.721647	32774.527368
627.068343	32668.486697
627.414987	32517.584798
627.761577	32394.482342
628.108115	32749.840838
628.454600	32197.935315
628.801032	32465.630667
629.147412	32461.907774
629.493739	32448.654581
629.840014	32158.238749
630.186236	32567.010791
630.532405	32179.189784
630.878521	32464.612353
631.224585	32330.580676
631.570597	32119.386576
631.916556	32317.254385
632.262462	32306.201656
632.608316	32306.859526
632.954117	32275.203601
633.299866	32294.430561
633.645562	32290.717752
633.991206	31923.878027
634.336797	31648.260502
634.682336	31616.803702
635.027823	31495.132934
635.373257	31471.754583
635.718639	31246.392321
636.063968	31221.544473
636.409245	30748.520405
636.754470	30744.921021
637.099642	30605.780134
637.444762	30170.784010
637.789829	30336.670739
638.134845	30053.831761
638.479808	30030.287052
638.824719	30057.385775
639.169577	29663.666618
639.514383	29807.984770
639.859137	29512.225315
640.203839	29697.036536
640.548489	29506.062505
640.893086	29535.843121
641.237632	29331.111781
