Dividing Wavelength (nm)	Counts (n)	Blue Motor Position (mm): 3.500000	Red Motor Position (mm): 0.000000	
326.493990	2067.016750
326.888308	2067.016750
327.282561	2067.016750
327.676750	2041.453059
328.070874	2044.271064
328.464933	2051.215253
328.858929	2058.923177
329.252859	2065.930381
329.646726	2078.777762
330.040528	2098.183683
330.434265	2112.142638
330.827938	2132.879425
331.221547	2157.349186
331.615091	2173.644715
332.008571	2194.792356
332.401986	2217.507795
332.795338	2239.330950
333.188625	2256.443147
333.581847	2273.920827
333.975006	2291.257355
334.368100	2311.003555
334.761129	2326.401759
335.154095	2343.312310
335.546996	2357.341841
335.939833	2370.295086
336.332606	2384.390152
336.725315	2395.331976
337.117960	2406.304048
337.510540	2414.039698
337.903056	2426.148550
338.295508	2432.364292
338.687896	2440.215890
339.080220	2444.415171
339.472480	2450.247786
339.864676	2454.081583
340.256807	2453.902622
340.648875	2457.474280
341.040879	2459.672223
341.432818	2461.277830
341.824694	2462.918726
342.216506	2460.015021
342.608253	2461.804631
342.999937	2460.682974
343.391557	2460.181379
343.783113	2460.052830
344.174605	2455.591409
344.566033	2457.703652
344.957397	2453.915225
345.348697	2450.550255
345.739934	2451.755091
346.131106	2446.635799
346.522215	2444.006837
346.913260	2442.910386
347.304241	2444.256374
347.695159	2441.559357
348.086012	2441.660180
348.476802	2436.936619
348.867528	2434.468974
349.258191	2433.039807
349.648789	2432.286155
350.039324	2429.876483
350.429796	2428.288520
350.820203	2433.168357
351.210548	2432.102152
351.600828	2434.037956
351.991045	2431.187183
352.381198	2432.097111
352.771288	2430.612492
353.161314	2431.345979
353.551276	2429.294230
353.941175	2431.787080
354.331010	2431.434200
354.720782	2428.817841
355.110490	2428.812800
355.500135	2430.720876
355.889717	2428.439754
356.279235	2432.409663
356.668689	2429.936977
357.058080	2430.123500
357.447408	2433.705239
357.836672	2433.677513
358.225873	2434.683223
358.615010	2435.119283
359.004084	2433.322112
359.393095	2435.578028
359.782043	2432.772626
360.170927	2435.182297
360.559748	2433.269180
360.948505	2434.831937
361.337199	2437.027360
361.725830	2435.167174
362.114398	2437.216403
362.502903	2438.466609
362.891344	2436.825714
363.279722	2438.454006
363.668037	2437.251691
364.056289	2438.398554
364.444478	2444.032043
364.832603	2438.287648
365.220665	2441.115736
365.608665	2441.067845
365.996601	2442.731425
366.384474	2439.394182
366.772284	2441.680345
367.160031	2438.932916
367.547715	2443.182609
367.935336	2440.888884
368.322893	2441.181271
368.710388	2441.950047
369.097820	2438.007864
369.485189	2440.137752
369.872495	2445.700665
370.259738	2444.442897
370.646918	2443.064142
371.034035	2444.463062
371.421090	2445.060438
371.808081	2447.240738
372.195010	2446.169492
372.581875	2443.719492
372.968678	2443.338884
373.355418	2447.321396
373.742096	2446.729060
374.128710	2445.004986
374.515262	2443.500201
374.901751	2447.840635
375.288177	2449.811726
375.674540	2448.783331
376.060841	2447.371808
376.447079	2449.047991
376.833254	2448.841304
377.219367	2447.180244
377.605417	2447.533124
377.991404	2448.327106
378.377329	2445.085644
378.763191	2449.413475
379.148991	2450.099072
379.534727	2450.280553
379.920402	2452.332303
380.306013	2448.611931
380.691563	2451.389607
381.077049	2448.120419
381.462474	2449.592436
381.847835	2451.374484
382.233134	2448.821139
382.618371	2450.451952
383.003545	2450.358691
383.388657	2450.356171
383.773706	2451.520677
384.158693	2452.128136
384.543618	2449.899946
384.928480	2452.165945
385.313280	2451.949175
385.698017	2453.660647
386.082692	2452.589402
386.467305	2451.598815
386.851856	2453.269957
387.236344	2453.070832
387.620770	2450.961109
388.005133	2451.172837
388.389435	2452.682663
388.773674	2448.730398
389.157851	2455.898919
389.541965	2453.229628
389.926018	2455.356995
390.310008	2453.453960
390.693936	2454.336162
391.077802	2455.916563
391.461606	2453.834567
391.845348	2458.270782
392.229027	2458.343879
392.612645	2457.658282
392.996200	2458.890844
393.379694	2455.752726
393.763125	2456.370267
394.146494	2457.567541
394.529801	2454.971347
394.913047	2457.791872
395.296230	2458.099383
395.679351	2457.852366
396.062410	2457.736420
396.445408	2455.667026
396.828343	2456.826492
397.211217	2459.515947
397.594028	2458.164918
397.976778	2457.388580
398.359466	2457.565021
398.742092	2458.928653
399.124656	2458.437140
399.507158	2458.227932
399.889598	2461.683643
400.271977	2460.171297
400.654294	2458.089301
401.036549	2461.043417
401.418742	2459.296657
401.800874	2459.836060
402.182944	2459.102572
402.564952	2462.525516
402.946898	2462.946452
403.328783	2459.926801
403.710606	2461.799590
404.092367	2461.008129
404.474067	2461.620629
404.855705	2464.990640
405.237282	2461.794549
405.618797	2462.104580
406.000250	2462.268417
406.381642	2463.846298
406.762972	2459.281533
407.144240	2459.742799
407.525447	2458.772377
407.906593	2460.166256
408.287677	2461.310598
408.668700	2462.941411
409.049661	2466.326546
409.430560	2464.357975
409.811399	2463.634570
410.192176	2465.368727
410.572891	2468.264870
410.953545	2461.940742
411.334138	2465.310753
411.714669	2466.573563
412.095139	2463.405197
412.475547	2464.234467
412.855894	2464.317646
413.236180	2465.935857
413.616405	2465.083902
413.996568	2467.044910
414.376670	2466.414766
414.756711	2466.177832
415.136691	2467.387709
415.516609	2463.889148
415.896466	2465.656072
416.276262	2466.155147
416.655997	2468.985755
417.035670	2466.697071
417.415283	2468.587503
417.794834	2467.843933
418.174324	2469.104222
418.553753	2469.600775
418.933121	2466.928964
419.312428	2469.263018
419.691674	2466.870991
420.070859	2465.328397
420.449983	2465.711525
420.829045	2466.402163
421.208047	2469.996506
421.586988	2469.711681
421.965867	2466.805456
422.344686	2468.471557
422.723444	2469.429376
423.102141	2466.747482
423.480777	2471.400467
423.859352	2466.132462
424.237866	2467.985086
424.616319	2467.370065
424.994712	2472.968266
425.373044	2469.482308
425.751314	2467.551546
426.129524	2465.666155
426.507673	2464.431072
426.885762	2465.114148
427.263789	2469.789819
427.641756	2469.527679
428.019662	2470.298975
428.397508	2469.457102
428.775292	2470.319140
429.153016	2470.069603
429.530679	2470.966928
429.908282	2470.026753
430.285824	2471.334932
430.663305	2471.690334
431.040726	2470.548512
431.418086	2470.414922
431.795385	2469.343677
432.172624	2470.795529
432.549802	2473.429532
432.926920	2474.105046
433.303977	2474.520942
433.680974	2470.200673
434.057910	2474.863740
434.434786	2471.680251
434.811601	2473.023719
435.188355	2472.194449
435.565050	2473.946250
435.941683	2473.316106
436.318257	2470.747638
436.694770	2474.994810
437.071222	2471.874336
437.447614	2474.180664
437.823946	2473.641260
438.200218	2472.887608
438.576429	2473.487505
438.952580	2472.582618
439.328670	2475.627475
439.704700	2475.476240
440.080670	2473.530355
440.456580	2472.333081
440.832429	2476.118987
441.208218	2475.435911
441.583947	2475.201497
441.959616	2476.176961
442.335224	2475.844244
442.710773	2471.191259
443.086261	2477.550675
443.461689	2475.662763
443.837057	2474.367186
444.212365	2475.685448
444.587612	2471.985241
444.962800	2469.484829
445.337927	2473.300982
445.712995	2470.704788
446.088002	2477.593525
446.462949	2475.226703
446.837837	2472.285190
447.212664	2472.338122
447.587431	2474.896508
447.962139	2474.462968
448.336786	2477.560757
448.711374	2472.532206
449.085901	2474.558750
449.460369	2473.835345
449.834776	2475.952629
450.209124	2475.899697
450.583412	2477.989255
450.957640	2476.938175
451.331808	2476.192084
451.705917	2475.604790
452.079965	2476.103864
452.453954	2475.806436
452.827883	2476.413895
453.201752	2476.877681
453.575562	2477.359111
453.949311	2477.137300
454.323001	2477.371714
454.696632	2477.827938
455.070202	2474.382310
455.443713	2477.916159
455.817164	2476.560088
456.190556	2476.461786
456.563888	2478.347177
456.937160	2478.503453
457.310373	2478.407671
457.683526	2474.137814
458.056619	2480.093937
458.429653	2478.644605
458.802628	2479.385655
459.175542	2475.924903
459.548398	2479.047898
459.921194	2477.490181
460.293930	2476.812146
460.666607	2477.316261
461.039224	2478.450521
461.411782	2476.786940
461.784280	2479.965388
462.156719	2480.406489
462.529099	2481.875985
462.901419	2478.049749
463.273680	2476.383648
463.645882	2475.640078
464.018024	2475.481281
464.390106	2472.219655
464.762130	2481.187867
465.134094	2477.129739
465.505999	2480.968577
465.877845	2477.994297
466.249631	2480.235089
466.621358	2476.426498
466.993026	2478.246354
467.364634	2484.477220
467.736184	2482.002014
468.107674	2479.743577
468.479105	2481.865903
468.850477	2476.504636
469.221790	2481.631489
469.593043	2479.395737
469.964238	2480.008237
470.335373	2479.799030
470.706449	2480.875316
471.077467	2479.673001
471.448425	2478.543782
471.819324	2481.281129
472.190164	2479.131077
472.560945	2478.780717
472.931667	2479.710809
473.302330	2482.511170
473.672934	2479.670480
474.043479	2481.918835
474.413965	2480.716520
474.784393	2481.684421
475.154761	2481.316417
475.525070	2483.743732
475.895321	2482.990080
476.265513	2481.911273
476.635645	2482.294401
477.005719	2483.249699
477.375734	2482.402786
477.745691	2481.936479
478.115588	2481.266005
478.485427	2483.416058
478.855207	2481.576036
479.224928	2483.068218
479.594591	2481.891108
479.964194	2482.801037
480.333739	2481.742394
480.703226	2482.889257
481.072653	2480.320789
481.442022	2482.170893
481.811333	2479.736015
482.180584	2477.313741
482.549777	2478.876498
482.918912	2476.267701
483.287988	2482.841366
483.657005	2481.288691
484.025964	2486.428147
484.394864	2483.090903
484.763706	2482.866572
485.132489	2480.104019
485.501213	2482.059987
485.869879	2483.075780
486.238487	2483.915132
486.607036	2483.534525
486.975527	2481.364308
487.343959	2483.617704
487.712333	2481.732312
488.080648	2479.637713
488.448905	2482.763228
488.817104	2483.065697
489.185244	2483.408496
489.553326	2482.163331
489.921350	2483.834473
490.289315	2480.492188
490.657222	2480.683752
491.025070	2483.877323
491.392861	2483.481593
491.760593	2483.642909
492.128267	2482.599391
492.495883	2479.252064
492.863440	2482.178454
493.230939	2482.483444
493.598380	2484.444453
493.965763	2482.831284
494.333088	2482.995121
494.700354	2482.317086
495.067563	2484.721716
495.434713	2483.877323
495.801805	2483.632827
496.168839	2484.676346
496.535815	2485.664412
496.902733	2486.753301
497.269593	2483.726088
497.636395	2485.288846
498.003139	2484.076449
498.369825	2485.125009
498.736453	2481.318938
499.103023	2485.019144
499.469535	2485.974443
499.835989	2483.695842
500.202385	2480.981180
500.568723	2477.742239
500.935003	2482.165851
501.301226	2477.999338
501.667390	2483.534525
502.033497	2485.855976
502.399546	2485.326655
502.765537	2483.998311
503.131470	2487.799341
503.497345	2484.774648
503.863163	2483.917652
504.228923	2484.477220
504.594625	2483.824391
504.960269	2485.500575
505.325856	2482.538897
505.691385	2482.044864
506.056856	2483.640389
506.422270	2484.358753
506.787625	2484.903198
507.152924	2483.847076
507.518164	2483.239617
507.883347	2486.682725
508.248472	2485.772797
508.613540	2484.956130
508.978550	2480.245172
509.343503	2487.549804
509.708398	2484.124340
510.073236	2485.077118
510.438016	2487.867396
510.802738	2485.596357
511.167403	2486.617190
511.532010	2484.363794
511.896561	2486.155925
512.261053	2484.895636
512.625488	2484.711634
512.989866	2484.462097
513.354186	2485.896305
513.718449	2485.606439
514.082655	2486.347488
514.446803	2483.554689
514.810894	2485.974443
515.174927	2483.847076
515.538904	2484.275574
515.902822	2485.077118
516.266684	2485.893785
516.630488	2484.459576
516.994235	2485.747591
517.357925	2487.136429
517.721558	2487.673312
518.085133	2484.162148
518.448651	2481.018989
518.812112	2482.808598
519.175516	2483.098465
519.538863	2481.301293
519.902152	2486.660040
520.265385	2485.165338
520.628560	2485.944196
520.991678	2486.806233
521.354739	2483.693321
521.717743	2485.780359
522.080690	2486.564258
522.443580	2485.059474
522.806413	2485.419916
523.169189	2488.600884
523.531908	2487.244814
523.894569	2487.123826
524.257174	2487.849752
524.619722	2482.881695
524.982213	2486.518888
525.344647	2486.259268
525.707025	2485.805564
526.069345	2485.992087
526.431608	2486.264309
526.793815	2484.996459
527.155964	2485.344299
527.518057	2485.984525
527.880093	2485.082159
528.242072	2483.902529
528.603995	2486.413023
528.965860	2485.203147
529.327669	2487.159114
529.689421	2484.636017
530.051117	2487.275061
530.412755	2485.349340
530.774337	2487.086018
531.135862	2486.992756
531.497331	2486.092910
531.858743	2485.455204
532.220098	2485.515698
532.581396	2484.751963
532.942638	2488.878148
533.303824	2485.992087
533.664953	2487.123826
534.026025	2487.030565
534.387040	2485.918990
534.747999	2486.410503
535.108902	2486.123157
535.469748	2486.768425
535.830537	2489.009218
536.191270	2485.828250
536.551947	2485.137612
536.912567	2482.491006
537.273131	2482.536376
537.633638	2481.727271
537.994089	2486.513847
538.354483	2487.486789
538.714821	2487.169197
539.075103	2487.340596
539.435328	2484.933445
539.795497	2488.739516
540.155609	2487.214567
540.515665	2487.164155
540.875665	2487.552324
541.235609	2486.178610
541.595496	2488.573158
541.955328	2486.067704
542.315102	2483.894967
542.674821	2484.883033
543.034483	2487.980822
543.394090	2486.067704
543.753640	2487.171717
544.113134	2486.959989
544.472571	2488.195071
544.831953	2484.457056
545.191278	2486.160966
545.550548	2485.679536
545.909761	2485.379587
546.268918	2487.053250
546.628019	2488.326141
546.987064	2488.006028
547.346053	2485.573671
547.704986	2486.304639
548.063863	2486.957468
548.422684	2485.215749
548.781449	2486.158445
549.140158	2484.535194
549.498811	2489.904023
549.857408	2489.409989
550.215949	2484.507467
550.574434	2486.034937
550.932864	2488.512664
551.291237	2486.725575
551.649555	2486.367653
552.007817	2488.084166
552.366022	2486.266830
552.724173	2484.888074
553.082267	2488.069042
553.440305	2486.816316
553.798288	2488.888230
554.156215	2488.101810
554.514086	2485.702221
554.871902	2481.462610
555.229661	2484.474700
555.587365	2482.783393
555.945014	2483.680718
556.302606	2486.649958
556.660143	2488.429485
557.017625	2488.028713
557.375050	2486.539052
557.732421	2488.111892
558.089735	2489.571306
558.446994	2486.213898
558.804197	2488.222798
559.161345	2485.989567
559.518437	2489.437716
559.875474	2486.342447
560.232455	2487.723723
560.589381	2484.943527
560.946251	2489.956955
561.303065	2487.537201
561.659825	2487.776656
562.016528	2489.349496
562.373177	2488.580720
562.729770	2487.426295
563.086307	2488.769763
563.442789	2487.098620
563.799216	2487.068373
564.155587	2488.805051
564.511904	2486.266830
564.868164	2488.462253
565.224370	2487.774135
565.580520	2485.077118
565.936615	2488.510143
566.292654	2487.398569
566.648638	2488.807572
567.004567	2490.085504
567.360441	2489.646924
567.716260	2488.237921
568.072023	2486.196254
568.427732	2485.266161
568.783385	2490.037613
569.138982	2488.202633
569.494525	2486.241624
569.850013	2485.911429
570.205445	2488.268168
570.560823	2485.825729
570.916145	2487.532160
571.271412	2488.293374
571.626625	2488.207674
571.981782	2488.857983
572.336884	2485.530822
572.691931	2481.782724
573.046923	2486.128198
573.401860	2484.507467
573.756743	2487.418734
574.111570	2485.815647
574.466342	2484.754484
574.821059	2486.758342
575.175722	2485.359422
575.530330	2487.698518
575.884882	2488.391676
576.239380	2486.629793
576.593823	2488.686584
576.948211	2486.241624
577.302544	2487.564927
577.656823	2487.690956
578.011047	2488.389156
578.365216	2488.855463
578.719330	2488.240442
579.073389	2487.990905
579.427394	2487.867396
579.781344	2488.817654
580.135239	2489.775473
580.489080	2486.244145
580.842866	2490.151039
581.196597	2493.541215
581.550273	2489.064670
581.903895	2488.318580
582.257463	2488.742037
582.610975	2486.009731
582.964434	2488.200113
583.317837	2489.120123
583.671186	2488.984012
584.024481	2486.307159
584.377721	2485.646768
584.730906	2488.774804
585.084037	2487.993425
585.437113	2484.449494
585.790135	2487.537201
586.143103	2486.634834
586.496016	2487.149032
586.848874	2485.661892
587.201679	2487.335555
587.554428	2489.687253
587.907124	2489.614156
588.259765	2489.775473
588.612352	2485.664412
588.964884	2488.605925
589.317362	2487.398569
589.669786	2486.697849
590.022155	2485.843373
590.374470	2485.883702
590.726731	2487.912767
591.078937	2481.986890
591.431090	2486.876810
591.783188	2487.040647
592.135232	2487.925370
592.487222	2487.363281
592.839157	2485.598877
593.191038	2488.754639
593.542866	2487.080976
593.894639	2490.125833
594.246358	2489.909064
594.598022	2488.258086
594.949633	2487.093579
595.301190	2486.566779
595.652692	2488.434526
596.004141	2485.561068
596.355535	2488.953765
596.706876	2487.975781
597.058162	2488.154742
597.409395	2487.582571
597.760573	2486.922180
598.111698	2487.801861
598.462768	2488.495020
598.813785	2486.564258
599.164748	2491.958293
599.515657	2487.345637
599.866511	2488.918477
600.217312	2488.497541
600.568060	2487.980822
600.918753	2491.189517
601.269392	2487.481748
601.619978	2486.483600
601.970510	2488.817654
602.320988	2486.793631
602.671412	2488.215236
603.021783	2487.446460
603.372100	2488.535349
603.722363	2487.663230
604.072572	2489.873776
604.422728	2488.505102
604.772830	2486.622231
605.122878	2488.348827
605.472872	2486.191213
605.822813	2488.616008
606.172701	2485.450163
606.522534	2488.585761
606.872314	2488.507623
607.222041	2488.051398
607.571714	2484.734319
607.921333	2482.846407
608.270899	2486.649958
608.620411	2482.604432
608.969870	2487.670791
609.319276	2488.434526
609.668627	2486.460914
610.017926	2487.307828
610.367171	2489.047026
610.716362	2487.859835
611.065500	2489.359578
611.414585	2487.358240
611.763616	2490.045175
612.112594	2485.717344
612.461518	2488.744557
612.810389	2486.980153
613.159207	2488.137098
613.507971	2488.512664
613.856682	2487.118785
614.205340	2487.748929
614.553945	2485.135091
614.902496	2486.881851
615.250994	2489.180617
615.599439	2487.688435
615.947830	2486.902015
616.296169	2486.682725
616.644454	2486.690287
616.992686	2487.123826
617.340864	2487.224649
617.688990	2485.314052
618.037063	2486.712972
618.385082	2486.476038
618.733048	2490.324959
619.080961	2486.508805
619.428821	2487.126347
619.776628	2486.591984
620.124382	2489.044506
620.472083	2487.587612
620.819731	2489.044506
621.167326	2489.846049
621.514868	2489.415031
621.862357	2489.856132
622.209793	2489.049547
622.557176	2488.888230
622.904506	2487.602736
623.251783	2487.509474
623.599007	2489.462922
623.946179	2490.105669
624.293297	2490.123313
624.640363	2487.103662
624.987376	2485.871099
625.334336	2484.814978
625.681243	2485.694659
626.028097	2482.397744
626.374899	2487.224649
626.721647	2488.638693
627.068343	2486.690287
627.414987	2488.794969
627.761577	2486.750781
628.108115	2487.801861
628.454600	2491.068529
628.801032	2487.879999
629.147412	2487.927890
629.493739	2486.327324
629.840014	2489.110041
630.186236	2488.326141
630.532405	2489.140288
630.878521	2488.371512
631.224585	2487.733806
631.570597	2486.798672
631.916556	2488.084166
632.262462	2486.624752
632.608316	2486.972592
632.954117	2488.212715
633.299866	2487.045688
633.645562	2488.439567
633.991206	2484.905718
634.336797	2485.702221
634.682336	2488.164824
635.027823	2486.496202
635.373257	2487.953096
635.718639	2486.828919
636.063968	2487.718682
636.409245	2489.861173
636.754470	2488.752119
637.099642	2487.464104
637.444762	2487.753970
637.789829	2489.024341
638.134845	2488.444608
638.479808	2487.257417
638.824719	2488.285812
639.169577	2488.406800
639.514383	2487.370843
639.859137	2490.612305
640.203839	2488.794969
640.548489	2486.405462
640.893086	2487.706079
641.237632	2486.634834
641.582125	2488.580720
641.926566	2486.566779
642.270955	2484.646099
642.615292	2480.996304
642.959576	2487.564927
643.303809	2482.632158
643.647990	2484.696511
643.992118	2488.129536
644.336195	2488.714310
