Dividing Wavelength (nm)	Counts (n)	Blue Motor Position (mm): 10.500000	Red Motor Position (mm): 0.000000	
326.493990	2067.543550
326.888308	2067.543550
327.282561	2067.543550
327.676750	2041.264015
328.070874	2043.658563
328.464933	2049.952444
328.858929	2055.364123
329.252859	2067.193190
329.646726	2078.596280
330.040528	2097.447675
330.434265	2114.559872
330.827938	2136.030146
331.221547	2156.456901
331.615091	2178.093534
332.008571	2194.525175
332.401986	2216.600387
332.795338	2238.224417
333.188625	2257.363157
333.581847	2274.941661
333.975006	2293.404887
334.368100	2309.949954
334.761129	2329.136585
335.154095	2341.537824
335.546996	2373.861702
335.939833	2435.590631
336.332606	2446.855089
336.725315	2457.481842
337.117960	2470.518265
337.510540	2479.199132
337.903056	2489.551142
338.295508	2494.655310
338.687896	2501.501197
339.080220	2506.486898
339.472480	2515.480317
339.864676	2513.224400
340.256807	2519.130112
340.648875	2520.282016
341.040879	2521.985926
341.432818	2522.492562
341.824694	2523.379805
342.216506	2521.539783
342.608253	2523.636903
342.999937	2521.552386
343.391557	2521.905267
343.783113	2520.274454
344.174605	2517.521984
344.566033	2514.714061
344.957397	2514.167096
345.348697	2512.911849
345.739934	2511.964112
346.131106	2511.659122
346.522215	2507.447238
346.913260	2506.779285
347.304241	2506.255005
347.695159	2501.886845
348.086012	2501.445744
348.476802	2496.351658
348.867528	2496.757471
349.258191	2492.545587
349.648789	2495.093890
350.039324	2488.500061
350.429796	2494.995588
350.820203	2493.090032
351.210548	2492.291009
351.600828	2490.619866
351.991045	2488.472335
352.381198	2490.203971
352.771288	2490.151039
353.161314	2488.689104
353.551276	2489.808241
353.941175	2487.882520
354.331010	2489.556183
354.720782	2490.413179
355.110490	2492.855618
355.500135	2489.500730
355.889717	2492.129692
356.279235	2492.754795
356.668689	2493.268993
357.058080	2489.379743
357.447408	2494.103304
357.836672	2493.200937
358.225873	2490.367809
358.615010	2496.631442
359.004084	2493.223622
359.393095	2493.871411
359.782043	2492.134733
360.170927	2495.688747
360.559748	2492.961482
360.948505	2496.782677
361.337199	2496.172697
361.725830	2497.921978
362.114398	2495.973572
362.502903	2499.015908
362.891344	2497.972389
363.279722	2495.794611
363.668037	2500.480363
364.056289	2497.266628
364.444478	2499.361227
364.832603	2502.111177
365.220665	2501.236536
365.608665	2498.847029
365.996601	2500.606392
366.384474	2500.495487
366.772284	2498.123624
367.160031	2502.128821
367.547715	2503.767196
367.935336	2502.065806
368.322893	2500.669407
368.710388	2498.506752
369.097820	2502.315343
369.485189	2497.029693
369.872495	2503.603358
370.259738	2503.704181
370.646918	2505.975221
371.034035	2503.169819
371.421090	2503.512617
371.808081	2504.377175
372.195010	2504.493122
372.581875	2504.510766
372.968678	2503.782319
373.355418	2502.537154
373.742096	2503.857936
374.128710	2506.673421
374.515262	2505.899604
374.901751	2505.897083
375.288177	2506.988493
375.674540	2504.848523
376.060841	2508.952022
376.447079	2504.183091
376.833254	2508.455469
377.219367	2506.373472
377.605417	2506.721312
377.991404	2509.360356
378.377329	2508.226096
378.763191	2510.340860
379.148991	2508.102588
379.534727	2508.770541
379.920402	2509.481343
380.306013	2511.089472
380.691563	2507.749707
381.077049	2507.641322
381.462474	2508.493277
381.847835	2508.962105
382.233134	2510.048473
382.618371	2511.086951
383.003545	2508.261384
383.388657	2509.423370
383.773706	2509.176354
384.158693	2510.567712
384.543618	2511.991838
384.928480	2509.478823
385.313280	2509.050325
385.698017	2509.836745
386.082692	2511.873371
386.467305	2511.278515
386.851856	2512.029647
387.236344	2511.442352
387.620770	2510.229955
388.005133	2506.683503
388.389435	2511.545696
388.773674	2506.015550
389.157851	2515.649195
389.541965	2512.516118
389.926018	2515.631551
390.310008	2513.173989
390.693936	2516.728002
391.077802	2513.975532
391.461606	2514.386386
391.845348	2514.290604
392.229027	2515.687004
392.612645	2516.299504
392.996200	2516.627179
393.379694	2515.283712
393.763125	2516.226407
394.146494	2515.079545
394.529801	2515.550893
394.913047	2518.021058
395.296230	2515.712210
395.679351	2516.239010
396.062410	2516.241531
396.445408	2519.132632
396.828343	2516.768331
397.211217	2515.923938
397.594028	2519.631707
397.976778	2515.830677
398.359466	2520.876872
398.742092	2514.860255
399.124656	2516.667508
399.507158	2517.085924
399.889598	2519.616583
400.271977	2518.411747
400.654294	2518.084073
401.036549	2517.751356
401.418742	2521.365864
401.800874	2516.917045
402.182944	2519.127591
402.564952	2519.750174
402.946898	2519.946779
403.328783	2520.526512
403.710606	2520.256810
404.092367	2519.924094
404.474067	2520.400483
404.855705	2518.290760
405.237282	2519.230935
405.618797	2520.229083
406.000250	2523.082377
406.381642	2524.836698
406.762972	2517.358146
407.144240	2518.235307
407.525447	2520.652540
407.906593	2516.770852
408.287677	2521.723786
408.668700	2519.724968
409.049661	2522.926101
409.430560	2522.452232
409.811399	2524.251924
410.192176	2524.304856
410.572891	2522.553055
410.953545	2521.996008
411.334138	2524.594723
411.714669	2522.520288
412.095139	2524.577079
412.475547	2522.767304
412.855894	2525.633200
413.236180	2520.864269
413.616405	2523.972140
413.996568	2524.352747
414.376670	2523.649506
414.756711	2523.410052
415.136691	2524.375433
415.516609	2525.973478
415.896466	2524.473735
416.276262	2523.679753
416.655997	2526.001205
417.035670	2524.972809
417.415283	2525.265196
417.794834	2525.660927
418.174324	2524.110772
418.553753	2523.326872
418.933121	2524.115813
419.312428	2526.699404
419.691674	2525.222346
420.070859	2525.867614
420.449983	2526.797707
420.829045	2524.773684
421.208047	2524.667819
421.586988	2524.894671
421.965867	2527.347193
422.344686	2527.483304
422.723444	2527.173273
423.102141	2523.780576
423.480777	2526.467511
423.859352	2529.983716
424.237866	2526.379291
424.616319	2524.816533
424.994712	2528.211751
425.373044	2526.641431
425.751314	2525.020700
426.129524	2522.948786
426.507673	2525.849970
426.885762	2521.098682
427.263789	2525.277799
427.641756	2527.737882
428.019662	2528.330218
428.397508	2529.915661
428.775292	2525.832326
429.153016	2525.885258
429.530679	2528.088242
429.908282	2526.699404
430.285824	2526.593540
430.663305	2528.483973
431.040726	2524.740916
431.418086	2527.647141
431.795385	2528.534384
432.172624	2525.434075
432.549802	2529.114117
432.926920	2528.741072
433.303977	2524.526667
433.680974	2527.614374
434.057910	2524.456091
434.434786	2528.299971
434.811601	2526.908612
435.188355	2526.747295
435.565050	2526.681760
435.941683	2527.979858
436.318257	2527.611853
436.694770	2529.711494
437.071222	2526.117151
437.447614	2530.694519
437.823946	2529.431710
438.200218	2527.185876
438.576429	2528.599919
438.952580	2528.292409
439.328670	2530.571011
439.704700	2527.740403
440.080670	2525.920546
440.456580	2527.087573
440.832429	2527.377440
441.208218	2526.616225
441.583947	2530.366844
441.959616	2527.858870
442.335224	2527.009435
442.710773	2530.132430
443.086261	2529.751823
443.461689	2529.083870
443.837057	2529.867770
444.212365	2526.417100
444.587612	2527.410207
444.962800	2526.555732
445.337927	2527.823582
445.712995	2524.350227
446.088002	2530.182842
446.462949	2528.889786
446.837837	2530.545805
447.212664	2531.062523
447.587431	2532.658048
447.962139	2532.496731
448.336786	2529.366175
448.711374	2531.052441
449.085901	2529.872811
449.460369	2530.432379
449.834776	2532.637884
450.209124	2530.853315
450.583412	2532.655528
450.957640	2529.688809
451.331808	2531.291896
451.705917	2529.487162
452.079965	2530.394570
452.453954	2529.663603
452.827883	2531.768285
453.201752	2532.514375
453.575562	2533.472195
453.949311	2531.284334
454.323001	2528.761236
454.696632	2531.196114
455.070202	2530.124868
455.443713	2531.075126
455.817164	2532.315250
456.190556	2528.728469
456.563888	2533.353728
456.937160	2532.249715
457.310373	2527.989940
457.683526	2530.187883
458.056619	2529.829961
458.429653	2533.444468
458.802628	2531.188552
459.175542	2529.998840
459.548398	2534.732483
459.921194	2529.255269
460.293930	2530.472708
460.666607	2530.896165
461.039224	2532.053110
461.411782	2531.846423
461.784280	2530.500434
462.156719	2530.059333
462.529099	2533.061341
462.901419	2528.100845
463.273680	2528.617563
463.645882	2529.595547
464.018024	2529.358613
464.390106	2531.541433
464.762130	2532.816845
465.134094	2534.440096
465.505999	2530.747451
465.877845	2531.052441
466.249631	2533.588141
466.621358	2533.653676
466.993026	2532.158974
467.364634	2536.353214
467.736184	2534.442617
468.107674	2531.947246
468.479105	2533.144520
468.850477	2529.933305
469.221790	2533.038655
469.593043	2534.311547
469.964238	2532.889941
470.335373	2532.219468
470.706449	2532.615198
471.077467	2533.109232
471.448425	2534.646783
471.819324	2535.894469
472.190164	2535.022349
472.560945	2534.646783
472.931667	2532.882380
473.302330	2534.586290
473.672934	2536.585107
474.043479	2533.189890
474.413965	2532.902544
474.784393	2533.106711
475.154761	2533.091588
475.525070	2532.794159
475.895321	2532.446320
476.265513	2532.665610
476.635645	2534.291382
477.005719	2534.135106
477.375734	2534.714839
477.745691	2531.982534
478.115588	2535.823893
478.485427	2536.529654
478.855207	2534.780374
479.224928	2537.623585
479.594591	2536.247350
479.964194	2535.652494
480.333739	2537.381609
480.703226	2538.301620
481.072653	2539.816487
481.442022	2535.728111
481.811333	2534.377082
482.180584	2535.075282
482.549777	2535.221475
482.918912	2531.511186
483.287988	2538.430169
483.657005	2537.679038
484.025964	2536.002854
484.394864	2538.480581
484.763706	2538.775488
485.132489	2539.330015
485.501213	2535.914634
485.869879	2537.575694
486.238487	2537.187525
486.607036	2537.157278
486.975527	2534.334232
487.343959	2538.140303
487.712333	2537.021167
488.080648	2537.076620
488.448905	2537.913451
488.817104	2537.154758
489.185244	2539.133410
489.553326	2540.055942
489.921350	2539.992927
490.289315	2539.186343
490.657222	2541.606096
491.025070	2540.960829
491.392861	2541.560726
491.760593	2539.922351
492.128267	2540.348328
492.495883	2539.163657
492.863440	2539.105684
493.230939	2537.132072
493.598380	2540.635674
493.965763	2539.577032
494.333088	2537.883204
494.700354	2540.471837
495.067563	2540.136600
495.434713	2538.679707
495.801805	2540.086188
496.168839	2538.281455
496.535815	2538.674665
496.902733	2540.194573
497.269593	2540.328164
497.636395	2539.335057
498.003139	2538.261291
498.369825	2539.322454
498.736453	2540.461754
499.103023	2538.422608
499.469535	2541.729605
499.835989	2538.226003
500.202385	2538.732639
500.568723	2533.676361
500.935003	2534.344314
501.301226	2534.777853
501.667390	2539.309851
502.033497	2540.446631
502.399546	2538.346990
502.765537	2540.376055
503.131470	2539.753472
503.497345	2541.422094
503.863163	2539.151054
504.228923	2541.845551
504.594625	2540.897814
504.960269	2537.709284
505.325856	2538.861188
505.691385	2540.257588
506.056856	2540.572660
506.422270	2539.473688
506.787625	2543.148689
507.152924	2540.176929
507.518164	2542.069882
507.883347	2537.568132
508.248472	2540.718853
508.613540	2538.778009
508.978550	2542.213555
509.343503	2544.378731
509.708398	2544.298073
510.073236	2543.320089
510.438016	2542.057280
510.802738	2540.769265
511.167403	2542.216076
511.532010	2544.698844
511.896561	2545.465100
512.261053	2545.092054
512.625488	2545.092054
512.989866	2544.416540
513.354186	2546.780841
513.718449	2546.972405
514.082655	2547.859648
514.446803	2546.243958
514.810894	2547.630275
515.174927	2550.206305
515.538904	2550.183620
515.902822	2552.406768
516.266684	2549.445091
516.630488	2550.481048
516.994235	2550.660009
517.357925	2554.942469
517.721558	2554.282078
518.085133	2555.474311
518.448651	2551.506923
518.812112	2551.806871
519.175516	2554.544218
519.538863	2554.408107
519.902152	2555.005483
520.265385	2556.351471
520.628560	2559.928170
520.991678	2558.713252
521.354739	2558.930022
521.717743	2559.802141
522.080690	2561.047306
522.443580	2562.279868
522.806413	2563.136864
523.169189	2566.927812
523.531908	2565.652400
523.894569	2566.932853
524.257174	2568.372103
524.619722	2568.624160
524.982213	2570.345714
525.344647	2572.331929
525.707025	2576.392578
526.069345	2575.621282
526.431608	2576.304358
526.793815	2578.187229
527.155964	2579.510532
527.518057	2577.957857
527.880093	2582.051274
528.242072	2580.165882
528.603995	2578.187229
528.965860	2580.654874
529.327669	2581.844586
529.689421	2582.134453
530.051117	2585.743919
530.412755	2583.372056
530.774337	2586.169896
531.135862	2586.805082
531.497331	2590.724579
531.858743	2589.534867
532.220098	2591.437902
532.581396	2593.434199
532.942638	2597.368820
533.303824	2595.924529
533.664953	2596.209354
534.026025	2598.596341
534.387040	2601.159767
534.747999	2598.553491
535.108902	2602.281424
535.469748	2603.821497
535.830537	2604.428956
536.191270	2604.154213
536.551947	2603.435848
536.912567	2602.016763
537.273131	2606.306785
537.633638	2601.966352
537.994089	2608.910541
538.354483	2607.627568
538.714821	2613.896242
539.075103	2616.215173
539.435328	2613.674432
539.795497	2617.470421
540.155609	2617.659464
540.515665	2620.691718
540.875665	2619.207098
541.235609	2622.756070
541.595496	2623.660957
541.955328	2623.489558
542.315102	2622.924949
542.674821	2626.501648
543.034483	2627.404014
543.394090	2626.723458
543.753640	2627.043572
544.113134	2633.097997
544.472571	2631.222688
544.831953	2633.682771
545.191278	2635.202679
545.550548	2631.610857
545.909761	2635.124541
546.268918	2639.800212
546.628019	2641.909934
546.987064	2638.212248
547.346053	2638.633184
547.704986	2641.322640
548.063863	2643.039153
548.422684	2640.737866
548.781449	2640.826086
549.140158	2640.904224
549.498811	2642.991262
549.857408	2643.371869
550.215949	2649.769093
550.574434	2647.571150
550.932864	2647.999648
551.291237	2648.387817
551.649555	2648.337406
552.007817	2648.342447
552.366022	2648.433187
552.724173	2647.619041
553.082267	2651.059629
553.440305	2649.575009
553.798288	2651.878816
554.156215	2653.068528
554.514086	2653.759167
554.871902	2647.828249
555.229661	2651.246151
555.587365	2649.224649
555.945014	2653.973416
556.302606	2654.049033
556.660143	2654.114568
557.017625	2655.752943
557.375050	2654.293529
557.732421	2653.996101
558.089735	2655.752943
558.446994	2654.769918
558.804197	2656.506595
559.161345	2656.415855
559.518437	2654.938797
559.875474	2655.558858
560.232455	2658.240752
560.589381	2657.487100
560.946251	2656.269661
561.303065	2657.507264
561.659825	2657.882830
562.016528	2657.688746
562.373177	2657.257727
562.729770	2658.631442
563.086307	2657.754281
563.442789	2660.960455
563.799216	2657.716472
564.155587	2659.722852
564.511904	2658.951555
564.868164	2660.216885
565.224370	2657.633293
565.580520	2660.355516
565.936615	2658.255876
566.292654	2660.274858
566.648638	2660.297543
567.004567	2660.360557
567.360441	2661.872904
567.716260	2659.586740
568.072023	2662.636638
568.427732	2662.876093
568.783385	2662.923984
569.138982	2660.330311
569.494525	2662.341731
569.850013	2661.187307
570.205445	2663.274344
570.560823	2663.193686
570.916145	2663.901968
571.271412	2662.538336
571.626625	2663.385250
571.981782	2662.679488
572.336884	2661.222595
572.691931	2658.265958
573.046923	2661.313336
573.401860	2658.293684
573.756743	2663.407935
574.111570	2662.999602
574.466342	2666.092349
574.821059	2666.238543
575.175722	2661.441885
575.530330	2664.491783
575.884882	2666.117555
576.239380	2666.593944
576.593823	2661.028510
576.948211	2662.709735
577.302544	2663.004643
577.656823	2664.559839
578.011047	2665.353820
578.365216	2663.574293
578.719330	2667.826506
579.073389	2666.689726
579.427394	2670.092505
579.781344	2667.130827
580.135239	2666.039417
580.489080	2670.896569
580.842866	2670.551250
581.196597	2677.397137
581.550273	2672.124090
581.903895	2669.974038
582.257463	2676.333453
582.610975	2674.440500
582.964434	2677.215655
583.317837	2675.569719
583.671186	2680.885615
584.024481	2682.705472
584.377721	2681.530883
584.730906	2684.248065
585.084037	2686.577078
585.437113	2689.684949
585.790135	2689.881554
586.143103	2686.763601
586.496016	2691.179652
586.848874	2694.264838
587.201679	2697.697863
587.554428	2698.872452
587.907124	2701.503935
588.259765	2699.767257
588.612352	2707.313864
588.964884	2706.600541
589.317362	2711.825697
589.669786	2712.138249
590.022155	2717.116388
590.374470	2718.157386
590.726731	2720.274671
591.078937	2720.067984
591.431090	2727.922101
591.783188	2727.612070
592.135232	2732.761609
592.487222	2734.825962
592.839157	2742.710326
593.191038	2743.665625
593.542866	2747.587642
593.894639	2749.672160
594.246358	2751.141656
594.598022	2758.395876
594.949633	2760.419900
595.301190	2761.826382
595.652692	2767.991713
596.004141	2774.598145
596.355535	2775.097219
596.706876	2778.079062
597.058162	2781.875050
597.409395	2784.546862
597.760573	2795.702935
598.111698	2798.243677
598.462768	2801.964048
598.813785	2809.956798
599.164748	2813.815801
599.515657	2821.778304
599.866511	2826.277533
600.217312	2837.950325
600.568060	2834.499655
600.918753	2850.878364
601.269392	2857.167204
601.619978	2861.358923
601.970510	2869.586086
602.320988	2875.645553
602.671412	2889.745660
603.021783	2894.708676
603.372100	2902.991292
603.722363	2909.811973
604.072572	2920.393355
604.422728	2928.602874
604.772830	2933.359203
605.122878	2949.415278
605.472872	2955.341154
605.822813	2969.063175
606.172701	2976.045173
606.522534	2988.489261
606.872314	3003.348062
607.222041	3012.853158
607.571714	3025.531660
607.921333	3030.471991
608.270899	3044.259546
608.620411	3062.868966
608.969870	3074.851788
609.319276	3089.269488
609.668627	3107.200873
610.017926	3127.322638
610.367171	3140.548105
610.716362	3160.690036
611.065500	3175.158147
611.414585	3191.178934
611.763616	3212.636605
612.112594	3228.448184
612.461518	3250.551123
612.810389	3272.802777
613.159207	3288.349695
613.507971	3305.920637
613.856682	3337.594206
614.205340	3354.199767
614.553945	3387.176475
614.902496	3393.253586
615.250994	3423.588729
615.599439	3448.176957
615.947830	3475.063951
616.296169	3499.016994
616.644454	3528.749719
616.992686	3555.049419
617.340864	3595.532405
617.688990	3615.659211
618.037063	3660.704442
618.385082	3687.258719
618.733048	3726.632652
619.080961	3752.708020
619.428821	3783.514511
619.776628	3810.295641
620.124382	3833.961337
620.472083	3863.484855
620.819731	3891.702714
621.167326	3901.538005
621.514868	3926.194288
621.862357	3932.299126
622.209793	3956.849545
622.557176	3962.115030
622.904506	3977.856033
623.251783	3992.026716
623.599007	4004.145650
623.946179	4028.519629
624.293297	4045.394892
624.640363	4049.551323
624.987376	4065.340217
625.334336	4088.461469
625.681243	4100.507306
626.028097	4124.397334
626.374899	4152.239627
626.721647	4179.955891
627.068343	4205.007905
627.414987	4223.987849
627.761577	4245.100201
628.108115	4294.995021
628.454600	4291.526708
628.801032	4337.428934
629.147412	4367.275085
629.493739	4396.722985
629.840014	4415.234102
630.186236	4472.952793
630.532405	4480.527127
630.878521	4534.366650
631.224585	4559.857244
631.570597	4584.692489
631.916556	4632.051609
632.262462	4667.443029
632.608316	4702.589954
632.954117	4734.843256
633.299866	4770.050675
633.645562	4798.936486
633.991206	4801.630983
634.336797	4805.258093
634.682336	4828.162576
635.027823	4845.196634
635.373257	4873.164956
635.718639	4880.686357
636.063968	4902.983381
636.409245	4891.255137
636.754470	4920.065331
637.099642	4940.681129
637.444762	4933.641158
637.789829	4972.417713
638.134845	4980.599506
638.479808	5010.281820
638.824719	5042.943456
639.169577	5044.299526
639.514383	5087.146813
639.859137	5089.793419
640.203839	5138.881655
640.548489	5160.692207
640.893086	5195.448442
641.237632	5206.236511
641.582125	5250.575980
641.926566	5274.735710
642.270955	5315.072502
642.615292	5346.219271
642.959576	5377.058530
643.303809	5415.958593
643.647990	5469.339372
643.992118	5503.964537
644.336195	5536.374115
