Dividing Wavelength (nm)	Counts (n)	Blue Motor Position (mm): 8.500000	Red Motor Position (mm): 0.000000	
326.493990	2065.423745
326.888308	2065.423745
327.282561	2065.423745
327.676750	2043.053625
328.070874	2043.071269
328.464933	2049.652495
328.858929	2055.522919
329.252859	2066.205124
329.646726	2077.681311
330.040528	2096.073961
330.434265	2112.137597
330.827938	2136.007461
331.221547	2156.603095
331.615091	2174.945333
332.008571	2196.629856
332.401986	2215.551827
332.795338	2236.311299
333.188625	2255.712179
333.581847	2274.813111
333.975006	2293.430093
334.368100	2308.520787
334.761129	2325.685915
335.154095	2342.838441
335.546996	2368.296268
335.939833	2410.336971
336.332606	2421.989598
336.725315	2434.794129
337.117960	2445.640171
337.510540	2455.891357
337.903056	2466.082050
338.295508	2469.570528
338.687896	2477.969091
339.080220	2479.584781
339.472480	2488.888230
339.864676	2492.190186
340.256807	2495.073726
340.648875	2494.123468
341.040879	2498.010198
341.432818	2497.120434
341.824694	2499.429283
342.216506	2498.695795
342.608253	2497.753099
342.999937	2496.260917
343.391557	2496.099601
343.783113	2495.754282
344.174605	2494.451143
344.566033	2491.479383
344.957397	2491.796976
345.348697	2487.264978
345.739934	2489.387304
346.131106	2483.514360
346.522215	2484.691469
346.913260	2480.716520
347.304241	2480.618217
347.695159	2478.470686
348.086012	2478.029585
348.476802	2476.189563
348.867528	2473.469861
349.258191	2467.944756
349.648789	2469.598255
350.039324	2464.368058
350.429796	2472.416260
350.820203	2470.054479
351.210548	2469.663790
351.600828	2465.373768
351.991045	2465.351083
352.381198	2466.669344
352.771288	2466.097173
353.161314	2464.849488
353.551276	2466.157667
353.941175	2463.422841
354.331010	2467.145733
354.720782	2468.869808
355.110490	2466.825620
355.500135	2465.356124
355.889717	2467.309571
356.279235	2468.093470
356.668689	2469.520117
357.058080	2466.886114
357.447408	2466.928964
357.836672	2468.307719
358.225873	2467.919551
358.615010	2467.843933
359.004084	2470.019191
359.393095	2468.166567
359.782043	2469.522637
360.170927	2471.108080
360.559748	2472.005406
360.948505	2473.164871
361.337199	2472.315437
361.725830	2472.708647
362.114398	2472.431383
362.502903	2474.891466
362.891344	2475.299800
363.279722	2473.084213
363.668037	2477.107053
364.056289	2473.779892
364.444478	2475.985397
364.832603	2475.652681
365.220665	2476.577732
365.608665	2474.793164
365.996601	2477.091930
366.384474	2475.531693
366.772284	2478.090078
367.160031	2475.284676
367.547715	2482.730461
367.935336	2475.534213
368.322893	2474.475571
368.710388	2472.872484
369.097820	2477.250726
369.485189	2471.740745
369.872495	2479.166365
370.259738	2477.664101
370.646918	2480.366159
371.034035	2478.795840
371.421090	2481.971767
371.808081	2481.596201
372.195010	2479.302476
372.581875	2480.083855
372.968678	2479.736015
373.355418	2481.152579
373.742096	2482.133084
374.128710	2483.189206
374.515262	2480.925728
374.901751	2481.873464
375.288177	2485.354381
375.674540	2484.252889
376.060841	2482.092755
376.447079	2483.549648
376.833254	2483.945379
377.219367	2480.986221
377.605417	2484.726758
377.991404	2483.385811
378.377329	2486.934783
378.763191	2481.397075
379.148991	2485.505616
379.534727	2486.082828
379.920402	2483.148876
380.306013	2485.727427
380.691563	2486.087869
381.077049	2486.440750
381.462474	2485.314052
381.847835	2485.924032
382.233134	2487.575009
382.618371	2487.617859
383.003545	2485.969402
383.388657	2488.351347
383.773706	2487.469145
384.158693	2487.547283
384.543618	2485.770276
384.928480	2487.017962
385.313280	2489.110041
385.698017	2487.907726
386.082692	2487.005359
386.467305	2491.156749
386.851856	2489.961996
387.236344	2488.250524
387.620770	2485.432519
388.005133	2485.808085
388.389435	2488.961327
388.773674	2484.401603
389.157851	2489.629280
389.541965	2489.644403
389.926018	2491.565083
390.310008	2491.401245
390.693936	2492.341420
391.077802	2494.373005
391.461606	2489.029382
391.845348	2491.348313
392.229027	2489.984681
392.612645	2493.616832
392.996200	2488.253045
393.379694	2491.618015
393.763125	2491.126502
394.146494	2490.698004
394.529801	2494.209168
394.913047	2492.381750
395.296230	2490.362767
395.679351	2492.638848
396.062410	2491.839826
396.445408	2493.299240
396.828343	2490.425782
397.211217	2492.187665
397.594028	2492.759836
397.976778	2494.052892
398.359466	2493.863849
398.742092	2493.568941
399.124656	2493.631956
399.507158	2493.747902
399.889598	2495.650938
400.271977	2492.613643
400.654294	2494.420896
401.036549	2494.277223
401.418742	2495.557677
401.800874	2495.592965
402.182944	2493.808396
402.564952	2496.243273
402.946898	2494.932573
403.328783	2494.942656
403.710606	2495.928201
404.092367	2496.936432
404.474067	2498.171515
404.855705	2495.434168
405.237282	2497.357368
405.618797	2498.582369
406.000250	2498.446258
406.381642	2497.909375
406.762972	2495.378716
407.144240	2493.977275
407.525447	2497.440548
407.906593	2492.951400
408.287677	2501.743172
408.668700	2498.552122
409.049661	2499.401556
409.430560	2496.124806
409.811399	2499.303254
410.192176	2499.225116
410.572891	2500.205620
410.953545	2499.328460
411.334138	2499.499859
411.714669	2497.735455
412.095139	2500.772750
412.475547	2497.279231
412.855894	2499.799808
413.236180	2500.175373
413.616405	2501.831393
413.996568	2500.384581
414.376670	2501.523882
414.756711	2500.984479
415.136691	2502.118738
415.516609	2499.875425
415.896466	2501.072699
416.276262	2503.741990
416.655997	2500.470281
417.035670	2500.445075
417.415283	2503.041269
417.794834	2499.542709
418.174324	2503.310971
418.553753	2504.117556
418.933121	2502.068327
419.312428	2500.311485
419.691674	2503.056393
420.070859	2502.247288
420.449983	2499.552791
420.829045	2502.330467
421.208047	2500.561022
421.586988	2503.177381
421.965867	2503.618482
422.344686	2501.596979
422.723444	2503.298368
423.102141	2503.038749
423.480777	2504.868688
423.859352	2503.179901
424.237866	2506.741476
424.616319	2504.737618
424.994712	2506.723832
425.373044	2500.298882
425.751314	2501.395333
426.129524	2499.696464
426.507673	2501.024808
426.885762	2496.815444
427.263789	2504.374655
427.641756	2504.662000
428.019662	2503.842813
428.397508	2502.688389
428.775292	2504.331805
429.153016	2505.508914
429.530679	2507.669049
429.908282	2503.018584
430.285824	2504.402381
430.663305	2502.148985
431.040726	2504.626712
431.418086	2502.983296
431.795385	2505.816425
432.172624	2503.081599
432.549802	2507.396826
432.926920	2504.384737
433.303977	2503.815087
433.680974	2505.070334
434.057910	2508.029491
434.434786	2505.256857
434.811601	2504.757782
435.188355	2502.713594
435.565050	2504.510766
435.941683	2505.334994
436.318257	2504.707371
436.694770	2505.637464
437.071222	2505.304747
437.447614	2504.442710
437.823946	2508.200890
438.200218	2504.669562
438.576429	2505.632423
438.952580	2504.359531
439.328670	2507.701816
439.704700	2502.471619
440.080670	2508.546209
440.456580	2503.197545
440.832429	2505.208966
441.208218	2507.021260
441.583947	2506.312978
441.959616	2506.388596
442.335224	2505.473626
442.710773	2504.556136
443.086261	2507.162413
443.461689	2505.087978
443.837057	2507.822804
444.212365	2505.425735
444.587612	2506.680982
444.962800	2505.405571
445.337927	2504.974552
445.712995	2501.070178
446.088002	2506.318019
446.462949	2507.263236
446.837837	2507.686693
447.212664	2507.364059
447.587431	2507.674090
447.962139	2507.021260
448.336786	2505.294665
448.711374	2506.559995
449.085901	2506.577639
449.460369	2507.996724
449.834776	2508.417660
450.209124	2505.377844
450.583412	2510.106447
450.957640	2509.514111
451.331808	2506.771723
451.705917	2508.359687
452.079965	2505.917248
452.453954	2507.895901
452.827883	2510.832373
453.201752	2507.648884
453.575562	2509.176354
453.949311	2508.846158
454.323001	2507.913545
454.696632	2508.447907
455.070202	2508.868843
455.443713	2506.877588
455.817164	2509.882115
456.190556	2507.858092
456.563888	2510.229955
456.937160	2509.113339
457.310373	2508.906652
457.683526	2509.894718
458.056619	2510.164420
458.429653	2507.197701
458.802628	2507.427073
459.175542	2508.057218
459.548398	2509.937568
459.921194	2509.872033
460.293930	2507.820283
460.666607	2509.572084
461.039224	2508.591580
461.411782	2508.379851
461.784280	2510.610562
462.156719	2509.123422
462.529099	2509.428411
462.901419	2509.357835
463.273680	2507.331291
463.645882	2505.269459
464.018024	2507.149810
464.390106	2503.716784
464.762130	2509.849348
465.134094	2510.366066
465.505999	2511.311282
465.877845	2507.880777
466.249631	2510.723988
466.621358	2509.773730
466.993026	2512.417816
467.364634	2512.949657
467.736184	2511.459996
468.107674	2510.277846
468.479105	2509.435973
468.850477	2511.066786
469.221790	2509.965294
469.593043	2510.393792
469.964238	2510.136693
470.335373	2512.201046
470.706449	2509.904800
471.077467	2511.172651
471.448425	2513.567199
471.819324	2510.323216
472.190164	2509.899759
472.560945	2512.047291
472.931667	2508.757938
473.302330	2509.834224
473.672934	2511.011334
474.043479	2508.889008
474.413965	2509.909842
474.784393	2511.528052
475.154761	2510.711385
475.525070	2508.954543
475.895321	2512.624503
476.265513	2506.711229
476.635645	2513.690707
477.005719	2513.605007
477.375734	2511.059225
477.745691	2513.599966
478.115588	2511.132321
478.485427	2510.164420
478.855207	2511.996879
479.224928	2512.075017
479.594591	2514.280522
479.964194	2511.497805
480.333739	2512.473268
480.703226	2513.491581
481.072653	2511.802795
481.442022	2514.003258
481.811333	2513.486540
482.180584	2509.869512
482.549777	2512.712723
482.918912	2507.265756
483.287988	2513.889833
483.657005	2515.986953
484.025964	2513.945285
484.394864	2514.086438
484.763706	2513.758762
485.132489	2514.010820
485.501213	2513.617610
485.869879	2513.892353
486.238487	2512.548886
486.607036	2513.990656
486.975527	2514.527538
487.343959	2517.239679
487.712333	2514.973681
488.080648	2513.988135
488.448905	2516.745646
488.817104	2514.928310
489.185244	2517.398476
489.553326	2517.403517
489.921350	2517.043074
490.289315	2513.410923
490.657222	2515.893691
491.025070	2515.555934
491.392861	2517.161541
491.760593	2514.792199
492.128267	2514.714061
492.495883	2516.332272
492.863440	2514.784637
493.230939	2514.966119
493.598380	2515.737415
493.965763	2515.729854
494.333088	2516.594412
494.700354	2514.174658
495.067563	2518.384021
495.434713	2516.728002
495.801805	2515.097189
496.168839	2517.985770
496.535815	2516.433095
496.902733	2513.801612
497.269593	2515.694566
497.636395	2512.473268
498.003139	2514.993845
498.369825	2514.830008
498.736453	2518.245389
499.103023	2514.088958
499.469535	2515.747498
499.835989	2515.190450
500.202385	2514.835049
500.568723	2510.532424
500.935003	2515.644154
501.301226	2511.533093
501.667390	2519.251100
502.033497	2515.129956
502.399546	2517.854700
502.765537	2513.383197
503.131470	2516.964936
503.497345	2515.734895
503.863163	2515.465193
504.228923	2516.614576
504.594625	2518.941069
504.960269	2516.700276
505.325856	2517.277488
505.691385	2514.872858
506.056856	2515.492919
506.422270	2517.292611
506.787625	2517.456449
507.152924	2513.461334
507.518164	2518.741943
507.883347	2515.369411
508.248472	2515.813033
508.613540	2516.354957
508.978550	2516.186078
509.343503	2514.512415
509.708398	2515.956706
510.073236	2515.807992
510.438016	2515.364370
510.802738	2515.404699
511.167403	2516.544000
511.532010	2516.022241
511.896561	2517.607683
512.261053	2516.995183
512.625488	2517.466531
512.989866	2518.298322
513.354186	2517.912673
513.718449	2516.816222
514.082655	2518.603311
514.446803	2517.264885
514.810894	2518.376459
515.174927	2518.308404
515.538904	2516.314628
515.902822	2519.039371
516.266684	2518.351254
516.630488	2516.319669
516.994235	2516.705317
517.357925	2519.165400
517.721558	2519.916532
518.085133	2516.972498
518.448651	2518.631038
518.812112	2515.765142
519.175516	2516.352436
519.538863	2515.019051
519.902152	2519.840915
520.265385	2518.729340
520.628560	2523.105062
520.991678	2519.034330
521.354739	2520.818898
521.717743	2520.965092
522.080690	2520.680267
522.443580	2522.600946
522.806413	2520.463497
523.169189	2522.958868
523.531908	2522.086749
523.894569	2523.412572
524.257174	2524.839219
524.619722	2523.107582
524.982213	2524.927439
525.344647	2524.158663
525.707025	2525.928108
526.069345	2527.352234
526.431608	2525.683612
526.793815	2526.764939
527.155964	2525.628159
527.518057	2527.208561
527.880093	2526.407017
528.242072	2528.010104
528.603995	2528.390712
528.965860	2531.067564
529.327669	2527.253931
529.689421	2528.846936
530.051117	2531.034797
530.412755	2533.071423
530.774337	2531.503624
531.135862	2533.764582
531.497331	2533.527647
531.858743	2532.947915
532.220098	2534.505631
532.581396	2535.612164
532.942638	2535.148378
533.303824	2535.765920
533.664953	2539.483771
534.026025	2535.891948
534.387040	2538.450334
534.747999	2538.442772
535.108902	2540.378575
535.469748	2539.382947
535.830537	2542.062321
536.191270	2539.519059
536.551947	2539.700540
536.912567	2535.748276
537.273131	2540.822197
537.633638	2536.217103
537.994089	2542.730274
538.354483	2542.672300
538.714821	2546.801005
539.075103	2545.543238
539.435328	2546.803526
539.795497	2546.717826
540.155609	2549.820657
540.515665	2547.912580
540.875665	2549.929041
541.235609	2549.281253
541.595496	2550.672612
541.955328	2551.683363
542.315102	2550.523897
542.674821	2553.533466
543.034483	2553.137736
543.394090	2554.715617
543.753640	2555.209650
544.113134	2555.751574
544.472571	2557.629404
544.831953	2558.771225
545.191278	2558.700649
545.550548	2556.550597
545.909761	2559.434137
546.268918	2559.509754
546.628019	2561.014539
546.987064	2561.248952
547.346053	2559.986143
547.704986	2561.503531
548.063863	2564.417318
548.422684	2565.685168
548.781449	2562.589899
549.140158	2565.876732
549.498811	2563.862791
549.857408	2564.928995
550.215949	2564.437482
550.574434	2568.979562
550.932864	2568.747669
551.291237	2569.050138
551.649555	2567.815055
552.007817	2569.629871
552.366022	2573.448545
552.724173	2566.247256
553.082267	2567.610888
553.440305	2572.233627
553.798288	2572.604151
554.156215	2571.696744
554.514086	2571.595921
554.871902	2568.180539
555.229661	2571.313616
555.587365	2570.872515
555.945014	2573.798905
556.302606	2574.363514
556.660143	2573.380489
557.017625	2575.079358
557.375050	2572.281518
557.732421	2576.085068
558.089735	2577.025243
558.446994	2573.977866
558.804197	2580.110429
559.161345	2575.943916
559.518437	2576.372414
559.875474	2579.422312
560.232455	2579.102199
560.589381	2578.156982
560.946251	2579.026581
561.303065	2577.839390
561.659825	2579.991962
562.016528	2579.268557
562.373177	2578.754359
562.729770	2579.928948
563.086307	2579.946592
563.442789	2579.313927
563.799216	2581.900039
564.155587	2582.971284
564.511904	2582.908270
564.868164	2584.523960
565.224370	2581.605132
565.580520	2582.888105
565.936615	2584.080338
566.292654	2581.768969
566.648638	2583.276274
567.004567	2584.768456
567.360441	2582.683938
567.716260	2583.926583
568.072023	2584.314752
568.427732	2581.660584
568.783385	2583.931624
569.138982	2585.267530
569.494525	2584.523960
569.850013	2584.433219
570.205445	2583.876171
570.560823	2586.376584
570.916145	2585.317941
571.271412	2586.928590
571.626625	2585.779207
571.981782	2583.435070
572.336884	2583.072107
572.691931	2580.790985
573.046923	2585.179310
573.401860	2578.358628
573.756743	2588.108220
574.111570	2586.185020
574.466342	2587.024372
574.821059	2585.393559
575.175722	2582.822570
575.530330	2583.803075
575.884882	2585.295256
576.239380	2584.367684
576.593823	2586.434557
576.948211	2584.498754
577.302544	2584.609659
577.656823	2584.612180
578.011047	2584.518918
578.365216	2586.744588
578.719330	2585.247365
579.073389	2584.103023
579.427394	2584.748291
579.781344	2584.279464
580.135239	2585.098651
580.489080	2583.750142
580.842866	2582.820050
581.196597	2588.340113
581.550273	2582.893146
581.903895	2581.839545
582.257463	2581.443815
582.610975	2581.995821
582.964434	2583.419947
583.317837	2583.777869
583.671186	2582.268043
584.024481	2583.583784
584.377721	2583.556058
584.730906	2582.976325
585.084037	2581.998342
585.437113	2582.116809
585.790135	2580.889288
586.143103	2583.992118
586.496016	2580.228897
586.848874	2585.161666
587.201679	2583.172930
587.554428	2580.173444
587.907124	2582.157138
588.259765	2582.376428
588.612352	2584.304669
588.964884	2579.931468
589.317362	2585.794330
589.669786	2581.189236
590.022155	2580.390213
590.374470	2581.322827
590.726731	2580.095306
591.078937	2577.824266
591.431090	2583.304000
591.783188	2581.038002
592.135232	2580.793506
592.487222	2581.774010
592.839157	2584.218970
593.191038	2583.649319
593.542866	2581.963053
593.894639	2582.242838
594.246358	2584.380287
594.598022	2582.076479
594.949633	2583.230904
595.301190	2580.783423
595.652692	2582.401634
596.004141	2583.798033
596.355535	2581.874833
596.706876	2580.891808
597.058162	2580.430543
597.409395	2580.687642
597.760573	2582.033630
598.111698	2582.220152
598.462768	2580.642271
598.813785	2582.537745
599.164748	2580.990111
599.515657	2583.424988
599.866511	2581.141345
600.217312	2582.212591
600.568060	2583.913980
600.918753	2586.114444
601.269392	2583.588826
601.619978	2582.694021
601.970510	2584.034968
602.320988	2585.428847
602.671412	2588.385483
603.021783	2587.712489
603.372100	2588.050247
603.722363	2585.706110
604.072572	2588.665268
604.422728	2589.245000
604.772830	2587.347006
605.122878	2588.811461
605.472872	2590.868252
605.822813	2588.027562
606.172701	2590.774990
606.522534	2593.023345
606.872314	2592.700711
607.222041	2595.891762
607.571714	2592.065526
607.921333	2592.249528
608.270899	2594.298757
608.620411	2593.358582
608.969870	2600.464088
609.319276	2599.481063
609.668627	2600.965683
610.017926	2603.347628
610.367171	2603.478698
610.716362	2609.056735
611.065500	2607.909872
611.414585	2610.019595
611.763616	2610.460696
612.112594	2611.020264
612.461518	2614.113012
612.810389	2616.711727
613.159207	2618.889505
613.507971	2621.082407
613.856682	2620.081738
614.205340	2623.106431
614.553945	2627.560290
614.902496	2630.050620
615.250994	2631.502472
615.599439	2632.588841
615.947830	2638.096302
616.296169	2639.470016
616.644454	2640.886580
616.992686	2648.319762
617.340864	2651.621717
617.688990	2655.231183
618.037063	2658.538180
618.385082	2661.139416
618.733048	2668.726352
619.080961	2671.304903
619.428821	2673.956549
619.776628	2676.560305
620.124382	2682.100533
620.472083	2686.501461
620.819731	2686.491378
621.167326	2687.557582
621.514868	2691.393901
621.862357	2691.333407
622.209793	2694.819365
622.557176	2695.840198
622.904506	2695.804910
623.251783	2696.677030
623.599007	2698.660724
623.946179	2702.912937
624.293297	2707.139945
624.640363	2704.760520
624.987376	2706.532486
625.334336	2707.893597
625.681243	2712.992724
626.028097	2717.156717
626.374899	2720.176368
626.721647	2725.643500
627.068343	2729.782287
627.414987	2734.155488
627.761577	2738.816035
628.108115	2744.225193
628.454600	2745.069586
628.801032	2755.159456
629.147412	2760.548449
629.493739	2762.640528
629.840014	2768.473143
630.186236	2779.782972
630.532405	2783.689866
630.878521	2790.765125
631.224585	2797.278296
631.570597	2802.584110
631.916556	2812.991572
632.262462	2821.800989
632.608316	2829.387925
632.954117	2832.702484
633.299866	2843.190605
633.645562	2847.946933
633.991206	2851.289218
634.336797	2851.566482
634.682336	2855.569158
635.027823	2859.130733
635.373257	2864.595344
635.718639	2864.444109
636.063968	2872.706560
636.409245	2870.992568
636.754470	2878.801315
637.099642	2881.238713
637.444762	2883.086296
637.789829	2889.239024
638.134845	2895.051475
638.479808	2900.760582
638.824719	2911.273908
639.169577	2910.303486
639.514383	2923.899478
639.859137	2923.826381
640.203839	2935.252156
640.548489	2943.554937
640.893086	2948.480144
641.237632	2953.362501
641.582125	2967.349183
641.926566	2972.196252
642.270955	2983.606904
642.615292	2988.060763
642.959576	2998.652228
643.303809	3005.367044
643.647990	3021.077800
643.992118	3030.464429
644.336195	3039.664535
