Dividing Wavelength (nm)	Counts (n)	Blue Motor Position (mm): 0.500000	Red Motor Position (mm): 0.000000	
326.493990	2067.135217
326.888308	2067.135217
327.282561	2067.135217
327.676750	2041.576567
328.070874	2043.653522
328.464933	2049.954965
328.858929	2057.751109
329.252859	2066.895762
329.646726	2081.716754
330.040528	2096.633529
330.434265	2112.792947
330.827938	2135.740280
331.221547	2157.417241
331.615091	2174.284942
332.008571	2198.096832
332.401986	2218.271530
332.795338	2235.507235
333.188625	2257.839546
333.581847	2275.564243
333.975006	2293.356996
334.368100	2309.972639
334.761129	2326.968889
335.154095	2342.120077
335.546996	2359.015504
335.939833	2369.377596
336.332606	2384.133053
336.725315	2400.347924
337.117960	2407.188770
337.510540	2418.027251
337.903056	2421.934145
338.295508	2433.266659
338.687896	2440.190684
339.080220	2445.688062
339.472480	2448.783331
339.864676	2453.557303
340.256807	2457.930504
340.648875	2458.689198
341.040879	2461.693726
341.432818	2459.692387
341.824694	2462.578448
342.216506	2460.546863
342.608253	2462.928808
342.999937	2458.936214
343.391557	2462.094497
343.783113	2459.185752
344.174605	2456.929835
344.566033	2456.793724
344.957397	2455.152828
345.348697	2450.308280
345.739934	2450.240224
346.131106	2451.208126
346.522215	2445.277208
346.913260	2444.127825
347.304241	2443.127156
347.695159	2440.967022
348.086012	2442.701178
348.476802	2438.509459
348.867528	2436.220775
349.258191	2433.238933
349.648789	2433.485949
350.039324	2427.938159
350.429796	2433.674993
350.820203	2430.882193
351.210548	2431.056113
351.600828	2432.631474
351.991045	2432.901175
352.381198	2427.575196
352.771288	2430.869590
353.161314	2427.605443
353.551276	2431.671134
353.941175	2430.010074
354.331010	2430.577203
354.720782	2429.309353
355.110490	2429.831113
355.500135	2431.104004
355.889717	2431.555187
356.279235	2430.471339
356.668689	2432.124838
357.058080	2431.509817
357.447408	2434.325301
357.836672	2432.281113
358.225873	2433.065013
358.615010	2432.588624
359.004084	2434.879828
359.393095	2433.206165
359.782043	2434.526947
360.170927	2437.649942
360.559748	2434.068202
360.948505	2436.866043
361.337199	2437.410488
361.725830	2436.165322
362.114398	2439.714295
362.502903	2437.450817
362.891344	2437.274376
363.279722	2438.257401
363.668037	2438.791764
364.056289	2441.821497
364.444478	2442.038267
364.832603	2440.634305
365.220665	2440.737649
365.608665	2441.965170
365.996601	2437.980138
366.384474	2442.600355
366.772284	2442.255036
367.160031	2441.357711
367.547715	2444.427774
367.935336	2441.007351
368.322893	2439.638678
368.710388	2440.394851
369.097820	2441.546754
369.485189	2439.605910
369.872495	2444.780654
370.259738	2447.449945
370.646918	2442.131528
371.034035	2444.243772
371.421090	2445.614965
371.808081	2446.265274
372.195010	2442.454162
372.581875	2443.840479
372.968678	2445.030192
373.355418	2448.400203
373.742096	2444.268977
374.128710	2445.309976
374.515262	2446.867692
374.901751	2446.308124
375.288177	2446.091354
375.674540	2445.776282
376.060841	2448.062446
376.447079	2445.839297
376.833254	2448.790892
377.219367	2451.734926
377.605417	2448.190995
377.991404	2446.913062
378.377329	2450.464555
378.763191	2450.399020
379.148991	2450.388938
379.534727	2448.309462
379.920402	2450.565378
380.306013	2451.699638
380.691563	2450.031016
381.077049	2451.709720
381.462474	2451.729885
381.847835	2449.685697
382.233134	2452.319700
382.618371	2452.912036
383.003545	2453.579988
383.388657	2450.648558
383.773706	2451.518157
384.158693	2453.239711
384.543618	2450.827518
384.928480	2451.669391
385.313280	2452.496140
385.698017	2453.033023
386.082692	2451.606377
386.467305	2453.224587
386.851856	2454.043775
387.236344	2454.210133
387.620770	2451.530759
388.005133	2449.499174
388.389435	2450.368773
388.773674	2451.074535
389.157851	2456.027469
389.541965	2453.963116
389.926018	2455.782973
390.310008	2454.943621
390.693936	2456.513940
391.077802	2456.506378
391.461606	2455.452777
391.845348	2454.474793
392.229027	2455.629217
392.612645	2456.980247
392.996200	2457.408745
393.379694	2455.112499
393.763125	2458.870679
394.146494	2457.045782
394.529801	2456.289609
394.913047	2456.319856
395.296230	2454.424382
395.679351	2457.655761
396.062410	2459.079887
396.445408	2459.712552
396.828343	2457.592747
397.211217	2458.059054
397.594028	2460.869497
397.976778	2455.656944
398.359466	2460.178859
398.742092	2460.889662
399.124656	2460.753550
399.507158	2459.828499
399.889598	2459.493262
400.271977	2459.142902
400.654294	2459.155505
401.036549	2461.005608
401.418742	2459.069805
401.800874	2459.888993
402.182944	2461.918057
402.564952	2461.968468
402.946898	2461.119034
403.328783	2463.642132
403.710606	2461.040896
404.092367	2460.325052
404.474067	2463.528706
404.855705	2462.533078
405.237282	2461.033334
405.618797	2462.767491
406.000250	2466.679427
406.381642	2461.489559
406.762972	2461.119034
407.144240	2459.921760
407.525447	2461.630711
407.906593	2457.822119
408.287677	2464.791515
408.668700	2465.519961
409.049661	2464.496607
409.430560	2463.868983
409.811399	2465.051134
410.192176	2465.066258
410.572891	2466.213120
410.953545	2465.557770
411.334138	2469.111783
411.714669	2466.354272
412.095139	2466.707153
412.475547	2465.111628
412.855894	2466.870991
413.236180	2465.840075
413.616405	2466.049282
413.996568	2464.388222
414.376670	2468.519448
414.756711	2464.930146
415.136691	2466.515589
415.516609	2466.669344
415.896466	2466.238326
416.276262	2465.870322
416.655997	2466.097173
417.035670	2466.261011
417.415283	2469.308388
417.794834	2469.378965
418.174324	2465.613223
418.553753	2467.080198
418.933121	2467.715384
419.312428	2467.465847
419.691674	2466.956690
420.070859	2466.228243
420.449983	2466.636577
420.829045	2468.383337
421.208047	2467.097842
421.586988	2466.056844
421.965867	2469.121866
422.344686	2468.111114
422.723444	2471.725622
423.102141	2470.956846
423.480777	2466.939046
423.859352	2470.130097
424.237866	2469.351238
424.616319	2470.835858
424.994712	2471.019860
425.373044	2472.239819
425.751314	2467.589355
426.129524	2466.752523
426.507673	2466.558439
426.885762	2463.511062
427.263789	2471.304685
427.641756	2467.833851
428.019662	2469.210086
428.397508	2469.429376
428.775292	2469.421814
429.153016	2471.143368
429.530679	2468.307719
429.908282	2472.000365
430.285824	2472.779223
430.663305	2470.785447
431.040726	2472.446507
431.418086	2472.791826
431.795385	2474.130252
432.172624	2471.821404
432.549802	2470.016671
432.926920	2473.749645
433.303977	2470.732514
433.680974	2470.558595
434.057910	2473.608493
434.434786	2473.212762
434.811601	2474.717547
435.188355	2472.529686
435.565050	2472.867443
435.941683	2473.502628
436.318257	2472.295272
436.694770	2473.830303
437.071222	2474.435242
437.447614	2472.290231
437.823946	2477.170068
438.200218	2475.123359
438.576429	2471.740745
438.952580	2471.130766
439.328670	2473.747124
439.704700	2474.241158
440.080670	2475.032619
440.456580	2473.169912
440.832429	2476.318113
441.208218	2473.550519
441.583947	2471.304685
441.959616	2476.413895
442.335224	2474.223513
442.710773	2475.912300
443.086261	2473.139665
443.461689	2474.672176
443.837057	2478.233751
444.212365	2475.201497
444.587612	2475.945068
444.962800	2472.822073
445.337927	2474.273925
445.712995	2471.798718
446.088002	2475.743421
446.462949	2475.370376
446.837837	2477.323823
447.212664	2473.059007
447.587431	2478.533700
447.962139	2476.517238
448.336786	2479.844400
448.711374	2477.926241
449.085901	2474.399954
449.460369	2479.204173
449.834776	2477.868268
450.209124	2476.466827
450.583412	2475.582104
450.957640	2477.238123
451.331808	2477.432208
451.705917	2476.275263
452.079965	2475.340129
452.453954	2473.497587
452.827883	2479.458752
453.201752	2472.189408
453.575562	2478.594194
453.949311	2475.657722
454.323001	2476.141673
454.696632	2477.936323
455.070202	2480.630820
455.443713	2477.926241
455.817164	2476.494553
456.190556	2476.764255
456.563888	2476.023205
456.937160	2479.110912
457.310373	2477.777527
457.683526	2475.377938
458.056619	2479.609986
458.429653	2476.613020
458.802628	2478.566467
459.175542	2479.204173
459.548398	2477.472537
459.921194	2478.899184
460.293930	2479.872126
460.666607	2476.827269
461.039224	2478.541262
461.411782	2477.903556
461.784280	2479.063021
462.156719	2480.237610
462.529099	2480.454380
462.901419	2480.446818
463.273680	2473.253091
463.645882	2476.416415
464.018024	2478.004379
464.390106	2471.133286
464.762130	2477.835500
465.134094	2480.126705
465.505999	2480.076293
465.877845	2481.104688
466.249631	2482.480923
466.621358	2480.635861
466.993026	2482.120481
467.364634	2484.923363
467.736184	2480.330871
468.107674	2480.217445
468.479105	2480.270378
468.850477	2481.714668
469.221790	2480.560244
469.593043	2479.524287
469.964238	2481.777682
470.335373	2478.959678
470.706449	2479.178968
471.077467	2479.715851
471.448425	2480.270377
471.819324	2480.146869
472.190164	2480.880357
472.560945	2479.776344
472.931667	2478.959678
473.302330	2480.630820
473.672934	2480.151910
474.043479	2482.075111
474.413965	2481.286170
474.784393	2480.101499
475.154761	2481.989411
475.525070	2477.452373
475.895321	2482.735502
476.265513	2479.907414
476.635645	2483.378249
477.005719	2481.848259
477.375734	2478.533700
477.745691	2482.284318
478.115588	2483.048053
478.485427	2481.949082
478.855207	2480.920686
479.224928	2482.022178
479.594591	2483.595018
479.964194	2480.217445
480.333739	2482.420430
480.703226	2482.334730
481.072653	2483.612663
481.442022	2483.597539
481.811333	2478.102681
482.180584	2478.054790
482.549777	2480.429174
482.918912	2477.041518
483.287988	2481.281129
483.657005	2483.587457
484.025964	2482.180975
484.394864	2481.079483
484.763706	2479.877168
485.132489	2483.161479
485.501213	2483.264823
485.869879	2485.193064
486.238487	2481.961685
486.607036	2481.167703
486.975527	2482.150728
487.343959	2481.082003
487.712333	2483.209370
488.080648	2483.980667
488.448905	2481.381952
488.817104	2483.373208
489.185244	2486.496202
489.553326	2481.828094
489.921350	2484.288177
490.289315	2482.760708
490.657222	2485.422437
491.025070	2484.328506
491.392861	2483.327837
491.760593	2482.730461
492.128267	2483.153917
492.495883	2482.405306
492.863440	2481.901191
493.230939	2483.315234
493.598380	2484.580564
493.965763	2481.802888
494.333088	2487.315390
494.700354	2484.653661
495.067563	2485.573671
495.434713	2482.090234
495.801805	2483.968064
496.168839	2484.457056
496.535815	2481.364308
496.902733	2483.642909
497.269593	2482.919504
497.636395	2487.781697
498.003139	2484.822539
498.369825	2484.744402
498.736453	2484.956130
499.103023	2485.929073
499.469535	2485.356902
499.835989	2486.019813
500.202385	2482.899339
500.568723	2479.204173
500.935003	2481.838176
501.301226	2480.711478
501.667390	2486.642396
502.033497	2484.353712
502.399546	2483.466469
502.765537	2485.190544
503.131470	2484.860348
503.497345	2484.096613
503.863163	2484.164669
504.228923	2484.010914
504.594625	2488.116933
504.960269	2483.894967
505.325856	2486.614670
505.691385	2486.458394
506.056856	2485.031747
506.422270	2484.068887
506.787625	2484.313383
507.152924	2485.220791
507.518164	2486.072746
507.883347	2485.384628
508.248472	2483.645430
508.613540	2484.051243
508.978550	2485.185502
509.343503	2487.375884
509.708398	2485.220791
510.073236	2485.188023
510.438016	2485.427478
510.802738	2485.188023
511.167403	2484.278095
511.532010	2486.725575
511.896561	2488.537870
512.261053	2484.928404
512.625488	2485.326655
512.989866	2485.397231
513.354186	2481.399596
513.718449	2483.337920
514.082655	2486.410503
514.446803	2485.288846
514.810894	2487.862355
515.174927	2484.247848
515.538904	2487.524598
515.902822	2484.958651
516.266684	2487.055771
516.630488	2487.249855
516.994235	2489.465442
517.357925	2484.139463
517.721558	2484.880513
518.085133	2487.731285
518.448651	2485.598877
518.812112	2482.387662
519.175516	2481.223156
519.538863	2481.399596
519.902152	2487.534680
520.265385	2486.281953
520.628560	2483.204329
520.991678	2484.709113
521.354739	2486.075266
521.717743	2488.331183
522.080690	2487.824547
522.443580	2486.380256
522.806413	2487.786738
523.169189	2484.986377
523.531908	2486.309680
523.894569	2489.533498
524.257174	2483.015286
524.619722	2486.743219
524.982213	2485.606439
525.344647	2487.811944
525.707025	2486.604587
526.069345	2487.794300
526.431608	2486.556696
526.793815	2487.005359
527.155964	2487.920328
527.518057	2486.453353
527.880093	2484.895636
528.242072	2487.801861
528.603995	2485.021665
528.965860	2487.539721
529.327669	2486.135760
529.689421	2484.073928
530.051117	2486.130719
530.412755	2484.116778
530.774337	2486.201295
531.135862	2484.719196
531.497331	2490.945021
531.858743	2488.573158
532.220098	2487.759012
532.581396	2485.102323
532.942638	2486.402941
533.303824	2488.003508
533.664953	2486.077787
534.026025	2484.018475
534.387040	2487.713641
534.747999	2487.822026
535.108902	2482.672487
535.469748	2486.808754
535.830537	2489.989722
536.191270	2485.956799
536.551947	2486.176089
536.912567	2482.312045
537.273131	2483.632827
537.633638	2481.563433
537.994089	2487.398569
538.354483	2486.808754
538.714821	2485.440081
539.075103	2488.731954
539.435328	2487.454022
539.795497	2488.305977
540.155609	2488.621049
540.515665	2488.389156
540.875665	2489.203302
541.235609	2485.699700
541.595496	2487.010400
541.955328	2487.118785
542.315102	2486.455873
542.674821	2489.069712
543.034483	2488.711790
543.394090	2486.743219
543.753640	2490.622387
544.113134	2484.837663
544.472571	2486.450832
544.831953	2486.619711
545.191278	2487.920328
545.550548	2486.337406
545.909761	2488.686584
546.268918	2487.123826
546.628019	2485.334217
546.987064	2485.840852
547.346053	2488.414362
547.704986	2487.630462
548.063863	2488.328662
548.422684	2488.552993
548.781449	2487.466625
549.140158	2487.257417
549.498811	2488.759681
549.857408	2485.361943
550.215949	2488.505102
550.574434	2488.190030
550.932864	2485.298928
551.291237	2488.000987
551.649555	2487.436378
552.007817	2487.736326
552.366022	2487.547283
552.724173	2489.815802
553.082267	2488.648775
553.440305	2487.842191
553.798288	2488.006028
554.156215	2486.957468
554.514086	2486.886892
554.871902	2481.994452
555.229661	2483.605101
555.587365	2482.795996
555.945014	2489.707418
556.302606	2486.123157
556.660143	2487.635503
557.017625	2485.442601
557.375050	2486.095431
557.732421	2488.936121
558.089735	2488.311018
558.446994	2491.197078
558.804197	2487.771614
559.161345	2486.846563
559.518437	2484.368836
559.875474	2487.690956
560.232455	2485.571151
560.589381	2488.197592
560.946251	2488.202633
561.303065	2487.065853
561.659825	2487.355719
562.016528	2487.993425
562.373177	2490.594661
562.729770	2488.437047
563.086307	2489.180617
563.442789	2487.353199
563.799216	2489.538539
564.155587	2487.262458
564.511904	2487.900164
564.868164	2487.703559
565.224370	2486.501244
565.580520	2488.626090
565.936615	2486.276912
566.292654	2485.329175
566.648638	2487.678353
567.004567	2488.094248
567.360441	2488.618528
567.716260	2489.024341
568.072023	2488.696666
568.427732	2487.106182
568.783385	2487.690956
569.138982	2486.702890
569.494525	2486.463435
569.850013	2489.067191
570.205445	2486.670122
570.560823	2488.976450
570.916145	2484.509988
571.271412	2488.495020
571.626625	2487.297746
571.981782	2487.141470
572.336884	2485.724906
572.691931	2484.331027
573.046923	2486.256748
573.401860	2487.380925
573.756743	2487.627942
574.111570	2486.324803
574.466342	2488.323621
574.821059	2490.171204
575.175722	2487.494351
575.530330	2486.508805
575.884882	2490.246821
576.239380	2489.992243
576.593823	2491.340751
576.948211	2489.299084
577.302544	2488.905874
577.656823	2487.774135
578.011047	2489.389825
578.365216	2487.549804
578.719330	2489.830926
579.073389	2489.165493
579.427394	2489.624238
579.781344	2489.316728
580.135239	2486.985194
580.489080	2485.674494
580.842866	2489.077273
581.196597	2489.455360
581.550273	2490.531646
581.903895	2492.001143
582.257463	2489.790597
582.610975	2488.043837
582.964434	2488.459732
583.317837	2486.256748
583.671186	2487.461583
584.024481	2489.984681
584.377721	2489.178096
584.730906	2487.481748
585.084037	2487.504433
585.437113	2488.351347
585.790135	2487.930411
586.143103	2488.227839
586.496016	2487.310349
586.848874	2487.373363
587.201679	2488.573158
587.554428	2487.028044
587.907124	2489.198261
588.259765	2487.680874
588.612352	2488.326141
588.964884	2488.444608
589.317362	2490.272027
589.669786	2487.476707
590.022155	2487.978302
590.374470	2484.091572
590.726731	2486.813795
591.078937	2482.717858
591.431090	2489.994763
591.783188	2488.144660
592.135232	2486.657519
592.487222	2488.696666
592.839157	2490.622387
593.191038	2486.987715
593.542866	2488.061481
593.894639	2488.084166
594.246358	2491.194558
594.598022	2484.328506
594.949633	2490.030051
595.301190	2491.686070
595.652692	2487.335555
596.004141	2489.921667
596.355535	2490.045175
596.706876	2488.517705
597.058162	2487.713641
597.409395	2490.413179
597.760573	2489.223467
598.111698	2487.890082
598.462768	2489.389825
598.813785	2486.869248
599.164748	2487.900164
599.515657	2487.743888
599.866511	2487.317911
600.217312	2487.953096
600.568060	2487.872438
600.918753	2491.552480
601.269392	2489.009218
601.619978	2487.257417
601.970510	2488.421923
602.320988	2488.013590
602.671412	2487.315390
603.021783	2488.094248
603.372100	2489.959475
603.722363	2487.232211
604.072572	2490.438385
604.422728	2488.492499
604.772830	2487.547283
605.122878	2487.466625
605.472872	2486.528970
605.822813	2487.511995
606.172701	2486.181130
606.522534	2487.940493
606.872314	2488.747078
607.222041	2488.316059
607.571714	2485.586274
607.921333	2484.464618
608.270899	2485.155256
608.620411	2482.465800
608.969870	2488.260606
609.319276	2487.275061
609.668627	2488.147180
610.017926	2487.368322
610.367171	2487.605256
610.716362	2488.323621
611.065500	2488.495020
611.414585	2486.924701
611.763616	2488.288333
612.112594	2487.970740
612.461518	2486.718013
612.810389	2490.095586
613.159207	2483.940337
613.507971	2490.808910
613.856682	2485.596357
614.205340	2488.545432
614.553945	2488.021152
614.902496	2486.536532
615.250994	2487.078456
615.599439	2488.230359
615.947830	2487.945534
616.296169	2487.940493
616.644454	2487.890082
616.992686	2488.164824
617.340864	2488.984012
617.688990	2486.927221
618.037063	2484.772128
618.385082	2488.898312
618.733048	2487.126347
619.080961	2487.300267
619.428821	2489.246152
619.776628	2485.661892
620.124382	2490.662716
620.472083	2488.719351
620.819731	2485.976964
621.167326	2488.905874
621.514868	2489.692294
621.862357	2488.472335
622.209793	2487.658188
622.557176	2488.663899
622.904506	2488.384115
623.251783	2484.595687
623.599007	2488.815133
623.946179	2486.518888
624.293297	2487.111223
624.640363	2484.918321
624.987376	2486.982674
625.334336	2483.065697
625.681243	2483.539566
626.028097	2483.272385
626.374899	2488.497541
626.721647	2486.718013
627.068343	2486.236583
627.414987	2486.753301
627.761577	2488.016110
628.108115	2485.664412
628.454600	2487.922849
628.801032	2488.991574
629.147412	2487.295225
629.493739	2488.701707
629.840014	2487.524598
630.186236	2488.232880
630.532405	2488.452170
630.878521	2490.579537
631.224585	2488.676502
631.570597	2489.750267
631.916556	2488.076604
632.262462	2488.913436
632.608316	2485.309011
632.954117	2488.426964
633.299866	2488.447129
633.645562	2485.687097
633.991206	2489.873776
634.336797	2488.366471
634.682336	2486.806233
635.027823	2488.711790
635.373257	2487.564927
635.718639	2489.238590
636.063968	2489.478045
636.409245	2486.496203
636.754470	2486.455873
637.099642	2485.634165
637.444762	2486.735657
637.789829	2489.488127
638.134845	2487.847232
638.479808	2487.270020
638.824719	2489.538539
639.169577	2486.758343
639.514383	2489.031903
639.859137	2488.333703
640.203839	2487.683394
640.548489	2488.366471
640.893086	2485.215749
641.237632	2489.730103
641.582125	2489.074753
641.926566	2487.315390
642.270955	2485.142653
642.615292	2483.526963
642.959576	2485.349340
643.303809	2481.616366
643.647990	2486.775987
643.992118	2487.471666
644.336195	2488.283292
