Dividing Wavelength (nm)	Counts (n)	Blue Motor Position (mm): 2.000000	Red Motor Position (mm): 0.000000	
326.493990	2066.399208
326.888308	2066.399208
327.282561	2066.399208
327.676750	2040.028933
328.070874	2042.655374
328.464933	2050.300284
328.858929	2058.141798
329.252859	2068.682851
329.646726	2081.159707
330.040528	2097.039342
330.434265	2114.968205
330.827938	2136.337656
331.221547	2157.392035
331.615091	2175.696465
332.008571	2197.459126
332.401986	2214.737681
332.795338	2237.095198
333.188625	2257.579927
333.581847	2275.702875
333.975006	2293.551080
334.368100	2312.284008
334.761129	2328.413180
335.154095	2346.427743
335.546996	2358.453415
335.939833	2372.810622
336.332606	2386.966182
336.725315	2395.576472
337.117960	2407.690365
337.510540	2417.616397
337.903056	2424.432037
338.295508	2432.742379
338.687896	2439.631116
339.080220	2447.296190
339.472480	2449.524380
339.864676	2456.221553
340.256807	2456.274485
340.648875	2459.843622
341.040879	2461.154322
341.432818	2462.006277
341.824694	2464.408387
342.216506	2460.695577
342.608253	2464.539457
342.999937	2458.537963
343.391557	2458.590895
343.783113	2460.778756
344.174605	2457.297839
344.566033	2457.219702
344.957397	2452.070163
345.348697	2454.850359
345.739934	2450.157045
346.131106	2448.226283
346.522215	2447.470110
346.913260	2442.416353
347.304241	2445.625048
347.695159	2442.834769
348.086012	2442.343257
348.476802	2438.874943
348.867528	2435.850250
349.258191	2430.189035
349.648789	2437.647422
350.039324	2428.343972
350.429796	2431.396391
350.820203	2431.378747
351.210548	2433.831268
351.600828	2427.842377
351.991045	2431.592996
352.381198	2428.953952
352.771288	2430.325146
353.161314	2430.284817
353.551276	2432.268511
353.941175	2430.710794
354.331010	2431.020825
354.720782	2429.984868
355.110490	2430.854467
355.500135	2428.245670
355.889717	2431.908068
356.279235	2432.354210
356.668689	2430.635177
357.058080	2432.462595
357.447408	2431.119128
357.836672	2434.277410
358.225873	2434.521906
358.615010	2434.232040
359.004084	2433.130548
359.393095	2435.898141
359.782043	2436.054417
360.170927	2434.872267
360.559748	2438.428801
360.948505	2434.295054
361.337199	2438.373348
361.725830	2436.613985
362.114398	2436.573656
362.502903	2440.127669
362.891344	2439.580704
363.279722	2439.918462
363.668037	2435.348656
364.056289	2440.440221
364.444478	2439.129521
364.832603	2438.877463
365.220665	2442.418874
365.608665	2441.309820
365.996601	2442.620520
366.384474	2440.979624
366.772284	2443.369131
367.160031	2441.206476
367.547715	2443.036415
367.935336	2441.133380
368.322893	2441.292176
368.710388	2440.767896
369.097820	2443.633792
369.485189	2439.842844
369.872495	2442.839810
370.259738	2445.120932
370.646918	2444.122784
371.034035	2445.055397
371.421090	2444.407609
371.808081	2444.921807
372.195010	2446.103957
372.581875	2447.588577
372.968678	2448.027158
373.355418	2446.285439
373.742096	2445.930037
374.128710	2447.200408
374.515262	2448.748043
374.901751	2445.607404
375.288177	2448.294339
375.674540	2446.610593
376.060841	2449.148814
376.447079	2447.770059
376.833254	2449.390790
377.219367	2447.732250
377.605417	2450.731737
377.991404	2447.946499
378.377329	2449.577312
378.763191	2450.041098
379.148991	2450.731737
379.534727	2449.826849
379.920402	2448.808536
380.306013	2449.811726
380.691563	2450.998918
381.077049	2448.866510
381.462474	2450.066304
381.847835	2451.734926
382.233134	2453.509412
382.618371	2450.706531
383.003545	2450.971191
383.388657	2449.718465
383.773706	2454.074022
384.158693	2456.241718
384.543618	2451.697117
384.928480	2452.970009
385.313280	2451.576130
385.698017	2452.319700
386.082692	2454.752057
386.467305	2454.081583
386.851856	2455.601491
387.236344	2456.256841
387.620770	2453.466562
388.005133	2449.589915
388.389435	2453.446398
388.773674	2450.850204
389.157851	2457.938066
389.541965	2453.083435
389.926018	2457.383539
390.310008	2456.050154
390.693936	2454.184927
391.077802	2453.786676
391.461606	2456.708024
391.845348	2456.181224
392.229027	2457.809517
392.612645	2455.009156
392.996200	2457.328086
393.379694	2456.206430
393.763125	2459.440330
394.146494	2455.876234
394.529801	2459.510906
394.913047	2457.527212
395.296230	2458.399332
395.679351	2457.343210
396.062410	2457.340689
396.445408	2461.542491
396.828343	2455.311625
397.211217	2459.402521
397.594028	2459.735237
397.976778	2459.331945
398.359466	2458.414455
398.742092	2460.483849
399.124656	2459.631894
399.507158	2458.810186
399.889598	2462.333952
400.271977	2463.768160
400.654294	2459.321863
401.036549	2460.809003
401.418742	2461.991154
401.800874	2462.044086
402.182944	2462.018880
402.564952	2461.292954
402.946898	2462.676751
403.328783	2462.122224
403.710606	2461.471915
404.092367	2461.045937
404.474067	2464.771350
404.855705	2461.754219
405.237282	2464.388222
405.618797	2460.955197
406.000250	2461.023252
406.381642	2462.666668
406.762972	2462.482666
407.144240	2461.280351
407.525447	2460.670371
407.906593	2459.647017
408.287677	2463.017028
408.668700	2464.940229
409.049661	2465.620784
409.430560	2462.792697
409.811399	2466.437451
410.192176	2464.846967
410.572891	2463.949642
410.953545	2464.683130
411.334138	2466.124900
411.714669	2464.587348
412.095139	2463.513582
412.475547	2465.167081
412.855894	2467.294448
413.236180	2465.779581
413.616405	2468.582462
413.996568	2466.167750
414.376670	2466.606330
414.756711	2467.848974
415.136691	2468.562298
415.516609	2469.847792
415.896466	2466.233285
416.276262	2467.677575
416.655997	2467.415435
417.035670	2465.295630
417.415283	2470.271249
417.794834	2467.334777
418.174324	2467.034828
418.553753	2469.623461
418.933121	2469.976341
419.312428	2468.728656
419.691674	2469.552884
420.070859	2468.504324
420.449983	2467.397791
420.829045	2471.718060
421.208047	2468.733697
421.586988	2467.324694
421.965867	2469.562967
422.344686	2469.764613
422.723444	2469.575570
423.102141	2470.712350
423.480777	2471.163533
423.859352	2469.918368
424.237866	2467.536423
424.616319	2471.392906
424.994712	2469.220168
425.373044	2472.196970
425.751314	2467.601958
426.129524	2466.964252
426.507673	2467.327215
426.885762	2465.852678
427.263789	2469.913327
427.641756	2471.531537
428.019662	2473.850468
428.397508	2469.827627
428.775292	2472.590180
429.153016	2470.919037
429.530679	2473.515231
429.908282	2471.579428
430.285824	2469.124386
430.663305	2471.987762
431.040726	2471.907103
431.418086	2471.839048
431.795385	2474.185705
432.172624	2472.272587
432.549802	2472.454068
432.926920	2471.982721
433.303977	2471.060189
433.680974	2470.677062
434.057910	2475.014975
434.434786	2472.320478
434.811601	2472.827114
435.188355	2471.309727
435.565050	2472.383492
435.941683	2472.544809
436.318257	2472.910293
436.694770	2473.295941
437.071222	2471.995323
437.447614	2474.331898
437.823946	2476.005561
438.200218	2475.067907
438.576429	2470.276290
438.952580	2475.166209
439.328670	2472.322998
439.704700	2473.903400
440.080670	2475.251909
440.456580	2473.389202
440.832429	2472.943060
441.208218	2474.939357
441.583947	2477.472537
441.959616	2475.642598
442.335224	2474.825931
442.710773	2474.646970
443.086261	2477.326344
443.461689	2477.197794
443.837057	2476.882722
444.212365	2472.706126
444.587612	2473.958853
444.962800	2473.260653
445.337927	2472.983390
445.712995	2470.765282
446.088002	2476.731488
446.462949	2474.770479
446.837837	2474.447845
447.212664	2477.270891
447.587431	2477.951447
447.962139	2476.928092
448.336786	2475.927423
448.711374	2475.627475
449.085901	2477.911118
449.460369	2474.828452
449.834776	2475.458596
450.209124	2476.192084
450.583412	2475.425829
450.957640	2474.306693
451.331808	2475.226703
451.705917	2480.477065
452.079965	2477.699389
452.453954	2479.776344
452.827883	2476.131590
453.201752	2478.137969
453.575562	2478.266519
453.949311	2475.773668
454.323001	2478.112764
454.696632	2478.828608
455.070202	2479.196612
455.443713	2479.340285
455.817164	2478.110243
456.190556	2479.592342
456.563888	2479.302476
456.937160	2478.942033
457.310373	2479.118474
457.683526	2475.458596
458.056619	2480.104019
458.429653	2478.805922
458.802628	2480.265336
459.175542	2481.661736
459.548398	2479.388176
459.921194	2478.327013
460.293930	2481.351705
460.666607	2477.013792
461.039224	2481.447487
461.411782	2481.195429
461.784280	2480.507312
462.156719	2479.546972
462.529099	2481.074442
462.901419	2477.159986
463.273680	2477.575881
463.645882	2474.639409
464.018024	2477.341467
464.390106	2477.543113
464.762130	2481.021509
465.134094	2478.311889
465.505999	2479.310038
465.877845	2480.532517
466.249631	2482.659884
466.621358	2480.257775
466.993026	2480.477065
467.364634	2484.991418
467.736184	2481.288691
468.107674	2478.284163
468.479105	2482.770790
468.850477	2479.799030
469.221790	2480.419092
469.593043	2479.647795
469.964238	2479.068062
470.335373	2478.906745
470.706449	2481.961685
471.077467	2481.659215
471.448425	2477.631333
471.819324	2480.416571
472.190164	2481.578557
472.560945	2479.801550
472.931667	2482.102837
473.302330	2481.339102
473.672934	2482.705255
474.043479	2483.146356
474.413965	2480.955974
474.784393	2479.335243
475.154761	2482.632158
475.525070	2481.339102
475.895321	2479.826756
476.265513	2480.756849
476.635645	2482.972436
477.005719	2481.550831
477.375734	2481.636530
477.745691	2482.695172
478.115588	2483.363125
478.485427	2480.731643
478.855207	2482.687611
479.224928	2482.707775
479.594591	2482.319607
479.964194	2484.353712
480.333739	2484.073928
480.703226	2483.083341
481.072653	2482.851448
481.442022	2479.872126
481.811333	2481.467652
482.180584	2479.552013
482.549777	2484.341109
482.918912	2475.768627
483.287988	2484.875472
483.657005	2480.882878
484.025964	2482.009576
484.394864	2481.422281
484.763706	2483.630307
485.132489	2484.068887
485.501213	2481.460090
485.869879	2484.305821
486.238487	2485.785400
486.607036	2481.374390
486.975527	2483.471510
487.343959	2485.031747
487.712333	2481.765080
488.080648	2482.180975
488.448905	2484.673825
488.817104	2484.600729
489.185244	2482.536376
489.553326	2484.288177
489.921350	2483.012765
490.289315	2483.950420
490.657222	2484.116778
491.025070	2482.095275
491.392861	2484.129381
491.760593	2484.588126
492.128267	2481.326499
492.495883	2484.089052
492.863440	2484.038640
493.230939	2483.763897
493.598380	2485.261120
493.965763	2483.342961
494.333088	2485.291367
494.700354	2482.692652
495.067563	2482.937148
495.434713	2481.878506
495.801805	2485.760194
496.168839	2483.262302
496.535815	2486.660040
496.902733	2484.464618
497.269593	2486.440750
497.636395	2484.399082
498.003139	2480.973618
498.369825	2482.180975
498.736453	2482.864051
499.103023	2484.250368
499.469535	2483.849597
499.835989	2483.834473
500.202385	2484.711634
500.568723	2482.848928
500.935003	2483.368167
501.301226	2479.811632
501.667390	2485.155256
502.033497	2483.852117
502.399546	2484.991418
502.765537	2485.301449
503.131470	2485.251038
503.497345	2487.007880
503.863163	2484.767087
504.228923	2484.983856
504.594625	2485.866058
504.960269	2487.254896
505.325856	2485.624083
505.691385	2485.235914
506.056856	2485.336737
506.422270	2485.228352
506.787625	2486.748260
507.152924	2486.407982
507.518164	2486.957468
507.883347	2480.497229
508.248472	2485.190544
508.613540	2483.264823
508.978550	2485.261120
509.343503	2485.429998
509.708398	2486.168528
510.073236	2487.264978
510.438016	2488.769763
510.802738	2484.890595
511.167403	2486.143322
511.532010	2486.594505
511.896561	2487.396048
512.261053	2483.852117
512.625488	2485.800523
512.989866	2487.680874
513.354186	2486.765904
513.718449	2485.747591
514.082655	2486.244145
514.446803	2484.837663
514.810894	2487.154073
515.174927	2486.072746
515.538904	2486.407982
515.902822	2485.707262
516.266684	2485.190544
516.630488	2486.259268
516.994235	2485.823208
517.357925	2486.450832
517.721558	2485.011583
518.085133	2485.614001
518.448651	2486.067704
518.812112	2482.831284
519.175516	2486.884371
519.538863	2481.112250
519.902152	2487.229690
520.265385	2486.274392
520.628560	2485.845894
520.991678	2484.504947
521.354739	2483.746253
521.717743	2488.507623
522.080690	2486.150883
522.443580	2488.240442
522.806413	2485.283805
523.169189	2483.358084
523.531908	2487.348157
523.894569	2488.187510
524.257174	2485.677015
524.619722	2487.045688
524.982213	2484.512508
525.344647	2488.187510
525.707025	2485.341778
526.069345	2485.024186
526.431608	2485.959320
526.793815	2486.269351
527.155964	2487.214567
527.518057	2487.874958
527.880093	2487.469145
528.242072	2487.471666
528.603995	2486.171048
528.965860	2485.896305
529.327669	2487.816985
529.689421	2485.646768
530.051117	2488.069043
530.412755	2486.097951
530.774337	2487.454022
531.135862	2485.288846
531.497331	2485.777838
531.858743	2489.215905
532.220098	2488.147180
532.581396	2487.194402
532.942638	2486.292036
533.303824	2487.587612
533.664953	2488.358909
534.026025	2487.832108
534.387040	2487.643065
534.747999	2486.700369
535.108902	2486.970071
535.469748	2486.619711
535.830537	2488.495020
536.191270	2485.687097
536.551947	2484.603249
536.912567	2483.600060
537.273131	2485.654330
537.633638	2480.857672
537.994089	2486.967550
538.354483	2487.753970
538.714821	2488.694146
539.075103	2487.443939
539.435328	2487.630462
539.795497	2488.507623
540.155609	2486.276912
540.515665	2489.341934
540.875665	2485.838332
541.235609	2489.392345
541.595496	2487.990905
541.955328	2488.638693
542.315102	2486.221460
542.674821	2486.836480
543.034483	2488.530308
543.394090	2488.116933
543.753640	2489.054588
544.113134	2489.576348
544.472571	2486.191213
544.831953	2489.735144
545.191278	2486.037457
545.550548	2488.449650
545.909761	2486.342447
546.268918	2489.283961
546.628019	2486.178610
546.987064	2488.018631
547.346053	2484.515029
547.704986	2489.130205
548.063863	2489.969558
548.422684	2489.213384
548.781449	2488.457211
549.140158	2488.016110
549.498811	2487.733806
549.857408	2485.533342
550.215949	2489.730103
550.574434	2487.874958
550.932864	2488.956286
551.291237	2488.762201
551.649555	2489.140288
552.007817	2487.534680
552.366022	2489.296563
552.724173	2487.189361
553.082267	2486.781028
553.440305	2486.075266
553.798288	2489.473004
554.156215	2487.330513
554.514086	2485.674494
554.871902	2482.412868
555.229661	2485.818167
555.587365	2485.155256
555.945014	2490.516523
556.302606	2485.566110
556.660143	2488.159783
557.017625	2486.909577
557.375050	2486.506285
557.732421	2486.029896
558.089735	2491.257572
558.446994	2487.552324
558.804197	2488.515185
559.161345	2487.310349
559.518437	2487.895123
559.875474	2488.021152
560.232455	2486.896974
560.589381	2485.596357
560.946251	2487.917808
561.303065	2486.972592
561.659825	2490.990391
562.016528	2489.256234
562.373177	2486.818836
562.729770	2488.477376
563.086307	2491.171873
563.442789	2487.789258
563.799216	2489.404948
564.155587	2489.452839
564.511904	2489.105000
564.868164	2488.835298
565.224370	2488.573158
565.580520	2486.425626
565.936615	2492.157418
566.292654	2487.207005
566.648638	2487.622900
567.004567	2488.631131
567.360441	2489.271358
567.716260	2485.435040
568.072023	2487.189361
568.427732	2486.186172
568.783385	2490.030051
569.138982	2490.370329
569.494525	2487.048209
569.850013	2486.546614
570.205445	2486.818836
570.560823	2485.674494
570.916145	2487.839670
571.271412	2488.114413
571.626625	2488.142139
571.981782	2487.481748
572.336884	2485.707262
572.691931	2483.433702
573.046923	2485.382108
573.401860	2483.572333
573.756743	2488.021152
574.111570	2489.236070
574.466342	2486.980153
574.821059	2489.304125
575.175722	2487.272540
575.530330	2485.747591
575.884882	2489.609115
576.239380	2487.910246
576.593823	2490.932418
576.948211	2487.007880
577.302544	2489.220946
577.656823	2489.704897
578.011047	2490.110710
578.365216	2488.860504
578.719330	2488.487458
579.073389	2488.555514
579.427394	2490.025010
579.781344	2488.192551
580.135239	2490.453508
580.489080	2488.918477
580.842866	2488.381594
581.196597	2490.428303
581.550273	2490.607263
581.903895	2487.650627
582.257463	2488.454691
582.610975	2485.185502
582.964434	2488.689104
583.317837	2490.075422
583.671186	2489.173055
584.024481	2489.122644
584.377721	2488.341265
584.730906	2491.867552
585.084037	2488.641213
585.437113	2489.868734
585.790135	2487.943014
586.143103	2485.750112
586.496016	2489.490648
586.848874	2490.468632
587.201679	2488.908395
587.554428	2487.640544
587.907124	2489.016779
588.259765	2489.238590
588.612352	2488.003507
588.964884	2487.320431
589.317362	2489.830926
589.669786	2490.501399
590.022155	2485.871099
590.374470	2484.681387
590.726731	2488.338744
591.078937	2484.444453
591.431090	2487.214567
591.783188	2486.488641
592.135232	2491.580206
592.487222	2488.512664
592.839157	2488.981491
593.191038	2490.254383
593.542866	2486.077787
593.894639	2490.806389
594.246358	2491.600371
594.598022	2488.273209
594.949633	2489.571306
595.301190	2490.652634
595.652692	2489.961996
596.004141	2487.544763
596.355535	2488.248003
596.706876	2489.011738
597.058162	2489.999804
597.409395	2489.430154
597.760573	2485.941676
598.111698	2486.052581
598.462768	2487.668271
598.813785	2488.323621
599.164748	2490.115751
599.515657	2485.792962
599.866511	2487.489310
600.217312	2489.021821
600.568060	2487.796820
600.918753	2490.506440
601.269392	2489.901502
601.619978	2490.264465
601.970510	2485.893785
602.320988	2490.549290
602.671412	2489.301605
603.021783	2487.602736
603.372100	2489.689773
603.722363	2486.967550
604.072572	2489.856132
604.422728	2490.322438
604.772830	2488.943683
605.122878	2488.966368
605.472872	2488.046357
605.822813	2488.555514
606.172701	2487.897643
606.522534	2486.919659
606.872314	2488.827736
607.222041	2489.684732
607.571714	2485.170379
607.921333	2481.981849
608.270899	2488.053919
608.620411	2484.580564
608.969870	2488.300936
609.319276	2486.566779
609.668627	2488.182468
610.017926	2487.827067
610.367171	2487.335555
610.716362	2486.246665
611.065500	2487.620380
611.414585	2488.661378
611.763616	2486.750781
612.112594	2490.508961
612.461518	2486.972592
612.810389	2488.174907
613.159207	2487.716162
613.507971	2487.401090
613.856682	2489.054588
614.205340	2489.016779
614.553945	2486.806233
614.902496	2489.208343
615.250994	2490.314877
615.599439	2492.653972
615.947830	2488.401759
616.296169	2488.616008
616.644454	2489.238590
616.992686	2486.942345
617.340864	2487.811944
617.688990	2486.125678
618.037063	2486.773466
618.385082	2490.733292
618.733048	2490.214053
619.080961	2486.528970
619.428821	2490.703045
619.776628	2487.930411
620.124382	2491.403766
620.472083	2489.349496
620.819731	2487.270020
621.167326	2487.764053
621.514868	2487.746409
621.862357	2489.578868
622.209793	2489.689773
622.557176	2486.748260
622.904506	2487.287664
623.251783	2490.330000
623.599007	2489.236070
623.946179	2488.303456
624.293297	2487.469145
624.640363	2489.399907
624.987376	2486.687766
625.334336	2483.990749
625.681243	2486.551655
626.028097	2483.436222
626.374899	2488.706748
626.721647	2485.971923
627.068343	2485.934114
627.414987	2489.215905
627.761577	2491.277737
628.108115	2488.285812
628.454600	2489.276399
628.801032	2491.968375
629.147412	2489.135247
629.493739	2489.765391
629.840014	2489.714979
630.186236	2487.466625
630.532405	2488.295894
630.878521	2489.442757
631.224585	2488.416882
631.570597	2487.448981
631.916556	2489.273878
632.262462	2489.203302
632.608316	2489.011738
632.954117	2488.363950
633.299866	2488.525267
633.645562	2487.068373
633.991206	2487.559886
634.336797	2485.959320
634.682336	2488.331182
635.027823	2488.167345
635.373257	2489.556183
635.718639	2490.221615
636.063968	2491.489465
636.409245	2487.990905
636.754470	2491.224805
637.099642	2488.217757
637.444762	2488.757160
637.789829	2490.435864
638.134845	2488.956286
638.479808	2486.952427
638.824719	2488.704228
639.169577	2488.817654
639.514383	2489.067191
639.859137	2486.050060
640.203839	2491.489465
640.548489	2486.707931
640.893086	2489.011738
641.237632	2487.267499
641.582125	2488.971409
641.926566	2487.895123
642.270955	2487.781697
642.615292	2483.889926
642.959576	2486.879330
643.303809	2487.753970
643.647990	2489.896461
643.992118	2486.526449
644.336195	2488.807572
