Dividing Wavelength (nm)	Counts (n)	Blue Motor Position (mm): 7.000000	Red Motor Position (mm): 0.000000	
326.493990	2067.314178
326.888308	2067.314178
327.282561	2067.314178
327.676750	2042.027750
328.070874	2044.845755
328.464933	2049.700386
328.858929	2059.021480
329.252859	2069.378530
329.646726	2083.113154
330.040528	2096.734352
330.434265	2115.114399
330.827938	2135.185753
331.221547	2157.437406
331.615091	2174.809222
332.008571	2197.746472
332.401986	2217.996787
332.795338	2236.830538
333.188625	2256.664958
333.581847	2271.611979
333.975006	2292.114351
334.368100	2311.071610
334.761129	2327.031903
335.154095	2342.515808
335.546996	2364.442306
335.939833	2387.404762
336.332606	2402.608882
336.725315	2412.892836
337.117960	2421.326686
337.510540	2430.950249
337.903056	2440.656991
338.295508	2447.454987
338.687896	2455.682150
339.080220	2462.575927
339.472480	2463.574076
339.864676	2469.109263
340.256807	2471.907103
340.648875	2474.561271
341.040879	2470.246043
341.432818	2475.987917
341.824694	2477.926241
342.216506	2475.496405
342.608253	2474.921713
342.999937	2477.623772
343.391557	2474.367186
343.783113	2472.474233
344.174605	2471.148410
344.566033	2467.312092
344.957397	2469.502473
345.348697	2465.104066
345.739934	2468.466516
346.131106	2464.478963
346.522215	2461.179528
346.913260	2460.274641
347.304241	2457.965792
347.695159	2456.594598
348.086012	2457.534774
348.476802	2453.224587
348.867528	2451.568568
349.258191	2447.649071
349.648789	2449.559668
350.039324	2444.881478
350.429796	2445.758638
350.820203	2445.677980
351.210548	2445.078083
351.600828	2446.245110
351.991045	2443.900973
352.381198	2446.570264
352.771288	2444.145469
353.161314	2445.536828
353.551276	2444.659667
353.941175	2443.744697
354.331010	2443.028853
354.720782	2448.117898
355.110490	2447.079421
355.500135	2444.894080
355.889717	2446.905501
356.279235	2442.970880
356.668689	2445.935079
357.058080	2445.405758
357.447408	2443.290993
357.836672	2448.412806
358.225873	2447.202929
358.615010	2448.929524
359.004084	2449.088320
359.393095	2447.016406
359.782043	2450.484720
360.170927	2445.778803
360.559748	2453.390945
360.948505	2450.676284
361.337199	2455.190637
361.725830	2449.206787
362.114398	2453.988322
362.502903	2451.707200
362.891344	2455.412448
363.279722	2454.431943
363.668037	2453.849690
364.056289	2455.052005
364.444478	2454.973867
364.832603	2455.203240
365.220665	2456.546707
365.608665	2452.982612
365.996601	2453.970678
366.384474	2455.941769
366.772284	2453.093517
367.160031	2454.217694
367.547715	2456.367747
367.935336	2456.403035
368.322893	2451.944134
368.710388	2453.259875
369.097820	2455.735082
369.485189	2452.385235
369.872495	2456.892027
370.259738	2456.871862
370.646918	2460.178859
371.034035	2457.769187
371.421090	2460.597275
371.808081	2458.974023
372.195010	2458.147274
372.581875	2457.781790
372.968678	2461.638273
373.355418	2457.398663
373.742096	2461.240022
374.128710	2463.274127
374.515262	2459.601647
374.901751	2460.400670
375.288177	2460.148612
375.674540	2463.722790
376.060841	2461.476956
376.447079	2462.444857
376.833254	2465.038531
377.219367	2459.712552
377.605417	2463.558952
377.991404	2463.448047
378.377329	2462.586010
378.763191	2465.106587
379.148991	2465.804787
379.534727	2465.945939
379.920402	2462.225567
380.306013	2464.791515
380.691563	2466.460137
381.077049	2463.619446
381.462474	2462.333952
381.847835	2462.293623
382.233134	2466.848305
382.618371	2462.565845
383.003545	2466.066927
383.388657	2464.451237
383.773706	2467.851495
384.158693	2465.318315
384.543618	2466.255970
384.928480	2466.593727
385.313280	2467.367544
385.698017	2466.782770
386.082692	2466.056844
386.467305	2468.937864
386.851856	2470.795529
387.236344	2468.567339
387.620770	2468.040538
388.005133	2465.373768
388.389435	2468.700929
388.773674	2465.119190
389.157851	2470.926599
389.541965	2469.880559
389.926018	2472.290231
390.310008	2469.099181
390.693936	2470.051959
391.077802	2471.042545
391.461606	2470.440127
391.845348	2468.615230
392.229027	2472.320478
392.612645	2470.026753
392.996200	2468.864767
393.379694	2469.220168
393.763125	2472.476754
394.146494	2472.451548
394.529801	2469.018522
394.913047	2472.557412
395.296230	2472.176805
395.679351	2470.346866
396.062410	2470.422483
396.445408	2474.886425
396.828343	2472.678400
397.211217	2471.352576
397.594028	2470.989613
397.976778	2472.408698
398.359466	2474.629326
398.742092	2472.754017
399.124656	2475.367855
399.507158	2474.074799
399.889598	2476.587815
400.271977	2478.140490
400.654294	2473.827783
401.036549	2475.640078
401.418742	2475.309882
401.800874	2475.756024
402.182944	2475.282156
402.564952	2476.973463
402.946898	2475.544296
403.328783	2478.725264
403.710606	2475.728298
404.092367	2474.609162
404.474067	2476.791981
404.855705	2475.037660
405.237282	2476.529841
405.618797	2476.015644
406.000250	2478.024543
406.381642	2477.265850
406.762972	2476.305510
407.144240	2473.386682
407.525447	2475.539255
407.906593	2474.909110
408.287677	2476.862557
408.668700	2477.117136
409.049661	2478.760552
409.430560	2477.152424
409.811399	2479.811633
410.192176	2478.289204
410.572891	2482.390183
410.953545	2480.252733
411.334138	2481.800368
411.714669	2479.859523
412.095139	2480.257775
412.475547	2479.640233
412.855894	2478.566468
413.236180	2479.874647
413.616405	2481.719709
413.996568	2481.664257
414.376670	2482.826243
414.756711	2481.008907
415.136691	2481.384472
415.516609	2483.474031
415.896466	2480.945892
416.276262	2482.274236
416.655997	2481.873464
417.035670	2479.990593
417.415283	2483.494195
417.794834	2481.263485
418.174324	2480.900522
418.553753	2481.621407
418.933121	2482.944710
419.312428	2483.073259
419.691674	2479.826756
420.070859	2481.013948
420.449983	2481.064359
420.829045	2478.853813
421.208047	2483.753815
421.586988	2481.669298
421.965867	2482.765749
422.344686	2483.315234
422.723444	2483.572333
423.102141	2484.099134
423.480777	2484.283136
423.859352	2482.932107
424.237866	2483.567292
424.616319	2484.751963
424.994712	2481.933958
425.373044	2479.771303
425.751314	2480.761890
426.129524	2479.279791
426.507673	2480.986221
426.885762	2479.302476
427.263789	2482.594349
427.641756	2484.840183
428.019662	2484.250368
428.397508	2483.786582
428.775292	2484.318424
429.153016	2484.744402
429.530679	2484.303301
429.908282	2486.750781
430.285824	2485.177941
430.663305	2483.731130
431.040726	2486.158445
431.418086	2484.252889
431.795385	2485.803044
432.172624	2485.258599
432.549802	2487.504433
432.926920	2486.559217
433.303977	2487.406131
433.680974	2485.278764
434.057910	2484.983856
434.434786	2485.498054
434.811601	2487.970740
435.188355	2486.097951
435.565050	2485.437560
435.941683	2486.758342
436.318257	2485.835811
436.694770	2483.975626
437.071222	2487.217088
437.447614	2487.925370
437.823946	2487.176758
438.200218	2488.563076
438.576429	2486.755822
438.952580	2486.904536
439.328670	2488.200113
439.704700	2487.610298
440.080670	2487.330513
440.456580	2486.309680
440.832429	2485.021665
441.208218	2487.391007
441.583947	2489.730103
441.959616	2490.695484
442.335224	2485.820688
442.710773	2489.530977
443.086261	2485.278764
443.461689	2487.905205
443.837057	2486.861686
444.212365	2488.225318
444.587612	2488.298415
444.962800	2486.055102
445.337927	2487.396048
445.712995	2482.997642
446.088002	2490.082983
446.462949	2487.597695
446.837837	2488.605925
447.212664	2485.959320
447.587431	2488.575678
447.962139	2491.093735
448.336786	2487.660709
448.711374	2490.330000
449.085901	2487.716162
449.460369	2489.815802
449.834776	2490.791266
450.209124	2488.986532
450.583412	2489.047026
450.957640	2489.041985
451.331808	2489.969557
451.705917	2490.130874
452.079965	2489.546101
452.453954	2491.416369
452.827883	2489.694815
453.201752	2489.493168
453.575562	2491.713797
453.949311	2490.357726
454.323001	2488.434526
454.696632	2492.588437
455.070202	2490.624908
455.443713	2488.565596
455.817164	2489.936790
456.190556	2492.313694
456.563888	2489.273878
456.937160	2489.891420
457.310373	2491.302943
457.683526	2491.880155
458.056619	2490.680360
458.429653	2492.497696
458.802628	2490.357726
459.175542	2491.469301
459.548398	2489.997284
459.921194	2494.882162
460.293930	2491.373519
460.666607	2491.176914
461.039224	2491.517192
461.411782	2489.168014
461.784280	2491.060967
462.156719	2489.057109
462.529099	2491.408807
462.901419	2491.678509
463.273680	2491.000473
463.645882	2487.910246
464.018024	2490.037613
464.390106	2488.101810
464.762130	2492.671616
465.134094	2490.798827
465.505999	2491.275216
465.877845	2491.645741
466.249631	2492.631287
466.621358	2492.870742
466.993026	2491.111379
467.364634	2495.545074
467.736184	2492.190186
468.107674	2491.315546
468.479105	2491.837305
468.850477	2492.210350
469.221790	2491.829743
469.593043	2492.469970
469.964238	2492.941318
470.335373	2492.467449
470.706449	2493.427789
471.077467	2493.563900
471.448425	2493.084991
471.819324	2493.042141
472.190164	2490.589619
472.560945	2493.747902
472.931667	2492.026348
473.302330	2492.326297
473.672934	2492.606081
474.043479	2493.397542
474.413965	2492.480052
474.784393	2492.112048
475.154761	2491.449136
475.525070	2494.025166
475.895321	2495.461895
476.265513	2492.606081
476.635645	2493.906699
477.005719	2490.072901
477.375734	2493.934425
477.745691	2495.035917
478.115588	2495.930722
478.485427	2493.205978
478.855207	2496.455002
479.224928	2492.676657
479.594591	2495.076246
479.964194	2495.414004
480.333739	2496.475167
480.703226	2493.579024
481.072653	2496.003819
481.442022	2496.472646
481.811333	2492.590958
482.180584	2492.492655
482.549777	2494.809065
482.918912	2492.462408
483.287988	2493.896616
483.657005	2497.168325
484.025964	2494.234374
484.394864	2496.321411
484.763706	2495.948366
485.132489	2495.598006
485.501213	2494.294867
485.869879	2494.408293
486.238487	2497.191010
486.607036	2493.952069
486.975527	2495.751761
487.343959	2495.267810
487.712333	2495.910557
488.080648	2497.324601
488.448905	2495.116576
488.817104	2497.841319
489.185244	2494.176400
489.553326	2497.415342
489.921350	2497.800990
490.289315	2499.386433
490.657222	2499.509941
491.025070	2495.711432
491.392861	2498.756289
491.760593	2496.520537
492.128267	2497.153202
492.495883	2494.569610
492.863440	2496.117245
493.230939	2497.017091
493.598380	2496.802842
493.965763	2497.637152
494.333088	2497.095228
494.700354	2496.918788
495.067563	2496.770074
495.434713	2498.473984
495.801805	2496.336535
496.168839	2495.774446
496.535815	2496.767553
496.902733	2495.204796
497.269593	2496.926350
497.636395	2499.545229
498.003139	2496.475167
498.369825	2499.517503
498.736453	2496.069354
499.103023	2495.726555
499.469535	2497.982472
499.835989	2496.560866
500.202385	2494.640187
500.568723	2493.326966
500.935003	2494.831750
501.301226	2490.652634
501.667390	2495.920640
502.033497	2497.803511
502.399546	2497.259066
502.765537	2495.159425
503.131470	2498.143788
503.497345	2496.704539
503.863163	2498.882318
504.228923	2498.050527
504.594625	2499.451968
504.960269	2498.529437
505.325856	2496.719663
505.691385	2497.337204
506.056856	2495.855105
506.422270	2496.666730
506.787625	2498.539519
507.152924	2496.356699
507.518164	2497.783346
507.883347	2498.715959
508.248472	2494.315032
508.613540	2497.344766
508.978550	2497.765702
509.343503	2497.906854
509.708398	2495.671103
510.073236	2498.796618
510.438016	2497.455671
510.802738	2496.444920
511.167403	2495.973572
511.532010	2496.903665
511.896561	2496.820486
512.261053	2499.315857
512.625488	2496.066833
512.989866	2497.135558
513.354186	2497.992554
513.718449	2498.433655
514.082655	2496.336535
514.446803	2497.727893
514.810894	2499.386433
515.174927	2496.830568
515.538904	2498.715959
515.902822	2496.903665
516.266684	2497.206134
516.630488	2501.460868
516.994235	2501.533964
517.357925	2498.625219
517.721558	2500.462719
518.085133	2497.228819
518.448651	2496.240753
518.812112	2493.427789
519.175516	2498.945332
519.538863	2489.954434
519.902152	2496.477687
520.265385	2501.062617
520.628560	2500.170332
520.991678	2498.721001
521.354739	2497.874087
521.717743	2499.799808
522.080690	2499.174704
522.443580	2500.389622
522.806413	2497.503562
523.169189	2497.468274
523.531908	2499.525065
523.894569	2499.653614
524.257174	2499.996413
524.619722	2497.677482
524.982213	2499.794766
525.344647	2501.750734
525.707025	2500.382061
526.069345	2499.116731
526.431608	2501.375168
526.793815	2502.234685
527.155964	2499.925836
527.518057	2500.956752
527.880093	2499.288130
528.242072	2501.501197
528.603995	2502.476660
528.965860	2499.736793
529.327669	2500.147647
529.689421	2501.171001
530.051117	2501.511279
530.412755	2499.963645
530.774337	2500.530775
531.135862	2501.977586
531.497331	2501.549088
531.858743	2497.616988
532.220098	2502.275014
532.581396	2501.760816
532.942638	2501.198728
533.303824	2500.669407
533.664953	2502.547236
534.026025	2500.515651
534.387040	2499.003305
534.747999	2503.358862
535.108902	2501.438182
535.469748	2499.288130
535.830537	2503.005981
536.191270	2501.443224
536.551947	2502.350631
536.912567	2496.651607
537.273131	2500.314005
537.633638	2496.086998
537.994089	2502.146465
538.354483	2504.815756
538.714821	2501.717967
539.075103	2502.300220
539.435328	2502.169150
539.795497	2505.559326
540.155609	2503.205107
540.515665	2502.953049
540.875665	2505.173678
541.235609	2504.856085
541.595496	2507.626199
541.955328	2504.634274
542.315102	2503.958759
542.674821	2505.665190
543.034483	2506.638133
543.394090	2503.767196
543.753640	2502.514469
544.113134	2506.925478
544.472571	2505.556805
544.831953	2509.740963
545.191278	2509.612413
545.550548	2507.341374
545.909761	2504.662000
546.268918	2507.016219
546.628019	2507.923627
546.987064	2506.978411
547.346053	2508.493277
547.704986	2511.603669
548.063863	2511.575943
548.422684	2510.224914
548.781449	2511.369256
549.140158	2508.273987
549.498811	2510.086282
549.857408	2509.012516
550.215949	2511.538134
550.574434	2509.415808
550.932864	2512.372445
551.291237	2510.393792
551.649555	2508.987310
552.007817	2510.529903
552.366022	2512.939575
552.724173	2513.229441
553.082267	2509.551920
553.440305	2512.637106
553.798288	2510.295490
554.156215	2513.564678
554.514086	2511.197856
554.871902	2509.892197
555.229661	2508.105108
555.587365	2507.011178
555.945014	2512.163237
556.302606	2512.034688
556.660143	2514.192302
557.017625	2512.112826
557.375050	2516.879237
557.732421	2513.708351
558.089735	2514.635923
558.446994	2514.683814
558.804197	2516.561644
559.161345	2516.347395
559.518437	2516.120543
559.875474	2516.123064
560.232455	2516.952333
560.589381	2517.232118
560.946251	2518.207581
561.303065	2515.268588
561.659825	2516.906963
562.016528	2519.392252
562.373177	2517.574916
562.729770	2515.243382
563.086307	2517.622807
563.442789	2518.517612
563.799216	2518.809999
564.155587	2519.127591
564.511904	2518.104237
564.868164	2518.489885
565.224370	2515.334123
565.580520	2518.832684
565.936615	2519.520801
566.292654	2520.518950
566.648638	2520.103055
567.004567	2519.329238
567.360441	2521.166738
567.716260	2518.298322
568.072023	2522.401821
568.427732	2519.707324
568.783385	2522.787469
569.138982	2523.394928
569.494525	2519.455266
569.850013	2520.289577
570.205445	2519.722448
570.560823	2520.990298
570.916145	2520.919722
571.271412	2518.888137
571.626625	2523.215967
571.981782	2522.832839
572.336884	2519.916532
572.691931	2518.351254
573.046923	2519.782941
573.401860	2519.359484
573.756743	2521.653209
574.111570	2522.621111
574.466342	2524.907274
574.821059	2523.596574
575.175722	2522.888292
575.530330	2524.438447
575.884882	2524.940042
576.239380	2524.143539
576.593823	2526.381812
576.948211	2523.425175
577.302544	2523.964578
577.656823	2524.506503
578.011047	2525.303005
578.365216	2524.168745
578.719330	2524.650175
579.073389	2522.726975
579.427394	2524.975330
579.781344	2522.999198
580.135239	2524.841739
580.489080	2526.843077
580.842866	2524.085566
581.196597	2528.050434
581.550273	2524.947603
581.903895	2524.851822
582.257463	2527.248890
582.610975	2523.589013
582.964434	2524.902233
583.317837	2525.653365
583.671186	2527.153108
584.024481	2526.621267
584.377721	2524.592202
584.730906	2526.986750
585.084037	2527.828623
585.437113	2527.498427
585.790135	2524.703108
586.143103	2527.052285
586.496016	2527.127903
586.848874	2527.931967
587.201679	2528.173942
587.554428	2526.558252
587.907124	2528.448685
588.259765	2527.243849
588.612352	2525.887779
588.964884	2526.028931
589.317362	2528.557070
589.669786	2527.316946
590.022155	2524.665299
590.374470	2523.997346
590.726731	2523.934332
591.078937	2520.186234
591.431090	2528.093283
591.783188	2526.041534
592.135232	2531.443130
592.487222	2524.750998
592.839157	2528.559590
593.191038	2525.736544
593.542866	2525.582789
593.894639	2524.120854
594.246358	2526.366688
594.598022	2527.385001
594.949633	2524.935001
595.301190	2525.179497
595.652692	2525.040865
596.004141	2526.154960
596.355535	2526.701925
596.706876	2524.942562
597.058162	2524.889630
597.409395	2525.358458
597.760573	2528.186545
598.111698	2525.786956
598.462768	2527.453057
598.813785	2523.992305
599.164748	2527.258972
599.515657	2524.619928
599.866511	2525.265196
600.217312	2525.088756
600.568060	2523.538601
600.918753	2528.733510
601.269392	2525.360978
601.619978	2524.128416
601.970510	2525.431554
602.320988	2525.736544
602.671412	2525.318128
603.021783	2524.032634
603.372100	2525.532377
603.722363	2525.466842
604.072572	2527.821061
604.422728	2526.618746
604.772830	2525.360978
605.122878	2528.005063
605.472872	2525.292923
605.822813	2526.056657
606.172701	2526.291071
606.522534	2525.108920
606.872314	2529.081350
607.222041	2526.661596
607.571714	2523.982223
607.921333	2524.330062
608.270899	2522.631193
608.620411	2526.006246
608.969870	2527.584127
609.319276	2526.475073
609.668627	2528.123530
610.017926	2529.376257
610.367171	2527.195958
610.716362	2528.574714
611.065500	2527.747964
611.414585	2528.937677
611.763616	2528.715866
612.112594	2525.912984
612.461518	2528.305012
612.810389	2531.125538
613.159207	2529.978675
613.507971	2531.017153
613.856682	2530.119827
614.205340	2529.204858
614.553945	2530.402132
614.902496	2531.821217
615.250994	2530.036648
615.599439	2526.830474
615.947830	2530.621422
616.296169	2529.456916
616.644454	2528.504138
616.992686	2531.317101
617.340864	2531.087729
617.688990	2528.942718
618.037063	2531.380116
618.385082	2532.552184
618.733048	2532.821886
619.080961	2533.298275
619.428821	2530.568490
619.776628	2535.413039
620.124382	2535.264325
620.472083	2534.127545
620.819731	2537.779861
621.167326	2534.606454
621.514868	2535.062679
621.862357	2534.664428
622.209793	2535.191228
622.557176	2537.195087
622.904506	2532.746268
623.251783	2532.935312
623.599007	2533.910775
623.946179	2537.691640
624.293297	2533.729293
624.640363	2536.890097
624.987376	2534.210724
625.334336	2529.101514
625.681243	2532.224509
626.028097	2530.298788
626.374899	2537.074099
626.721647	2536.388502
627.068343	2535.823893
627.414987	2533.986392
627.761577	2536.950591
628.108115	2539.703061
628.454600	2540.607948
628.801032	2539.146013
629.147412	2537.447144
629.493739	2540.030736
629.840014	2540.015612
630.186236	2541.815304
630.532405	2541.807743
630.878521	2542.755479
631.224585	2543.430994
631.570597	2542.742877
631.916556	2546.662374
632.262462	2546.145655
632.608316	2545.613814
632.954117	2549.311500
633.299866	2551.068342
633.645562	2551.796789
633.991206	2548.356201
634.336797	2551.519525
634.682336	2550.002138
635.027823	2549.087169
635.373257	2549.097251
635.718639	2551.980791
636.063968	2558.579661
636.409245	2550.463404
636.754470	2551.290153
637.099642	2554.647561
637.444762	2552.873075
637.789829	2552.857952
638.134845	2555.277706
638.479808	2556.018755
638.824719	2556.653941
639.169577	2556.220401
639.514383	2560.492779
639.859137	2559.098900
640.203839	2559.774415
640.548489	2561.609395
640.893086	2561.523695
641.237632	2561.634601
641.582125	2565.813717
641.926566	2566.706001
642.270955	2565.080229
642.615292	2564.213151
642.959576	2565.319684
643.303809	2566.065775
643.647990	2574.517269
643.992118	2573.025088
644.336195	2576.735377
