Dividing Wavelength (nm)	Counts (n)	Blue Motor Position (mm): 3.000000	Red Motor Position (mm): 0.000000	
326.493990	2065.824517
326.888308	2065.824517
327.282561	2065.824517
327.676750	2044.074459
328.070874	2042.156300
328.464933	2047.867927
328.858929	2057.045348
329.252859	2067.719991
329.646726	2080.544686
330.040528	2098.513879
330.434265	2113.443256
330.827938	2134.689199
331.221547	2156.323311
331.615091	2175.701506
332.008571	2193.917716
332.401986	2215.882023
332.795338	2237.508573
333.188625	2255.147570
333.581847	2275.637340
333.975006	2291.814403
334.368100	2309.077834
334.761129	2325.645586
335.154095	2344.348267
335.546996	2356.414269
335.939833	2370.080837
336.332606	2386.993908
336.725315	2397.209806
337.117960	2405.121897
337.510540	2415.363001
337.903056	2425.339445
338.295508	2431.600558
338.687896	2440.271342
339.080220	2445.186467
339.472480	2449.993208
339.864676	2453.496809
340.256807	2458.439661
340.648875	2457.658282
341.040879	2458.905967
341.432818	2461.744137
341.824694	2463.092646
342.216506	2458.180041
342.608253	2459.052161
342.999937	2458.691718
343.391557	2460.945114
343.783113	2458.560648
344.174605	2456.332458
344.566033	2454.293312
344.957397	2453.814402
345.348697	2451.586212
345.739934	2451.669391
346.131106	2449.887343
346.522215	2445.383072
346.913260	2446.691252
347.304241	2441.929882
347.695159	2442.252516
348.086012	2443.217897
348.476802	2437.723039
348.867528	2434.766402
349.258191	2432.565939
349.648789	2433.198603
350.039324	2429.299271
350.429796	2429.931936
350.820203	2432.991916
351.210548	2431.625763
351.600828	2430.975455
351.991045	2431.920671
352.381198	2429.127872
352.771288	2430.647780
353.161314	2429.465629
353.551276	2430.100814
353.941175	2429.354724
354.331010	2429.999991
354.720782	2427.885227
355.110490	2430.504107
355.500135	2429.117789
355.889717	2427.978489
356.279235	2428.429672
356.668689	2429.705084
357.058080	2433.085177
357.447408	2429.740372
357.836672	2434.776485
358.225873	2432.601227
358.615010	2433.795980
359.004084	2434.859664
359.393095	2434.045517
359.782043	2433.367482
360.170927	2436.581218
360.559748	2433.609457
360.948505	2435.157092
361.337199	2437.367638
361.725830	2437.160950
362.114398	2438.557350
362.502903	2440.596497
362.891344	2435.411670
363.279722	2436.881166
363.668037	2441.017433
364.056289	2438.748914
364.444478	2438.630447
364.832603	2439.941147
365.220665	2440.314192
365.608665	2441.360232
365.996601	2440.432659
366.384474	2441.990376
366.772284	2440.951898
367.160031	2440.203287
367.547715	2441.332505
367.935336	2440.974583
368.322893	2439.318564
368.710388	2438.287648
369.097820	2440.399892
369.485189	2438.496856
369.872495	2442.096240
370.259738	2444.831066
370.646918	2441.982814
371.034035	2444.957095
371.421090	2444.949533
371.808081	2444.069852
372.195010	2447.270984
372.581875	2446.789554
372.968678	2445.216714
373.355418	2444.977259
373.742096	2446.892898
374.128710	2447.739812
374.515262	2446.918104
374.901751	2446.671087
375.288177	2448.180913
375.674540	2445.405758
376.060841	2448.006993
376.447079	2448.450614
376.833254	2447.941458
377.219367	2447.752415
377.605417	2448.886674
377.991404	2448.498505
378.377329	2448.506067
378.763191	2449.088320
379.148991	2450.940944
379.534727	2451.929011
379.920402	2449.337858
380.306013	2451.371963
380.691563	2449.713423
381.077049	2448.679987
381.462474	2449.473969
381.847835	2452.370112
382.233134	2452.559155
382.618371	2451.747529
383.003545	2451.457663
383.388657	2450.555296
383.773706	2452.150821
384.158693	2452.007148
384.543618	2452.692745
384.928480	2449.841973
385.313280	2451.124947
385.698017	2452.029834
386.082692	2452.881789
386.467305	2454.585699
386.851856	2454.222736
387.236344	2455.944290
387.620770	2450.492282
388.005133	2451.301387
388.389435	2450.915739
388.773674	2448.788372
389.157851	2456.476131
389.541965	2453.390945
389.926018	2453.441357
390.310008	2455.399845
390.693936	2454.252982
391.077802	2454.678960
391.461606	2457.290278
391.845348	2454.888168
392.229027	2455.788014
392.612645	2455.964454
392.996200	2457.169290
393.379694	2455.319187
393.763125	2455.389763
394.146494	2458.225412
394.529801	2458.389249
394.913047	2456.743312
395.296230	2460.052830
395.679351	2456.269444
396.062410	2457.663323
396.445408	2457.549897
396.828343	2456.839094
397.211217	2458.106945
397.594028	2459.253807
397.976778	2459.710032
398.359466	2459.473097
398.742092	2459.647017
399.124656	2460.395628
399.507158	2459.132819
399.889598	2460.929991
400.271977	2462.457460
400.654294	2458.298508
401.036549	2457.355813
401.418742	2462.036524
401.800874	2459.962089
402.182944	2462.452419
402.564952	2456.652572
402.946898	2460.451081
403.328783	2460.100721
403.710606	2460.766153
404.092367	2461.970989
404.474067	2459.848663
404.855705	2461.739096
405.237282	2461.862604
405.618797	2461.600464
406.000250	2464.554580
406.381642	2461.839919
406.762972	2460.491410
407.144240	2459.710032
407.525447	2460.057871
407.906593	2459.344548
408.287677	2459.788169
408.668700	2464.393263
409.049661	2464.239508
409.430560	2466.147585
409.811399	2464.350414
410.192176	2465.492235
410.572891	2465.073819
410.953545	2464.388222
411.334138	2465.003243
411.714669	2463.695064
412.095139	2467.034828
412.475547	2465.716566
412.855894	2465.018367
413.236180	2462.563325
413.616405	2463.180866
413.996568	2466.684468
414.376670	2467.112966
414.756711	2469.099181
415.136691	2466.596248
415.516609	2462.961576
415.896466	2466.114818
416.276262	2465.469550
416.655997	2464.794035
417.035670	2467.004581
417.415283	2467.604478
417.794834	2465.893007
418.174324	2464.662965
418.553753	2469.139510
418.933121	2466.949128
419.312428	2468.937864
419.691674	2466.802935
420.070859	2468.590024
420.449983	2467.891824
420.829045	2466.523151
421.208047	2467.823769
421.586988	2466.097173
421.965867	2469.515076
422.344686	2467.969962
422.723444	2470.188070
423.102141	2469.026084
423.480777	2468.897534
423.859352	2469.164716
424.237866	2469.605817
424.616319	2469.467185
424.994712	2469.557926
425.373044	2469.709160
425.751314	2468.453913
426.129524	2465.260342
426.507673	2469.638584
426.885762	2465.283027
427.263789	2472.088585
427.641756	2470.745117
428.019662	2468.211937
428.397508	2470.697226
428.775292	2468.877370
429.153016	2473.288379
429.530679	2469.898203
429.908282	2471.839048
430.285824	2471.428194
430.663305	2468.557257
431.040726	2471.846609
431.418086	2473.048925
431.795385	2470.215796
432.172624	2472.131435
432.549802	2472.454068
432.926920	2472.060858
433.303977	2469.298306
433.680974	2470.369551
434.057910	2472.504480
434.434786	2472.058338
434.811601	2472.766620
435.188355	2472.665797
435.565050	2472.668318
435.941683	2470.782926
436.318257	2469.666310
436.694770	2473.946250
437.071222	2470.611527
437.447614	2476.164358
437.823946	2473.026239
438.200218	2475.067907
438.576429	2471.133286
438.952580	2475.962712
439.328670	2473.268215
439.704700	2475.158648
440.080670	2473.724439
440.456580	2473.237968
440.832429	2478.029585
441.208218	2473.921044
441.583947	2474.979687
441.959616	2473.989100
442.335224	2476.532362
442.710773	2477.593525
443.086261	2475.617392
443.461689	2474.631847
443.837057	2475.655201
444.212365	2475.274594
444.587612	2471.244192
444.962800	2469.961218
445.337927	2473.719398
445.712995	2471.047587
446.088002	2477.588484
446.462949	2479.990593
446.837837	2476.522280
447.212664	2477.865747
447.587431	2474.621765
447.962139	2475.330047
448.336786	2477.273412
448.711374	2474.228555
449.085901	2477.165027
449.460369	2477.439770
449.834776	2477.442290
450.209124	2476.449183
450.583412	2474.515900
450.957640	2476.262660
451.331808	2475.675366
451.705917	2476.355922
452.079965	2475.914821
452.453954	2476.340798
452.827883	2474.641929
453.201752	2477.659060
453.575562	2477.855665
453.949311	2477.021354
454.323001	2477.172588
454.696632	2478.236272
455.070202	2477.268370
455.443713	2479.022692
455.817164	2477.081848
456.190556	2478.561426
456.563888	2478.581591
456.937160	2477.333905
457.310373	2476.441621
457.683526	2478.916828
458.056619	2476.091261
458.429653	2475.609831
458.802628	2476.986066
459.175542	2475.569502
459.548398	2476.182002
459.921194	2481.513022
460.293930	2477.303658
460.666607	2477.752321
461.039224	2480.953454
461.411782	2478.387507
461.784280	2477.885912
462.156719	2479.758700
462.529099	2482.004534
462.901419	2478.122846
463.273680	2478.488330
463.645882	2474.641929
464.018024	2475.720736
464.390106	2474.185705
464.762130	2480.824904
465.134094	2475.130921
465.505999	2480.497229
465.877845	2479.972949
466.249631	2479.791468
466.621358	2478.669811
466.993026	2480.721561
467.364634	2484.837663
467.736184	2480.109061
468.107674	2481.059318
468.479105	2482.697693
468.850477	2479.907414
469.221790	2480.882878
469.593043	2478.765593
469.964238	2479.241982
470.335373	2479.073103
470.706449	2481.187867
471.077467	2481.770121
471.448425	2478.291725
471.819324	2477.744759
472.190164	2480.461941
472.560945	2479.115953
472.931667	2480.280460
473.302330	2482.480923
473.672934	2481.911273
474.043479	2483.095944
474.413965	2481.041674
474.784393	2482.175934
475.154761	2482.710296
475.525070	2482.400265
475.895321	2480.144349
476.265513	2480.585450
476.635645	2480.497229
477.005719	2481.306335
477.375734	2482.344812
477.745691	2481.845738
478.115588	2480.585450
478.485427	2481.513022
478.855207	2484.015955
479.224928	2484.101654
479.594591	2480.857672
479.964194	2482.183495
480.333739	2481.056798
480.703226	2481.802888
481.072653	2480.136787
481.442022	2480.688793
481.811333	2479.700727
482.180584	2478.294245
482.549777	2480.986221
482.918912	2479.252064
483.287988	2480.784575
483.657005	2484.474700
484.025964	2484.446973
484.394864	2480.890439
484.763706	2481.787765
485.132489	2481.762559
485.501213	2482.808598
485.869879	2483.940338
486.238487	2483.126191
486.607036	2482.173413
486.975527	2483.274905
487.343959	2482.458238
487.712333	2484.189875
488.080648	2483.668115
488.448905	2481.301293
488.817104	2482.891778
489.185244	2484.089052
489.553326	2483.075780
489.921350	2481.104688
490.289315	2481.046715
490.657222	2482.879175
491.025070	2483.106027
491.392861	2483.534525
491.760593	2483.907570
492.128267	2481.974288
492.495883	2483.050574
492.863440	2483.156438
493.230939	2482.790954
493.598380	2485.850935
493.965763	2483.801706
494.333088	2484.474700
494.700354	2482.390183
495.067563	2482.939668
495.434713	2484.550317
495.801805	2481.865903
496.168839	2484.946048
496.535815	2483.814309
496.902733	2483.043012
497.269593	2483.179123
497.636395	2482.732981
498.003139	2484.157107
498.369825	2483.516881
498.736453	2483.050574
499.103023	2484.688949
499.469535	2485.079638
499.835989	2485.651809
500.202385	2482.559061
500.568723	2481.845738
500.935003	2482.672487
501.301226	2478.921869
501.667390	2482.740543
502.033497	2483.993270
502.399546	2484.552838
502.765537	2483.789103
503.131470	2484.930924
503.497345	2484.709113
503.863163	2484.381438
504.228923	2484.099134
504.594625	2483.257261
504.960269	2483.814309
505.325856	2485.235914
505.691385	2484.605770
506.056856	2485.818167
506.422270	2485.475369
506.787625	2484.164669
507.152924	2485.044350
507.518164	2485.475369
507.883347	2485.213229
508.248472	2487.086017
508.613540	2483.244658
508.978550	2486.493682
509.343503	2484.262971
509.708398	2486.496203
510.073236	2484.099134
510.438016	2483.479072
510.802738	2484.436891
511.167403	2485.828250
511.532010	2484.693990
511.896561	2488.109372
512.261053	2482.964874
512.625488	2488.767242
512.989866	2485.830770
513.354186	2485.432519
513.718449	2481.444966
514.082655	2485.361943
514.446803	2484.474700
514.810894	2486.092910
515.174927	2486.118116
515.538904	2481.961685
515.902822	2486.004690
516.266684	2484.164669
516.630488	2486.102992
516.994235	2484.487303
517.357925	2485.550986
517.721558	2487.789258
518.085133	2487.517036
518.448651	2483.879844
518.812112	2481.293732
519.175516	2485.092241
519.538863	2481.896150
519.902152	2484.711634
520.265385	2486.473517
520.628560	2484.890595
520.991678	2485.581233
521.354739	2486.627273
521.717743	2484.348671
522.080690	2485.298928
522.443580	2489.140288
522.806413	2485.263640
523.169189	2485.903867
523.531908	2486.833960
523.894569	2486.375215
524.257174	2487.615339
524.619722	2486.909577
524.982213	2486.423106
525.344647	2487.360760
525.707025	2483.693321
526.069345	2486.695328
526.431608	2485.417396
526.793815	2486.778507
527.155964	2484.633496
527.518057	2487.665750
527.880093	2487.753970
528.242072	2483.206850
528.603995	2484.653661
528.965860	2488.885709
529.327669	2485.185503
529.689421	2485.437560
530.051117	2489.231028
530.412755	2485.064515
530.774337	2487.585092
531.135862	2490.360247
531.497331	2485.845894
531.858743	2486.839001
532.220098	2485.457725
532.581396	2487.406131
532.942638	2489.994763
533.303824	2484.837663
533.664953	2487.688435
534.026025	2486.962509
534.387040	2488.326141
534.747999	2486.483600
535.108902	2484.699031
535.469748	2485.228352
535.830537	2489.021821
536.191270	2484.250368
536.551947	2484.827581
536.912567	2482.402786
537.273131	2483.451346
537.633638	2482.443115
537.994089	2488.311018
538.354483	2485.122488
538.714821	2487.506954
539.075103	2485.293887
539.435328	2485.989567
539.795497	2489.125164
540.155609	2485.624083
540.515665	2487.751450
540.875665	2484.920842
541.235609	2489.493168
541.595496	2487.229690
541.955328	2484.716675
542.315102	2488.404279
542.674821	2487.350678
543.034483	2488.283292
543.394090	2484.555358
543.753640	2484.575523
544.113134	2487.179279
544.472571	2486.864207
544.831953	2485.808085
545.191278	2485.997128
545.550548	2486.886892
545.909761	2486.246665
546.268918	2485.810606
546.628019	2485.669453
546.987064	2487.448981
547.346053	2486.649958
547.704986	2487.673312
548.063863	2486.586943
548.422684	2487.393528
548.781449	2486.397900
549.140158	2487.438898
549.498811	2489.460401
549.857408	2487.580051
550.215949	2486.947386
550.574434	2486.407982
550.932864	2488.467294
551.291237	2487.433857
551.649555	2488.547952
552.007817	2486.539052
552.366022	2490.042654
552.724173	2488.386635
553.082267	2487.726244
553.440305	2486.869248
553.798288	2488.550473
554.156215	2485.969402
554.514086	2486.128198
554.871902	2484.444453
555.229661	2485.931593
555.587365	2481.248361
555.945014	2488.616008
556.302606	2488.084166
556.660143	2485.016624
557.017625	2488.137098
557.375050	2487.794300
557.732421	2486.803713
558.089735	2486.793631
558.446994	2487.050729
558.804197	2485.092241
559.161345	2489.566265
559.518437	2487.217088
559.875474	2485.452684
560.232455	2489.964516
560.589381	2487.023003
560.946251	2485.235914
561.303065	2489.097438
561.659825	2488.542911
562.016528	2487.912767
562.373177	2486.730616
562.729770	2486.687766
563.086307	2486.193733
563.442789	2486.176089
563.799216	2488.099289
564.155587	2486.166007
564.511904	2485.971923
564.868164	2488.076604
565.224370	2488.573158
565.580520	2486.844042
565.936615	2489.500730
566.292654	2489.455360
566.648638	2487.726244
567.004567	2487.572489
567.360441	2486.644917
567.716260	2488.230359
568.072023	2486.997797
568.427732	2486.526449
568.783385	2486.811275
569.138982	2484.688949
569.494525	2490.614825
569.850013	2487.955617
570.205445	2487.302787
570.560823	2487.814464
570.916145	2488.605925
571.271412	2485.687097
571.626625	2490.587099
571.981782	2487.373363
572.336884	2484.641058
572.691931	2483.779021
573.046923	2487.585092
573.401860	2482.354895
573.756743	2487.383446
574.111570	2487.879999
574.466342	2488.621049
574.821059	2487.716162
575.175722	2486.768425
575.530330	2489.382263
575.884882	2489.573827
576.239380	2485.568630
576.593823	2489.697335
576.948211	2484.230204
577.302544	2487.814464
577.656823	2488.056440
578.011047	2489.657006
578.365216	2485.588795
578.719330	2488.610967
579.073389	2489.112561
579.427394	2487.738847
579.781344	2488.729434
580.135239	2491.814620
580.489080	2487.242293
580.842866	2487.774135
581.196597	2490.700525
581.550273	2488.817654
581.903895	2488.694146
582.257463	2485.934114
582.610975	2486.629793
582.964434	2485.558548
583.317837	2487.143991
583.671186	2489.717500
584.024481	2487.380925
584.377721	2489.379743
584.730906	2485.238435
585.084037	2487.378404
585.437113	2486.425626
585.790135	2489.485607
586.143103	2486.642396
586.496016	2490.294712
586.848874	2488.434526
587.201679	2485.871099
587.554428	2486.309680
587.907124	2486.806233
588.259765	2487.822026
588.612352	2485.558548
588.964884	2489.720020
589.317362	2485.840853
589.669786	2489.142808
590.022155	2485.866058
590.374470	2484.008393
590.726731	2486.065184
591.078937	2483.484113
591.431090	2489.873776
591.783188	2486.682725
592.135232	2487.761532
592.487222	2487.670791
592.839157	2488.124495
593.191038	2486.670122
593.542866	2487.580051
593.894639	2487.275061
594.246358	2487.277581
594.598022	2486.798672
594.949633	2491.020638
595.301190	2486.375215
595.652692	2489.795638
596.004141	2485.157776
596.355535	2486.443270
596.706876	2488.232880
597.058162	2486.145842
597.409395	2486.045019
597.760573	2489.404948
598.111698	2485.125009
598.462768	2487.403610
598.813785	2486.995277
599.164748	2489.919146
599.515657	2486.375215
599.866511	2484.721716
600.217312	2486.377735
600.568060	2489.039465
600.918753	2490.075422
601.269392	2490.118272
601.619978	2489.561224
601.970510	2487.912767
602.320988	2489.503251
602.671412	2486.866727
603.021783	2487.980822
603.372100	2489.021821
603.722363	2488.132057
604.072572	2490.040134
604.422728	2484.855307
604.772830	2488.006028
605.122878	2486.392859
605.472872	2485.004021
605.822813	2490.025010
606.172701	2486.405462
606.522534	2487.396048
606.872314	2488.928559
607.222041	2485.848414
607.571714	2484.764566
607.921333	2484.842704
608.270899	2488.230359
608.620411	2479.718371
608.969870	2488.726913
609.319276	2487.993425
609.668627	2487.330513
610.017926	2487.002838
610.367171	2488.154742
610.716362	2487.852273
611.065500	2489.737664
611.414585	2487.784217
611.763616	2488.764722
612.112594	2489.319249
612.461518	2488.671460
612.810389	2487.171717
613.159207	2490.181286
613.507971	2487.050729
613.856682	2487.575009
614.205340	2488.643734
614.553945	2487.514516
614.902496	2487.953096
615.250994	2485.283805
615.599439	2489.137767
615.947830	2488.920998
616.296169	2485.566110
616.644454	2486.586943
616.992686	2488.752119
617.340864	2488.137098
617.688990	2488.429485
618.037063	2488.585761
618.385082	2487.489310
618.733048	2487.580051
619.080961	2487.358240
619.428821	2486.619711
619.776628	2485.198105
620.124382	2487.486789
620.472083	2487.769094
620.819731	2488.747078
621.167326	2487.287664
621.514868	2489.609115
621.862357	2484.744402
622.209793	2487.431337
622.557176	2488.661378
622.904506	2487.852273
623.251783	2488.358909
623.599007	2488.973930
623.946179	2488.227839
624.293297	2488.787407
624.640363	2488.920997
624.987376	2485.732468
625.334336	2484.015955
625.681243	2486.886892
626.028097	2484.515029
626.374899	2487.822026
626.721647	2486.102993
627.068343	2487.368322
627.414987	2490.720689
627.761577	2487.025524
628.108115	2488.575678
628.454600	2486.907057
628.801032	2486.864207
629.147412	2488.812613
629.493739	2487.955617
629.840014	2487.766573
630.186236	2485.268682
630.532405	2488.159783
630.878521	2488.782366
631.224585	2488.817654
631.570597	2486.833960
631.916556	2487.491830
632.262462	2486.768425
632.608316	2487.476707
632.954117	2488.235401
633.299866	2488.608446
633.645562	2486.465956
633.991206	2489.346975
634.336797	2488.255565
634.682336	2486.775987
635.027823	2486.125678
635.373257	2487.562407
635.718639	2487.075935
636.063968	2487.433857
636.409245	2486.962509
636.754470	2486.266830
637.099642	2487.638024
637.444762	2490.214053
637.789829	2486.927221
638.134845	2487.610297
638.479808	2486.042499
638.824719	2484.820019
639.169577	2488.560555
639.514383	2486.231542
639.859137	2486.758343
640.203839	2485.558548
640.548489	2484.575523
640.893086	2485.067035
641.237632	2487.756491
641.582125	2485.306490
641.926566	2486.826398
642.270955	2484.691469
642.615292	2484.951089
642.959576	2487.363281
643.303809	2482.024699
643.647990	2487.035606
643.992118	2486.690287
644.336195	2487.665750
