Dividing Wavelength (nm)	Counts (n)	Blue Motor Position (mm): 4.000000	Red Motor Position (mm): 0.000000	
326.493990	2068.329970
326.888308	2068.329970
327.282561	2068.329970
327.676750	2040.991793
328.070874	2042.932637
328.464933	2050.940510
328.858929	2058.608105
329.252859	2068.957594
329.646726	2080.471589
330.040528	2098.080340
330.434265	2115.381580
330.827938	2138.296145
331.221547	2156.930770
331.615091	2175.714109
332.008571	2199.004240
332.401986	2215.355222
332.795338	2238.297513
333.188625	2257.456419
333.581847	2273.318409
333.975006	2293.735082
334.368100	2310.257464
334.761129	2327.576348
335.154095	2345.285922
335.546996	2358.014835
335.939833	2370.965559
336.332606	2385.842004
336.725315	2396.609909
337.117960	2407.478637
337.510540	2419.080852
337.903056	2426.713159
338.295508	2431.323294
338.687896	2441.395520
339.080220	2445.115891
339.472480	2451.923969
339.864676	2453.605194
340.256807	2459.362192
340.648875	2461.018211
341.040879	2458.391770
341.432818	2460.625001
341.824694	2462.467543
342.216506	2462.170115
342.608253	2460.032665
342.999937	2461.746658
343.391557	2460.269600
343.783113	2458.429578
344.174605	2456.632407
344.566033	2453.186778
344.957397	2451.417333
345.348697	2453.055708
345.739934	2453.867334
346.131106	2450.325924
346.522215	2449.090841
346.913260	2446.345933
347.304241	2445.441046
347.695159	2443.207814
348.086012	2443.152362
348.476802	2438.002823
348.867528	2434.831937
349.258191	2433.385126
349.648789	2434.325301
350.039324	2428.205341
350.429796	2432.868408
350.820203	2431.986206
351.210548	2434.405960
351.600828	2431.005702
351.991045	2433.853953
352.381198	2432.785229
352.771288	2429.455547
353.161314	2431.802204
353.551276	2430.385640
353.941175	2432.414704
354.331010	2430.027718
354.720782	2431.829930
355.110490	2432.172729
355.500135	2428.051585
355.889717	2430.153747
356.279235	2432.371854
356.668689	2434.753799
357.058080	2430.665424
357.447408	2433.624581
357.836672	2432.560898
358.225873	2433.881680
358.615010	2432.686926
359.004084	2433.130548
359.393095	2432.402101
359.782043	2437.685230
360.170927	2437.390323
360.559748	2436.245981
360.948505	2438.862340
361.337199	2436.442586
361.725830	2435.678851
362.114398	2436.677000
362.502903	2437.967535
362.891344	2439.182453
363.279722	2440.228493
363.668037	2440.578853
364.056289	2439.731939
364.444478	2443.187650
364.832603	2439.618513
365.220665	2440.047011
365.608665	2440.379727
365.996601	2443.389296
366.384474	2441.662701
366.772284	2443.714450
367.160031	2440.659511
367.547715	2444.596652
367.935336	2442.779316
368.322893	2441.660180
368.710388	2438.789243
369.097820	2441.186312
369.485189	2437.889397
369.872495	2444.284101
370.259738	2444.150510
370.646918	2445.924996
371.034035	2446.066149
371.421090	2445.458690
371.808081	2446.061108
372.195010	2446.053546
372.581875	2447.182764
372.968678	2446.905501
373.355418	2446.797116
373.742096	2447.911211
374.128710	2446.734102
374.515262	2447.061777
374.901751	2446.716458
375.288177	2447.926334
375.674540	2447.215532
376.060841	2450.338527
376.447079	2448.087651
376.833254	2447.825511
377.219367	2448.070007
377.605417	2451.266099
377.991404	2448.301900
378.377329	2448.357353
378.763191	2448.317024
379.148991	2449.138732
379.534727	2451.802982
379.920402	2450.804833
380.306013	2452.778445
380.691563	2451.944134
381.077049	2451.543362
381.462474	2452.392797
381.847835	2451.404731
382.233134	2450.406582
382.618371	2451.256017
383.003545	2453.683332
383.388657	2450.358691
383.773706	2451.939093
384.158693	2454.661316
384.543618	2455.256172
384.928480	2454.668878
385.313280	2453.549742
385.698017	2454.366408
386.082692	2454.721810
386.467305	2451.329113
386.851856	2453.751388
387.236344	2452.435647
387.620770	2452.612087
388.005133	2452.851542
388.389435	2453.169134
388.773674	2451.336675
389.157851	2454.487396
389.541965	2455.150308
389.926018	2456.541666
390.310008	2455.460339
390.693936	2458.578293
391.077802	2454.671398
391.461606	2457.955710
391.845348	2456.844136
392.229027	2458.482511
392.612645	2458.434620
392.996200	2456.864300
393.379694	2456.869341
393.763125	2458.220371
394.146494	2460.635083
394.529801	2458.704321
394.913047	2460.882100
395.296230	2458.616101
395.679351	2459.702470
396.062410	2460.872018
396.445408	2459.132819
396.828343	2461.572738
397.211217	2458.711883
397.594028	2458.769856
397.976778	2457.406224
398.359466	2460.413272
398.742092	2460.244394
399.124656	2459.331945
399.507158	2459.478138
399.889598	2459.896554
400.271977	2461.086267
400.654294	2461.943263
401.036549	2461.040896
401.418742	2457.164249
401.800874	2459.846143
402.182944	2462.671709
402.564952	2460.703139
402.946898	2465.351083
403.328783	2460.698098
403.710606	2461.718931
404.092367	2462.896041
404.474067	2462.492748
404.855705	2464.229426
405.237282	2459.095011
405.618797	2464.552060
406.000250	2463.742955
406.381642	2464.335290
406.762972	2461.744137
407.144240	2458.290947
407.525447	2463.213633
407.906593	2457.696091
408.287677	2466.581124
408.668700	2463.495938
409.049661	2466.858388
409.430560	2464.610033
409.811399	2467.745631
410.192176	2465.759416
410.572891	2464.305043
410.953545	2464.443675
411.334138	2464.650362
411.714669	2466.008953
412.095139	2465.358644
412.475547	2464.453757
412.855894	2467.191104
413.236180	2466.283696
413.616405	2469.933492
413.996568	2465.303192
414.376670	2470.742597
414.756711	2466.936526
415.136691	2469.857874
415.516609	2466.795373
415.896466	2467.455764
416.276262	2466.525672
416.655997	2468.469036
417.035670	2468.572380
417.415283	2467.924592
417.794834	2469.394088
418.174324	2466.621453
418.553753	2467.775878
418.933121	2470.661938
419.312428	2467.236474
419.691674	2469.439458
420.070859	2467.760754
420.449983	2467.768316
420.829045	2467.347380
421.208047	2468.282514
421.586988	2469.643625
421.965867	2468.148923
422.344686	2469.477267
422.723444	2468.877370
423.102141	2469.562967
423.480777	2470.702268
423.859352	2468.491722
424.237866	2468.622792
424.616319	2470.906434
424.994712	2472.751497
425.373044	2471.095478
425.751314	2470.077164
426.129524	2466.301340
426.507673	2471.753348
426.885762	2465.943418
427.263789	2467.349900
427.641756	2469.610858
428.019662	2470.467854
428.397508	2472.184367
428.775292	2470.435086
429.153016	2472.030612
429.530679	2471.342494
429.908282	2470.588842
430.285824	2473.230406
430.663305	2472.887608
431.040726	2472.181846
431.418086	2474.548668
431.795385	2472.610344
432.172624	2472.123873
432.549802	2471.302165
432.926920	2472.663276
433.303977	2473.306023
433.680974	2470.702267
434.057910	2476.272742
434.434786	2473.237968
434.811601	2474.135293
435.188355	2471.738225
435.565050	2475.171250
435.941683	2475.060345
436.318257	2472.386013
436.694770	2472.116311
437.071222	2474.709985
437.447614	2474.979687
437.823946	2475.388020
438.200218	2476.423977
438.576429	2475.403143
438.952580	2475.067907
439.328670	2476.461786
439.704700	2474.538586
440.080670	2477.656539
440.456580	2473.711836
440.832429	2475.488843
441.208218	2472.754017
441.583947	2475.955150
441.959616	2476.048411
442.335224	2475.307362
442.710773	2474.412557
443.086261	2475.962712
443.461689	2477.588484
443.837057	2474.977166
444.212365	2477.502784
444.587612	2475.561940
444.962800	2473.653863
445.337927	2473.227886
445.712995	2468.958028
446.088002	2474.238637
446.462949	2475.216621
446.837837	2476.577732
447.212664	2476.519759
447.587431	2476.126549
447.962139	2475.894656
448.336786	2476.534882
448.711374	2474.775520
449.085901	2473.631178
449.460369	2476.655870
449.834776	2479.244503
450.209124	2476.663432
450.583412	2476.454224
450.957640	2475.236785
451.331808	2476.683597
451.705917	2477.064204
452.079965	2476.854996
452.453954	2475.521611
452.827883	2478.906745
453.201752	2474.921713
453.575562	2476.572691
453.949311	2479.073103
454.323001	2475.050263
454.696632	2477.205356
455.070202	2478.137969
455.443713	2479.801550
455.817164	2479.700727
456.190556	2479.821715
456.563888	2478.579070
456.937160	2479.310038
457.310373	2480.272898
457.683526	2479.536890
458.056619	2479.463793
458.429653	2477.880871
458.802628	2478.594194
459.175542	2480.555203
459.548398	2481.079483
459.921194	2480.842548
460.293930	2481.528145
460.666607	2479.630151
461.039224	2478.183340
461.411782	2481.853300
461.784280	2478.203504
462.156719	2479.688124
462.529099	2479.085706
462.901419	2482.518732
463.273680	2475.335088
463.645882	2476.454224
464.018024	2476.300469
464.390106	2477.343988
464.762130	2478.697538
465.134094	2478.899184
465.505999	2481.202991
465.877845	2480.030923
466.249631	2478.022023
466.621358	2480.638382
466.993026	2481.533187
467.364634	2484.419247
467.736184	2480.124184
468.107674	2480.161993
468.479105	2482.385142
468.850477	2480.996304
469.221790	2480.487147
469.593043	2477.805253
469.964238	2480.686273
470.335373	2482.695172
470.706449	2481.891108
471.077467	2481.250882
471.448425	2482.821201
471.819324	2479.128556
472.190164	2483.395893
472.560945	2479.221817
472.931667	2482.067549
473.302330	2480.552682
473.672934	2480.698876
474.043479	2479.766262
474.413965	2479.451190
474.784393	2480.948413
475.154761	2483.731130
475.525070	2482.465800
475.895321	2483.847076
476.265513	2480.524956
476.635645	2483.597539
477.005719	2483.474031
477.375734	2482.453197
477.745691	2484.141984
478.115588	2483.017806
478.485427	2484.578043
478.855207	2482.816160
479.224928	2483.267343
479.594591	2482.642240
479.964194	2484.643578
480.333739	2481.908752
480.703226	2483.484113
481.072653	2485.157776
481.442022	2481.941520
481.811333	2481.835656
482.180584	2481.006386
482.549777	2482.528814
482.918912	2478.929431
483.287988	2482.175934
483.657005	2484.013434
484.025964	2484.159628
484.394864	2482.662405
484.763706	2482.085193
485.132489	2484.194916
485.501213	2481.878506
485.869879	2484.709113
486.238487	2481.364308
486.607036	2481.888588
486.975527	2483.882364
487.343959	2481.329020
487.712333	2485.087200
488.080648	2481.223156
488.448905	2483.219453
488.817104	2483.232055
489.185244	2482.667446
489.553326	2482.352374
489.921350	2481.684421
490.289315	2484.066366
490.657222	2483.743733
491.025070	2484.525111
491.392861	2486.861686
491.760593	2483.209370
492.128267	2484.031078
492.495883	2484.323465
492.863440	2481.944041
493.230939	2484.567961
493.598380	2484.005872
493.965763	2484.983856
494.333088	2483.980667
494.700354	2487.612818
495.067563	2487.239773
495.434713	2484.527632
495.801805	2482.221304
496.168839	2483.068218
496.535815	2486.544093
496.902733	2484.860348
497.269593	2486.102993
497.636395	2485.167858
498.003139	2484.089052
498.369825	2484.020996
498.736453	2484.134422
499.103023	2485.674494
499.469535	2484.802375
499.835989	2485.238435
500.202385	2482.249030
500.568723	2480.855151
500.935003	2484.245327
501.301226	2480.164513
501.667390	2486.009731
502.033497	2486.166007
502.399546	2487.927890
502.765537	2485.936634
503.131470	2484.580564
503.497345	2482.483444
503.863163	2487.922849
504.228923	2482.760708
504.594625	2487.985863
504.960269	2486.047540
505.325856	2486.559217
505.691385	2488.368991
506.056856	2484.179792
506.422270	2484.310862
506.787625	2485.082159
507.152924	2488.048878
507.518164	2486.276912
507.883347	2486.372694
508.248472	2487.186841
508.613540	2487.355719
508.978550	2485.248517
509.343503	2486.959989
509.708398	2485.588795
510.073236	2487.093579
510.438016	2487.557365
510.802738	2483.516881
511.167403	2486.939824
511.532010	2483.746253
511.896561	2487.234732
512.261053	2484.325986
512.625488	2488.013590
512.989866	2485.853455
513.354186	2484.852786
513.718449	2485.500575
514.082655	2486.551655
514.446803	2485.843373
514.810894	2487.365802
515.174927	2486.622231
515.538904	2485.853455
515.902822	2485.112406
516.266684	2487.557365
516.630488	2485.339258
516.994235	2485.203147
517.357925	2484.789772
517.721558	2488.900833
518.085133	2486.896974
518.448651	2487.222129
518.812112	2483.534525
519.175516	2482.029740
519.538863	2480.817343
519.902152	2489.551142
520.265385	2485.034268
520.628560	2489.072232
520.991678	2489.115082
521.354739	2486.561737
521.717743	2486.506285
522.080690	2487.615339
522.443580	2488.240442
522.806413	2487.174238
523.169189	2488.222798
523.531908	2489.599033
523.894569	2488.353868
524.257174	2487.267499
524.619722	2487.935452
524.982213	2487.506954
525.344647	2486.705410
525.707025	2489.667088
526.069345	2486.584423
526.431608	2487.338075
526.793815	2488.401759
527.155964	2488.164824
527.518057	2487.595174
527.880093	2487.706079
528.242072	2487.708600
528.603995	2487.070894
528.965860	2487.822026
529.327669	2487.970740
529.689421	2485.828250
530.051117	2486.642396
530.412755	2488.379073
530.774337	2484.741881
531.135862	2486.470997
531.497331	2489.289002
531.858743	2487.154073
532.220098	2488.099289
532.581396	2486.382777
532.942638	2488.076604
533.303824	2488.295894
533.664953	2488.109372
534.026025	2487.254896
534.387040	2487.212046
534.747999	2486.760863
535.108902	2488.018631
535.469748	2487.592653
535.830537	2487.602736
536.191270	2485.276243
536.551947	2486.039978
536.912567	2485.722385
537.273131	2485.515698
537.633638	2482.841366
537.994089	2489.609115
538.354483	2486.292036
538.714821	2488.154742
539.075103	2486.695328
539.435328	2489.344454
539.795497	2487.222129
540.155609	2491.126502
540.515665	2486.168527
540.875665	2489.533498
541.235609	2488.631131
541.595496	2487.287664
541.955328	2487.844711
542.315102	2486.433188
542.674821	2486.168527
543.034483	2489.989722
543.394090	2485.024186
543.753640	2489.790597
544.113134	2489.079794
544.472571	2490.340082
544.831953	2486.029896
545.191278	2490.332521
545.550548	2487.857314
545.909761	2487.325472
546.268918	2487.814464
546.628019	2490.002325
546.987064	2488.711790
547.346053	2489.082314
547.704986	2488.752119
548.063863	2490.672798
548.422684	2487.683394
548.781449	2486.944865
549.140158	2484.830101
549.498811	2487.804382
549.857408	2489.362098
550.215949	2488.762201
550.574434	2487.900164
550.932864	2488.482417
551.291237	2490.287150
551.649555	2486.566779
552.007817	2488.860504
552.366022	2487.237252
552.724173	2486.775987
553.082267	2489.047026
553.440305	2489.954434
553.798288	2491.277737
554.156215	2487.020483
554.514086	2487.600215
554.871902	2483.499237
555.229661	2487.207005
555.587365	2485.445122
555.945014	2487.270020
556.302606	2488.250524
556.660143	2488.336224
557.017625	2486.801192
557.375050	2487.456542
557.732421	2486.062663
558.089735	2489.402428
558.446994	2489.810761
558.804197	2489.016779
559.161345	2487.388487
559.518437	2491.663385
559.875474	2489.452839
560.232455	2489.231028
560.589381	2488.260606
560.946251	2487.779176
561.303065	2486.987715
561.659825	2490.193889
562.016528	2488.152222
562.373177	2490.062819
562.729770	2489.291522
563.086307	2489.568786
563.442789	2490.211533
563.799216	2486.539052
564.155587	2488.963847
564.511904	2486.617190
564.868164	2489.483086
565.224370	2488.058960
565.580520	2488.545432
565.936615	2490.692963
566.292654	2488.631131
566.648638	2487.471666
567.004567	2489.273878
567.360441	2484.877992
567.716260	2488.810092
568.072023	2490.206492
568.427732	2489.730103
568.783385	2487.154073
569.138982	2486.251707
569.494525	2489.162973
569.850013	2488.797489
570.205445	2487.396048
570.560823	2487.980822
570.916145	2489.160452
571.271412	2486.420585
571.626625	2489.427633
571.981782	2486.594505
572.336884	2486.453353
572.691931	2486.715493
573.046923	2484.898157
573.401860	2482.831284
573.756743	2487.930411
574.111570	2489.319249
574.466342	2489.795638
574.821059	2489.772953
575.175722	2486.924701
575.530330	2486.748260
575.884882	2489.498210
576.239380	2486.637355
576.593823	2491.305463
576.948211	2487.595174
577.302544	2489.031903
577.656823	2489.755308
578.011047	2487.582571
578.365216	2489.021821
578.719330	2490.375370
579.073389	2489.041985
579.427394	2491.716317
579.781344	2489.538539
580.135239	2488.633652
580.489080	2488.268168
580.842866	2491.189517
581.196597	2493.720176
581.550273	2488.817654
581.903895	2489.377222
582.257463	2491.088694
582.610975	2489.788076
582.964434	2488.066522
583.317837	2487.912767
583.671186	2490.246821
584.024481	2488.520226
584.377721	2490.687922
584.730906	2488.432006
585.084037	2490.435864
585.437113	2488.195071
585.790135	2488.643734
586.143103	2489.730103
586.496016	2489.498210
586.848874	2487.373363
587.201679	2488.623569
587.554428	2490.647593
587.907124	2488.318580
588.259765	2489.941831
588.612352	2486.324803
588.964884	2489.856132
589.317362	2487.885040
589.669786	2490.604743
590.022155	2487.643065
590.374470	2485.160297
590.726731	2487.517036
591.078937	2482.682570
591.431090	2490.017448
591.783188	2489.533498
592.135232	2487.569968
592.487222	2489.931749
592.839157	2489.200782
593.191038	2488.200112
593.542866	2485.762715
593.894639	2488.671460
594.246358	2489.722541
594.598022	2488.908395
594.949633	2490.347644
595.301190	2488.595843
595.652692	2489.672129
596.004141	2487.706079
596.355535	2487.252376
596.706876	2489.316728
597.058162	2489.094917
597.409395	2486.917139
597.760573	2487.995946
598.111698	2487.993425
598.462768	2489.425113
598.813785	2491.408807
599.164748	2488.492499
599.515657	2490.430823
599.866511	2487.822026
600.217312	2488.298415
600.568060	2485.772797
600.918753	2491.111379
601.269392	2488.807572
601.619978	2489.271358
601.970510	2486.150883
602.320988	2489.084835
602.671412	2487.751450
603.021783	2488.371512
603.372100	2488.351347
603.722363	2491.318066
604.072572	2489.188179
604.422728	2487.781697
604.772830	2487.554845
605.122878	2489.228508
605.472872	2490.521564
605.822813	2489.667088
606.172701	2489.223467
606.522534	2487.340596
606.872314	2488.696666
607.222041	2487.015441
607.571714	2488.774804
607.921333	2486.198774
608.270899	2485.631645
608.620411	2483.693321
608.969870	2489.251193
609.319276	2489.780514
609.668627	2487.809423
610.017926	2486.730616
610.367171	2486.052581
610.716362	2486.491161
611.065500	2490.317397
611.414585	2487.040647
611.763616	2490.365288
612.112594	2486.831439
612.461518	2485.624083
612.810389	2488.676502
613.159207	2488.290853
613.507971	2487.703559
613.856682	2489.508292
614.205340	2490.168683
614.553945	2487.348158
614.902496	2488.893271
615.250994	2487.973261
615.599439	2487.842191
615.947830	2488.144660
616.296169	2489.462922
616.644454	2488.502582
616.992686	2486.654999
617.340864	2484.167189
617.688990	2491.590288
618.037063	2485.855976
618.385082	2489.178096
618.733048	2489.485607
619.080961	2488.202633
619.428821	2485.659371
619.776628	2487.282623
620.124382	2487.708600
620.472083	2489.271358
620.819731	2488.144660
621.167326	2486.440750
621.514868	2489.452839
621.862357	2490.705566
622.209793	2489.727582
622.557176	2489.352016
622.904506	2486.077787
623.251783	2490.592140
623.599007	2489.772953
623.946179	2490.145998
624.293297	2489.437716
624.640363	2488.300936
624.987376	2488.235401
625.334336	2484.333548
625.681243	2488.331183
626.028097	2482.430512
626.374899	2489.606594
626.721647	2488.280771
627.068343	2490.486276
627.414987	2486.130719
627.761577	2491.802017
628.108115	2486.551655
628.454600	2488.666419
628.801032	2488.638693
629.147412	2487.486789
629.493739	2487.945534
629.840014	2489.412510
630.186236	2488.031234
630.532405	2487.002838
630.878521	2488.028713
631.224585	2487.383446
631.570597	2488.389156
631.916556	2489.558703
632.262462	2486.755822
632.608316	2491.050885
632.954117	2488.366471
633.299866	2487.138950
633.645562	2487.741368
633.991206	2486.473517
634.336797	2489.286481
634.682336	2488.984012
635.027823	2488.840339
635.373257	2485.866058
635.718639	2488.311018
636.063968	2487.577530
636.409245	2489.888899
636.754470	2486.985194
637.099642	2488.031234
637.444762	2487.514516
637.789829	2488.903353
638.134845	2485.677015
638.479808	2487.852273
638.824719	2488.850421
639.169577	2488.368991
639.514383	2489.031903
639.859137	2489.737664
640.203839	2486.745740
640.548489	2486.022334
640.893086	2487.673312
641.237632	2486.914618
641.582125	2491.043323
641.926566	2489.795638
642.270955	2484.484782
642.615292	2483.718527
642.959576	2486.158445
643.303809	2482.059987
643.647990	2487.393528
643.992118	2488.192551
644.336195	2488.394197
