Dividing Wavelength (nm)	Counts (n)	Blue Motor Position (mm): 14.000000	Red Motor Position (mm): 0.000000	
326.493990	2069.388613
326.888308	2069.388613
327.282561	2069.388613
327.676750	2043.582946
328.070874	2044.379448
328.464933	2049.430685
328.858929	2057.882179
329.252859	2068.458520
329.646726	2080.464028
330.040528	2100.172419
330.434265	2115.971395
330.827938	2137.260188
331.221547	2156.310708
331.615091	2177.591939
332.008571	2198.588345
332.401986	2219.025182
332.795338	2237.498491
333.188625	2256.115472
333.581847	2275.468461
333.975006	2293.586368
334.368100	2314.078659
334.761129	2329.040803
335.154095	2344.736436
335.546996	2382.988711
335.939833	2455.946810
336.332606	2468.905096
336.725315	2482.034781
337.117960	2492.991729
337.510540	2500.873573
337.903056	2510.734070
338.295508	2517.663136
338.687896	2525.245032
339.080220	2529.051103
339.472480	2534.916485
339.864676	2537.132072
340.256807	2540.870088
340.648875	2540.421425
341.040879	2543.284801
341.432818	2546.707744
341.824694	2546.450645
342.216506	2544.938299
342.608253	2544.592980
342.999937	2542.112732
343.391557	2546.901828
343.783113	2541.792619
344.174605	2538.561239
344.566033	2537.953780
344.957397	2538.457896
345.348697	2534.361958
345.739934	2533.086546
346.131106	2530.923891
346.522215	2531.208717
346.913260	2528.310053
347.304241	2526.875845
347.695159	2524.945083
348.086012	2523.382325
348.476802	2520.682787
348.867528	2516.591891
349.258191	2514.557785
349.648789	2514.429236
350.039324	2513.554596
350.429796	2516.286901
350.820203	2514.668691
351.210548	2517.842097
351.600828	2512.574091
351.991045	2511.636437
352.381198	2512.916890
352.771288	2511.918741
353.161314	2508.039573
353.551276	2510.850017
353.941175	2508.644512
354.331010	2509.640140
354.720782	2513.300018
355.110490	2515.487878
355.500135	2510.839934
355.889717	2516.251613
356.279235	2512.654750
356.668689	2512.004441
357.058080	2513.526869
357.447408	2512.541324
357.836672	2513.093330
358.225873	2513.184071
358.615010	2513.007631
359.004084	2515.389576
359.393095	2517.332941
359.782043	2517.267406
360.170927	2514.872858
360.559748	2516.264216
360.948505	2515.974350
361.337199	2516.932169
361.725830	2516.990142
362.114398	2518.651202
362.502903	2518.487365
362.891344	2518.235307
363.279722	2519.805627
363.668037	2522.006090
364.056289	2520.455935
364.444478	2520.866789
364.832603	2519.538445
365.220665	2522.240504
365.608665	2520.599608
365.996601	2522.016173
366.384474	2519.301511
366.772284	2524.624970
367.160031	2522.253107
367.547715	2522.742099
367.935336	2521.479290
368.322893	2519.785462
368.710388	2522.197654
369.097820	2522.235463
369.485189	2519.626666
369.872495	2525.766791
370.259738	2523.193282
370.646918	2526.933818
371.034035	2526.351565
371.421090	2526.137316
371.808081	2523.294105
372.195010	2526.278468
372.581875	2525.318128
372.968678	2527.183355
373.355418	2524.864424
373.742096	2524.519105
374.128710	2526.444826
374.515262	2528.589837
374.901751	2529.056144
375.288177	2528.312574
375.674540	2525.981040
376.060841	2530.248377
376.447079	2525.527336
376.833254	2531.291896
377.219367	2528.037831
377.605417	2528.103366
377.991404	2527.475742
378.377329	2529.434230
378.763191	2528.254600
379.148991	2531.498583
379.534727	2530.518078
379.920402	2527.810979
380.306013	2531.470857
380.691563	2532.244674
381.077049	2529.633356
381.462474	2530.087060
381.847835	2531.806093
382.233134	2533.308357
382.618371	2530.339118
383.003545	2531.788449
383.388657	2531.783408
383.773706	2531.559077
384.158693	2531.281813
384.543618	2533.721732
384.928480	2532.027904
385.313280	2533.046217
385.698017	2534.150230
386.082692	2533.683923
386.467305	2534.848430
386.851856	2535.231557
387.236344	2535.307175
387.620770	2531.491021
388.005133	2536.295241
388.389435	2534.893800
388.773674	2529.618233
389.157851	2534.901362
389.541965	2534.493028
389.926018	2534.709798
390.310008	2536.365817
390.693936	2535.140817
391.077802	2539.249357
391.461606	2537.507638
391.845348	2537.442103
392.229027	2536.890097
392.612645	2535.223996
392.996200	2538.021836
393.379694	2538.291538
393.763125	2539.939995
394.146494	2537.610982
394.529801	2537.305992
394.913047	2538.994779
395.296230	2538.767927
395.679351	2537.616023
396.062410	2538.069727
396.445408	2539.561908
396.828343	2539.950077
397.211217	2539.130890
397.594028	2539.524100
397.976778	2537.860519
398.359466	2537.943698
398.742092	2537.956301
399.124656	2539.972762
399.507158	2541.459903
399.889598	2542.352187
400.271977	2538.979655
400.654294	2541.200283
401.036549	2541.961498
401.418742	2542.536189
401.800874	2542.047197
402.182944	2542.841179
402.564952	2539.398071
402.946898	2542.886549
403.328783	2543.940151
403.710606	2543.889739
404.092367	2543.078113
404.474067	2541.969059
404.855705	2543.546941
405.237282	2543.126004
405.618797	2542.301776
406.000250	2542.785726
406.381642	2544.600542
406.762972	2541.172557
407.144240	2539.758513
407.525447	2542.253885
407.906593	2535.833975
408.287677	2543.614996
408.668700	2543.897301
409.049661	2543.219266
409.430560	2543.244471
409.811399	2540.920499
410.192176	2546.175902
410.572891	2546.269164
410.953545	2545.079451
411.334138	2546.667415
411.714669	2543.705737
412.095139	2549.437529
412.475547	2546.402754
412.855894	2545.989380
413.236180	2545.202960
413.616405	2549.581202
413.996568	2545.444935
414.376670	2546.120450
414.756711	2545.865871
415.136691	2547.325285
415.516609	2546.299411
415.896466	2546.919473
416.276262	2547.002652
416.655997	2548.620862
417.035670	2545.767569
417.415283	2548.898125
417.794834	2549.061963
418.174324	2546.168341
418.553753	2547.418547
418.933121	2548.136911
419.312428	2547.279915
419.691674	2546.637168
420.070859	2549.465255
420.449983	2549.782848
420.829045	2547.811757
421.208047	2546.795964
421.586988	2545.394523
421.965867	2549.591284
422.344686	2549.084648
422.723444	2549.331665
423.102141	2551.448949
423.480777	2545.727240
423.859352	2548.749411
424.237866	2547.698331
424.616319	2549.064483
424.994712	2551.149001
425.373044	2548.971222
425.751314	2548.394010
426.129524	2545.291180
426.507673	2546.682538
426.885762	2542.589121
427.263789	2550.251675
427.641756	2547.100954
428.019662	2545.671787
428.397508	2549.984494
428.775292	2548.704041
429.153016	2548.711603
429.530679	2548.699000
429.908282	2550.861655
430.285824	2551.131357
430.663305	2548.646068
431.040726	2552.104299
431.418086	2550.160934
431.795385	2551.625390
432.172624	2548.663712
432.549802	2550.264278
432.926920	2551.564896
433.303977	2550.768393
433.680974	2550.947354
434.057910	2550.299566
434.434786	2550.067673
434.811601	2550.874258
435.188355	2551.683363
435.565050	2548.157076
435.941683	2549.961809
436.318257	2550.483568
436.694770	2549.830739
437.071222	2547.915100
437.447614	2551.479196
437.823946	2552.134546
438.200218	2551.080945
438.576429	2552.769732
438.952580	2549.450132
439.328670	2553.351985
439.704700	2550.518856
440.080670	2552.613456
440.456580	2553.195709
440.832429	2551.965667
441.208218	2551.176727
441.583947	2552.923487
441.959616	2549.399720
442.335224	2552.815102
442.710773	2551.574978
443.086261	2551.643034
443.461689	2550.367622
443.837057	2555.804506
444.212365	2551.978270
444.587612	2551.302756
444.962800	2549.644216
445.337927	2550.591953
445.712995	2547.756304
446.088002	2551.937941
446.462949	2551.872406
446.837837	2549.976932
447.212664	2552.142108
447.587431	2551.930379
447.962139	2551.663198
448.336786	2552.943651
448.711374	2552.799978
449.085901	2553.808209
449.460369	2554.433312
449.834776	2553.414999
450.209124	2552.840308
450.583412	2551.317879
450.957640	2551.138918
451.331808	2553.127653
451.705917	2551.658157
452.079965	2550.536500
452.453954	2554.682849
452.827883	2552.787376
453.201752	2551.327962
453.575562	2554.508930
453.949311	2554.632438
454.323001	2553.430123
454.696632	2552.396686
455.070202	2555.035730
455.443713	2554.229146
455.817164	2551.970709
456.190556	2552.908363
456.563888	2555.502037
456.937160	2554.118240
457.310373	2553.362067
457.683526	2553.286450
458.056619	2555.063457
458.429653	2554.624876
458.802628	2552.880637
459.175542	2551.663198
459.548398	2555.108827
459.921194	2552.933569
460.293930	2557.016904
460.666607	2554.829043
461.039224	2557.458005
461.411782	2555.623025
461.784280	2554.753426
462.156719	2554.887016
462.529099	2557.594116
462.901419	2554.080432
463.273680	2555.491955
463.645882	2549.692107
464.018024	2552.726882
464.390106	2550.223949
464.762130	2556.694270
465.134094	2555.461708
465.505999	2555.128992
465.877845	2557.299208
466.249631	2555.771739
466.621358	2558.065464
466.993026	2556.583364
467.364634	2560.112172
467.736184	2557.967161
468.107674	2557.460525
468.479105	2555.144115
468.850477	2556.931204
469.221790	2559.658468
469.593043	2555.993549
469.964238	2556.661502
470.335373	2557.210988
470.706449	2559.328273
471.077467	2557.163097
471.448425	2559.605536
471.819324	2559.542522
472.190164	2558.004970
472.560945	2558.446071
472.931667	2555.547407
473.302330	2559.608057
473.672934	2555.144115
474.043479	2558.874569
474.413965	2558.872048
474.784393	2559.623180
475.154761	2559.787018
475.525070	2560.185269
475.895321	2558.226781
476.265513	2556.696790
476.635645	2557.410114
477.005719	2559.325752
477.375734	2559.247614
477.745691	2560.424724
478.115588	2561.826164
478.485427	2559.744168
478.855207	2562.042934
479.224928	2562.325239
479.594591	2564.258521
479.964194	2561.745506
480.333739	2562.877245
480.703226	2561.773232
481.072653	2564.296330
481.442022	2562.892368
481.811333	2562.161401
482.180584	2558.829198
482.549777	2561.284240
482.918912	2558.705690
483.287988	2565.785991
483.657005	2563.973696
484.025964	2564.903789
484.394864	2564.681978
484.763706	2564.099725
485.132489	2562.423541
485.501213	2565.019735
485.869879	2562.927657
486.238487	2566.945456
486.607036	2565.536454
486.975527	2565.024777
487.343959	2563.638459
487.712333	2563.797256
488.080648	2563.966134
488.448905	2567.144582
488.817104	2563.260373
489.185244	2566.012843
489.553326	2566.758933
489.921350	2567.570559
490.289315	2570.678431
490.657222	2572.899059
491.025070	2574.842424
491.392861	2572.808318
491.760593	2570.214644
492.128267	2572.281518
492.495883	2568.261197
492.863440	2567.706670
493.230939	2569.360169
493.598380	2571.633729
493.965763	2568.228430
494.333088	2569.697926
494.700354	2568.929150
495.067563	2569.718091
495.434713	2572.011816
495.801805	2571.608523
496.168839	2570.575087
496.535815	2571.011147
496.902733	2573.309913
497.269593	2574.159347
497.636395	2573.234296
498.003139	2574.829821
498.369825	2576.032136
498.736453	2575.162537
499.103023	2576.223700
499.469535	2576.833679
499.835989	2575.205387
500.202385	2575.026426
500.568723	2573.574573
500.935003	2575.079358
501.301226	2572.457958
501.667390	2579.397106
502.033497	2579.444997
502.399546	2578.812332
502.765537	2581.194278
503.131470	2582.247879
503.497345	2582.900708
503.863163	2582.600759
504.228923	2580.869123
504.594625	2586.391707
504.960269	2582.641089
505.325856	2586.016141
505.691385	2586.137129
506.056856	2587.515884
506.422270	2587.939341
506.787625	2588.725761
507.152924	2586.502613
507.518164	2592.176431
507.883347	2590.590988
508.248472	2594.150043
508.613540	2592.793972
508.978550	2596.204313
509.343503	2594.366812
509.708398	2596.295054
510.073236	2598.165322
510.438016	2600.461567
510.802738	2598.883686
511.167403	2600.605240
511.532010	2605.041456
511.896561	2604.542382
512.261053	2606.828545
512.625488	2608.734101
512.989866	2608.565222
513.354186	2610.445573
513.718449	2610.095212
514.082655	2612.653598
514.446803	2610.226282
514.810894	2615.307766
515.174927	2617.770369
515.538904	2616.290791
515.902822	2620.069135
516.266684	2621.268930
516.630488	2623.862604
516.994235	2621.165586
517.357925	2624.263375
517.721558	2626.766308
518.085133	2629.228912
518.448651	2629.632204
518.812112	2627.048613
519.175516	2629.793521
519.538863	2628.051802
519.902152	2632.609006
520.265385	2636.909110
520.628560	2640.921868
520.991678	2641.478916
521.354739	2641.516724
521.717743	2641.630150
522.080690	2645.486633
522.443580	2645.337919
522.806413	2647.926552
523.169189	2650.800009
523.531908	2652.085503
523.894569	2652.405617
524.257174	2655.170690
524.619722	2657.519867
524.982213	2660.536998
525.344647	2660.524395
525.707025	2660.267296
526.069345	2667.367761
526.431608	2671.257012
526.793815	2667.692916
527.155964	2670.188287
527.518057	2672.187104
527.880093	2673.530572
528.242072	2675.357990
528.603995	2677.407219
528.965860	2678.266736
529.327669	2678.596932
529.689421	2682.960050
530.051117	2685.200843
530.412755	2687.197140
530.774337	2687.484486
531.135862	2690.196627
531.497331	2693.017152
531.858743	2695.245342
532.220098	2697.526464
532.581396	2696.770291
532.942638	2694.894982
533.303824	2703.137268
533.664953	2703.843030
534.026025	2704.760520
534.387040	2708.541385
534.747999	2710.688917
535.108902	2714.961295
535.469748	2711.593804
535.830537	2716.995400
536.191270	2723.269116
536.551947	2718.490102
536.912567	2719.826008
537.273131	2725.552759
537.633638	2721.827346
537.994089	2730.992164
538.354483	2730.737586
538.714821	2740.615727
539.075103	2743.385841
539.435328	2745.505646
539.795497	2746.579412
540.155609	2748.623600
540.515665	2753.263982
540.875665	2753.127871
541.235609	2756.558376
541.595496	2760.137595
541.955328	2764.911568
542.315102	2764.563728
542.674821	2769.045314
543.034483	2771.386930
543.394090	2775.752569
543.753640	2776.939761
544.113134	2785.665998
544.472571	2786.573406
544.831953	2796.587658
545.191278	2796.232257
545.550548	2798.057154
545.909761	2805.618885
546.268918	2810.188691
546.628019	2817.621872
546.987064	2817.770586
547.346053	2817.936944
547.704986	2827.386587
548.063863	2834.187104
548.422684	2838.144410
548.781449	2841.038032
549.140158	2850.691842
549.498811	2856.290043
549.857408	2855.024713
550.215949	2866.057278
550.574434	2873.321581
550.932864	2880.598487
551.291237	2894.900240
551.649555	2900.624470
552.007817	2908.284504
552.366022	2910.840369
552.724173	2924.446443
553.082267	2934.874070
553.440305	2945.047118
553.798288	2949.077521
554.156215	2959.124540
554.514086	2970.273052
554.871902	2978.487612
555.229661	2990.901453
555.587365	2998.538802
555.945014	3016.049249
556.302606	3029.040303
556.660143	3042.638815
557.017625	3056.759087
557.375050	3067.307702
557.732421	3084.608942
558.089735	3099.558483
558.446994	3114.417284
558.804197	3135.380923
559.161345	3151.797440
559.518437	3155.449756
559.875474	3176.365503
560.232455	3199.776622
560.589381	3217.055177
560.946251	3232.491190
561.303065	3262.092845
561.659825	3280.616565
562.016528	3295.666930
562.373177	3310.440031
562.729770	3341.291893
563.086307	3356.493492
563.442789	3390.256620
563.799216	3413.783685
564.155587	3434.036521
564.511904	3461.014255
564.868164	3489.151456
565.224370	3519.461393
565.580520	3543.626164
565.936615	3576.980958
566.292654	3599.575410
566.648638	3640.607882
567.004567	3670.774146
567.360441	3704.842264
567.716260	3733.095411
568.072023	3776.325826
568.427732	3809.294972
568.783385	3831.203826
569.138982	3879.457751
569.494525	3925.140687
569.850013	3947.581383
570.205445	3989.012106
570.560823	4023.455790
570.916145	4057.745718
571.271412	4109.956949
571.626625	4138.580620
571.981782	4186.748845
572.336884	4208.642577
572.691931	4263.926390
573.046923	4299.123726
573.401860	4335.883820
573.756743	4382.927868
574.111570	4437.798307
574.466342	4479.181139
574.821059	4534.117113
575.175722	4559.610228
575.530330	4610.011684
575.884882	4645.398063
576.239380	4691.443963
576.593823	4745.931274
576.948211	4796.768790
577.302544	4827.958409
577.656823	4875.710739
578.011047	4941.928815
578.365216	4995.544007
578.719330	5035.810223
579.073389	5090.211835
579.427394	5149.397502
579.781344	5202.838773
580.135239	5243.183128
580.489080	5310.248118
580.842866	5340.111913
581.196597	5434.784782
581.550273	5492.982383
581.903895	5553.282145
582.257463	5655.451210
582.610975	5681.113203
582.964434	5765.484475
583.317837	5795.010513
583.671186	5865.435432
584.024481	5953.544719
584.377721	5983.385829
584.730906	6070.749025
585.084037	6151.568804
585.437113	6197.594538
585.790135	6274.240242
586.143103	6313.780532
586.496016	6396.974694
586.848874	6477.920501
587.201679	6564.320837
587.554428	6585.692808
587.907124	6682.046903
588.259765	6742.939000
588.612352	6838.559606
588.964884	6863.533482
589.317362	6973.007179
589.669786	7047.528036
590.022155	7113.189065
590.374470	7245.665547
590.726731	7278.301977
591.078937	7280.192409
591.431090	7401.722026
591.783188	7431.840399
592.135232	7489.624625
592.487222	7602.319619
592.839157	7703.011626
593.191038	7738.735763
593.542866	7800.847820
593.894639	7804.706823
594.246358	7923.844412
594.598022	8013.612238
594.949633	8041.744397
595.301190	8117.379349
595.652692	8198.277265
596.004141	8353.867438
596.355535	8289.539794
596.706876	8366.561063
597.058162	8410.807270
597.409395	8570.014471
597.760573	8689.888068
598.111698	8722.101041
598.462768	8791.989077
598.813785	8888.300322
599.164748	8916.326616
599.515657	9046.627840
599.866511	9062.898164
600.217312	9264.249411
600.568060	9183.845528
600.918753	9411.403212
601.269392	9494.516716
601.619978	9539.637563
601.970510	9674.072533
602.320988	9796.285226
602.671412	9937.745044
603.021783	10008.464871
603.372100	10025.546821
603.722363	10139.786928
604.072572	10246.351880
604.422728	10342.315284
604.772830	10400.107072
605.122878	10534.468945
605.472872	10603.575603
605.822813	10751.432645
606.172701	10803.190172
606.522534	10978.481173
606.872314	11128.755449
607.222041	11189.239213
607.571714	11374.892306
607.921333	11372.810309
608.270899	11515.222906
608.620411	11709.067874
608.969870	11764.145000
609.319276	11880.661189
609.668627	11995.672593
610.017926	12184.993126
610.367171	12349.473373
610.716362	12469.982156
611.065500	12565.060838
611.414585	12746.852407
611.763616	12914.332141
612.112594	13006.930576
612.461518	13161.545285
612.810389	13381.667267
613.159207	13446.181434
613.507971	13549.756981
613.856682	13810.646774
614.205340	13890.843970
614.553945	14197.464591
614.902496	14136.910251
615.250994	14375.802970
615.599439	14516.398231
615.947830	14680.271019
616.296169	14804.036387
616.644454	14949.178768
616.992686	15128.386746
617.340864	15397.105452
617.688990	15371.302306
618.037063	15706.042483
618.385082	15781.793381
618.733048	16037.331990
619.080961	16131.450332
619.428821	16261.267606
619.776628	16414.115390
620.124382	16482.352449
620.472083	16639.447405
620.819731	16809.172973
621.167326	16782.487625
621.514868	16893.145993
621.862357	16828.901529
622.209793	16993.114595
622.557176	16949.533820
622.904506	16974.875700
623.251783	16971.735061
623.599007	16977.426524
623.946179	17064.706541
624.293297	17087.124552
624.640363	16991.261971
624.987376	17050.213224
625.334336	17093.930110
625.681243	17054.460396
626.028097	17136.416954
626.374899	17187.751024
626.721647	17294.822611
627.068343	17316.408832
627.414987	17307.080177
627.761577	17331.076069
628.108115	17580.678719
628.454600	17375.907050
628.801032	17600.568592
629.147412	17665.138211
629.493739	17749.945542
629.840014	17662.899939
630.186236	17965.691803
630.532405	17840.892999
630.878521	18073.751457
631.224585	18089.137058
631.570597	18046.289771
631.916556	18238.332527
632.262462	18312.598805
632.608316	18393.174088
632.954117	18448.077294
633.299866	18526.938584
633.645562	18611.531667
633.991206	18479.387901
634.336797	18395.084685
634.682336	18454.799673
635.027823	18455.714642
635.373257	18506.174072
635.718639	18454.749261
636.063968	18498.478750
636.409245	18294.138100
636.754470	18370.312455
637.099642	18351.700515
637.444762	18182.960493
637.789829	18335.377259
638.134845	18243.411489
638.479808	18294.949726
638.824719	18384.893993
639.169577	18224.829796
639.514383	18367.628041
639.859137	18272.980377
640.203839	18445.544114
640.548489	18397.396054
640.893086	18491.421135
641.237632	18441.236448
641.582125	18579.177541
641.926566	18548.691163
642.270955	18660.771137
642.615292	18726.227999
