Dividing Wavelength (nm)	Counts (n)	Blue Motor Position (mm): 10.000000	Red Motor Position (mm): 0.000000	
326.493990	2064.990206
326.888308	2064.990206
327.282561	2064.990206
327.676750	2042.055477
328.070874	2042.191588
328.464933	2049.279450
328.858929	2056.493341
329.252859	2068.362738
329.646726	2081.787331
330.040528	2099.060844
330.434265	2111.217587
330.827938	2133.902779
331.221547	2155.557055
331.615091	2171.419046
332.008571	2194.497448
332.401986	2214.906560
332.795338	2235.179560
333.188625	2258.210071
333.581847	2273.179778
333.975006	2291.910185
334.368100	2310.675880
334.761129	2323.855977
335.154095	2340.988338
335.546996	2374.466641
335.939833	2427.935639
336.332606	2441.453493
336.725315	2450.373815
337.117960	2462.417131
337.510540	2475.221662
337.903056	2479.846921
338.295508	2487.307828
338.687896	2497.261587
339.080220	2500.291320
339.472480	2508.452948
339.864676	2510.166940
340.256807	2510.000582
340.648875	2514.774555
341.040879	2515.878568
341.432818	2517.708507
341.824694	2517.126253
342.216506	2514.157014
342.608253	2519.031809
342.999937	2516.002076
343.391557	2516.486027
343.783113	2511.681807
344.174605	2510.166940
344.566033	2511.149965
344.957397	2509.153668
345.348697	2505.183760
345.739934	2505.125787
346.131106	2502.033039
346.522215	2503.731907
346.913260	2498.363079
347.304241	2498.567245
347.695159	2497.531288
348.086012	2495.172028
348.476802	2491.207161
348.867528	2489.916625
349.258191	2488.404279
349.648789	2484.840183
350.039324	2486.508805
350.429796	2488.467294
350.820203	2482.720378
351.210548	2485.669453
351.600828	2485.470328
351.991045	2486.009731
352.381198	2482.995121
352.771288	2480.507312
353.161314	2482.342292
353.551276	2484.918321
353.941175	2481.439925
354.331010	2480.555203
354.720782	2482.493526
355.110490	2488.464773
355.500135	2482.513691
355.889717	2483.340440
356.279235	2483.116109
356.668689	2484.411685
357.058080	2482.415388
357.447408	2484.867910
357.836672	2487.000318
358.225873	2485.429998
358.615010	2485.656850
359.004084	2487.610297
359.393095	2488.013590
359.782043	2486.763384
360.170927	2490.332521
360.559748	2485.513177
360.948505	2487.937973
361.337199	2488.719351
361.725830	2491.023159
362.114398	2492.691781
362.502903	2491.181955
362.891344	2492.016266
363.279722	2491.983498
363.668037	2494.854436
364.056289	2491.053406
364.444478	2491.847387
364.832603	2495.280413
365.220665	2493.407624
365.608665	2493.579024
365.996601	2494.022645
366.384474	2494.052892
366.772284	2496.071874
367.160031	2495.943325
367.547715	2498.491628
367.935336	2495.293016
368.322893	2494.446102
368.710388	2490.471152
369.097820	2496.414673
369.485189	2493.299240
369.872495	2500.407267
370.259738	2493.359733
370.646918	2497.301916
371.034035	2497.188490
371.421090	2497.402739
371.808081	2495.928201
372.195010	2501.075219
372.581875	2496.601195
372.968678	2501.833913
373.355418	2498.363079
373.742096	2500.669407
374.128710	2499.532626
374.515262	2498.781494
374.901751	2498.123624
375.288177	2500.697133
375.674540	2499.469612
376.060841	2501.533964
376.447079	2503.953718
376.833254	2503.643687
377.219367	2501.440703
377.605417	2498.791577
377.991404	2505.355159
378.377329	2499.530106
378.763191	2501.783502
379.148991	2500.034221
379.534727	2500.979437
379.920402	2501.864160
380.306013	2503.989006
380.691563	2503.361383
381.077049	2503.568070
381.462474	2501.962462
381.847835	2503.759634
382.233134	2504.717453
382.618371	2502.874911
383.003545	2502.368275
383.388657	2503.694099
383.773706	2502.832062
384.158693	2505.541682
384.543618	2506.252484
384.928480	2505.660149
385.313280	2505.826507
385.698017	2507.734584
386.082692	2506.290293
386.467305	2507.154851
386.851856	2506.446569
387.236344	2506.040756
387.620770	2504.946826
388.005133	2499.451968
388.389435	2504.435148
388.773674	2500.490446
389.157851	2508.198370
389.541965	2508.180726
389.926018	2508.347084
390.310008	2506.653256
390.693936	2506.073523
391.077802	2508.790705
391.461606	2508.800788
391.845348	2508.871364
392.229027	2506.852382
392.612645	2508.309275
392.996200	2509.917403
393.379694	2509.093175
393.763125	2508.016888
394.146494	2506.749038
394.529801	2513.378155
394.913047	2509.746004
395.296230	2511.056704
395.679351	2508.944461
396.062410	2511.507887
396.445408	2513.552075
396.828343	2511.036539
397.211217	2511.976715
397.594028	2508.977228
397.976778	2511.422188
398.359466	2512.004441
398.742092	2509.282218
399.124656	2511.633916
399.507158	2511.155007
399.889598	2512.773217
400.271977	2511.442352
400.654294	2512.795902
401.036549	2513.541993
401.418742	2514.262878
401.800874	2510.834893
402.182944	2513.705830
402.564952	2510.824811
402.946898	2513.287415
403.328783	2512.228772
403.710606	2514.020903
404.092367	2512.564009
404.474067	2515.346726
404.855705	2513.156345
405.237282	2515.611387
405.618797	2513.564678
406.000250	2516.087776
406.381642	2516.359998
406.762972	2514.298166
407.144240	2512.014523
407.525447	2511.578463
407.906593	2510.799605
408.287677	2516.112981
408.668700	2516.191119
409.049661	2518.618435
409.430560	2517.887468
409.811399	2516.102899
410.192176	2516.216325
410.572891	2517.161541
410.953545	2519.674557
411.334138	2518.376459
411.714669	2518.615914
412.095139	2518.152128
412.475547	2515.371932
412.855894	2517.953002
413.236180	2516.707838
413.616405	2517.141377
413.996568	2515.281191
414.376670	2519.203209
414.756711	2520.650020
415.136691	2518.512571
415.516609	2518.328568
415.896466	2518.502488
416.276262	2519.215812
416.655997	2519.921573
417.035670	2516.906963
417.415283	2520.400483
417.794834	2517.310255
418.174324	2518.189937
418.553753	2516.359998
418.933121	2520.062725
419.312428	2517.453928
419.691674	2520.574403
420.070859	2517.539628
420.449983	2518.530215
420.829045	2519.200688
421.208047	2517.791686
421.586988	2521.723786
421.965867	2521.368384
422.344686	2520.254289
422.723444	2519.790503
423.102141	2521.897705
423.480777	2519.573733
423.859352	2519.641789
424.237866	2519.800585
424.616319	2518.608353
424.994712	2521.086080
425.373044	2520.604649
425.751314	2520.360153
426.129524	2515.787827
426.507673	2515.462673
426.885762	2515.397137
427.263789	2521.136491
427.641756	2519.850997
428.019662	2520.955010
428.397508	2520.110616
428.775292	2519.787982
429.153016	2520.720596
429.530679	2522.820237
429.908282	2520.498785
430.285824	2525.083715
430.663305	2519.934176
431.040726	2522.752181
431.418086	2523.097500
431.795385	2521.227232
432.172624	2521.910308
432.549802	2522.190092
432.926920	2520.922242
433.303977	2521.426358
433.680974	2524.047757
434.057910	2521.249917
434.434786	2522.457273
434.811601	2523.178158
435.188355	2520.529032
435.565050	2520.859228
435.941683	2525.595392
436.318257	2523.306708
436.694770	2521.628004
437.071222	2522.802593
437.447614	2524.037675
437.823946	2523.311749
438.200218	2523.510875
438.576429	2523.982223
438.952580	2521.824609
439.328670	2523.344517
439.704700	2522.225380
440.080670	2521.693539
440.456580	2520.072808
440.832429	2521.968282
441.208218	2521.733868
441.583947	2523.949455
441.959616	2521.648168
442.335224	2522.467356
442.710773	2520.846625
443.086261	2521.380987
443.461689	2522.795031
443.837057	2522.789990
444.212365	2520.886954
444.587612	2523.037006
444.962800	2517.050636
445.337927	2520.224042
445.712995	2518.016017
446.088002	2523.722603
446.462949	2522.963909
446.837837	2521.544825
447.212664	2524.650175
447.587431	2522.926101
447.962139	2524.572038
448.336786	2523.344517
448.711374	2526.515402
449.085901	2521.650689
449.460369	2525.093797
449.834776	2523.646986
450.209124	2521.814526
450.583412	2523.926770
450.957640	2523.997346
451.331808	2520.642458
451.705917	2524.680422
452.079965	2523.664630
452.453954	2523.596574
452.827883	2521.796882
453.201752	2522.827798
453.575562	2522.853004
453.949311	2526.228057
454.323001	2521.849814
454.696632	2528.468849
455.070202	2523.541122
455.443713	2525.360978
455.817164	2525.086235
456.190556	2527.379960
456.563888	2524.342665
456.937160	2525.895340
457.310373	2523.987264
457.683526	2524.887110
458.056619	2525.920546
458.429653	2523.125226
458.802628	2526.457429
459.175542	2524.224198
459.548398	2526.412059
459.921194	2525.444157
460.293930	2523.460463
460.666607	2523.702438
461.039224	2525.355937
461.411782	2526.525485
461.784280	2526.860721
462.156719	2522.497603
462.529099	2522.971471
462.901419	2522.275792
463.273680	2523.233611
463.645882	2520.927283
464.018024	2525.517254
464.390106	2521.617921
464.762130	2525.693694
465.134094	2524.476256
465.505999	2527.533715
465.877845	2528.269724
466.249631	2528.970444
466.621358	2526.223015
466.993026	2527.813499
467.364634	2528.287368
467.736184	2528.355423
468.107674	2526.293592
468.479105	2527.485824
468.850477	2525.872655
469.221790	2527.374919
469.593043	2528.945238
469.964238	2528.857018
470.335373	2527.392563
470.706449	2527.906761
471.077467	2525.449198
471.448425	2524.529188
471.819324	2526.936339
472.190164	2529.232584
472.560945	2526.583458
472.931667	2527.606812
473.302330	2528.272244
473.672934	2530.051772
474.043479	2525.401307
474.413965	2526.119672
474.784393	2526.636390
475.154761	2529.961031
475.525070	2527.581606
475.895321	2526.369209
476.265513	2526.517923
476.635645	2530.699560
477.005719	2529.537574
477.375734	2528.529343
477.745691	2526.769981
478.115588	2529.217461
478.485427	2526.028931
478.855207	2529.363654
479.224928	2527.755526
479.594591	2528.063037
479.964194	2531.806093
480.333739	2528.105886
480.703226	2529.608150
481.072653	2530.976823
481.442022	2529.466998
481.811333	2527.432892
482.180584	2527.919364
482.549777	2530.276103
482.918912	2525.363499
483.287988	2531.261649
483.657005	2531.324663
484.025964	2532.186700
484.394864	2531.153264
484.763706	2530.641587
485.132489	2532.360620
485.501213	2531.541433
485.869879	2528.519261
486.238487	2529.734179
486.607036	2529.656041
486.975527	2530.757533
487.343959	2531.707791
487.712333	2536.675848
488.080648	2529.915661
488.448905	2527.843746
488.817104	2529.930784
489.185244	2531.332225
489.553326	2530.356762
489.921350	2533.757020
490.289315	2530.898686
490.657222	2532.375744
491.025070	2535.773481
491.392861	2533.068902
491.760593	2535.826413
492.128267	2532.436238
492.495883	2537.179963
492.863440	2533.268028
493.230939	2533.363810
493.598380	2529.711494
493.965763	2532.181659
494.333088	2532.831968
494.700354	2531.566638
495.067563	2532.897503
495.434713	2532.537061
495.801805	2531.528830
496.168839	2532.363141
496.535815	2533.051258
496.902733	2533.457071
497.269593	2532.393388
497.636395	2532.411032
498.003139	2533.552853
498.369825	2533.401618
498.736453	2531.463295
499.103023	2532.625281
499.469535	2535.370189
499.835989	2532.900024
500.202385	2532.897503
500.568723	2526.689322
500.935003	2532.254756
501.301226	2528.758716
501.667390	2533.177287
502.033497	2534.004036
502.399546	2530.132430
502.765537	2535.730632
503.131470	2532.690816
503.497345	2532.698377
503.863163	2531.463295
504.228923	2533.875487
504.594625	2533.341125
504.960269	2532.506814
505.325856	2534.157792
505.691385	2537.263142
506.056856	2534.288862
506.422270	2533.457071
506.787625	2534.424973
507.152924	2534.097298
507.518164	2534.714839
507.883347	2533.573018
508.248472	2535.302133
508.613540	2533.830117
508.978550	2536.844727
509.343503	2534.263656
509.708398	2534.404808
510.073236	2535.821372
510.438016	2534.568646
510.802738	2535.350024
511.167403	2532.617719
511.532010	2536.718698
511.896561	2537.704243
512.261053	2533.673841
512.625488	2537.185004
512.989866	2538.977135
513.354186	2537.510159
513.718449	2538.110056
514.082655	2537.235416
514.446803	2537.182484
514.810894	2541.154913
515.174927	2538.074768
515.538904	2540.945705
515.902822	2540.151723
516.266684	2538.215920
516.630488	2540.950746
516.994235	2542.415202
517.357925	2543.352856
517.721558	2544.532486
518.085133	2544.451828
518.448651	2541.747249
518.812112	2538.838503
519.175516	2541.212886
519.538863	2540.078627
519.902152	2545.001313
520.265385	2546.959802
520.628560	2546.687579
520.991678	2547.584905
521.354739	2550.561706
521.717743	2548.870399
522.080690	2546.768238
522.443580	2553.324258
522.806413	2552.820143
523.169189	2553.180586
523.531908	2556.003632
523.894569	2553.334341
524.257174	2553.218394
524.619722	2554.463559
524.982213	2556.485062
525.344647	2557.896585
525.707025	2564.124931
526.069345	2560.129816
526.431608	2564.518141
526.793815	2562.219374
527.155964	2562.032852
527.518057	2559.908005
527.880093	2563.469581
528.242072	2564.601320
528.603995	2563.643500
528.965860	2566.383367
529.327669	2564.674416
529.689421	2570.655745
530.051117	2570.968297
530.412755	2570.005437
530.774337	2570.128945
531.135862	2572.707495
531.497331	2575.074317
531.858743	2576.135480
532.220098	2576.964749
532.581396	2575.502815
532.942638	2579.881057
533.303824	2577.930130
533.664953	2581.622776
534.026025	2581.307703
534.387040	2580.054977
534.747999	2583.566140
535.108902	2583.205698
535.469748	2586.043867
535.830537	2584.594536
536.191270	2585.454053
536.551947	2583.687128
536.912567	2585.108733
537.273131	2588.045206
537.633638	2585.466655
537.994089	2594.684405
538.354483	2591.967223
538.714821	2594.346648
539.075103	2597.595672
539.435328	2596.579879
539.795497	2597.144488
540.155609	2600.461567
540.515665	2599.652462
540.875665	2601.593307
541.235609	2602.341918
541.595496	2601.613471
541.955328	2606.024481
542.315102	2606.289141
542.674821	2604.539861
543.034483	2609.636467
543.394090	2608.403905
543.753640	2608.822321
544.113134	2611.620162
544.472571	2612.454472
544.831953	2615.219545
545.191278	2614.629730
545.550548	2613.293825
545.909761	2616.426902
546.268918	2615.562344
546.628019	2618.266923
546.987064	2620.011162
547.346053	2618.934876
547.704986	2620.890843
548.063863	2618.337499
548.422684	2620.369084
548.781449	2622.758591
549.140158	2621.858745
549.498811	2625.760598
549.857408	2621.349588
550.215949	2625.095166
550.574434	2624.719600
550.932864	2626.584827
551.291237	2628.450054
551.649555	2626.050464
552.007817	2629.806124
552.366022	2627.230094
552.724173	2628.518109
553.082267	2631.981382
553.440305	2629.236474
553.798288	2629.705301
554.156215	2632.833337
554.514086	2630.078346
554.871902	2626.814199
555.229661	2628.462657
555.587365	2627.532564
555.945014	2634.496918
556.302606	2633.823924
556.660143	2631.726804
557.017625	2634.449027
557.375050	2633.778553
557.732421	2635.447175
558.089735	2636.533544
558.446994	2636.646970
558.804197	2638.184522
559.161345	2638.340798
559.518437	2631.845271
559.875474	2633.856691
560.232455	2637.259470
560.589381	2640.115284
560.946251	2638.713843
561.303065	2638.711322
561.659825	2638.204686
562.016528	2637.637557
562.373177	2638.020684
562.729770	2639.979172
563.086307	2639.139820
563.442789	2639.684265
563.799216	2641.524286
564.155587	2640.785757
564.511904	2638.207207
564.868164	2640.281642
565.224370	2638.978503
565.580520	2639.351549
565.936615	2640.992444
566.292654	2639.608648
566.648638	2642.668628
567.004567	2640.967239
567.360441	2640.473206
567.716260	2642.388844
568.072023	2641.078144
568.427732	2641.673000
568.783385	2642.409009
569.138982	2645.491674
569.494525	2641.761220
569.850013	2641.839358
570.205445	2642.966056
570.560823	2641.857002
570.916145	2643.228196
571.271412	2643.404637
571.626625	2641.965387
571.981782	2639.762403
572.336884	2639.346508
572.691931	2633.798718
573.046923	2639.883391
573.401860	2636.392392
573.756743	2642.587970
574.111570	2640.823566
574.466342	2643.303813
574.821059	2640.984883
575.175722	2642.862712
575.530330	2641.073103
575.884882	2640.909265
576.239380	2640.269039
576.593823	2641.438587
576.948211	2640.064872
577.302544	2641.370531
577.656823	2640.692496
578.011047	2644.690131
578.365216	2639.386837
578.719330	2641.173926
579.073389	2641.725932
579.427394	2640.584111
579.781344	2641.420942
580.135239	2639.432207
580.489080	2641.443628
580.842866	2642.013278
581.196597	2647.629123
581.550273	2641.622589
581.903895	2643.795326
582.257463	2642.482105
582.610975	2643.732312
582.964434	2646.058804
583.317837	2644.617034
583.671186	2645.446304
584.024481	2643.492857
584.377721	2645.388331
584.730906	2646.941006
585.084037	2649.774134
585.437113	2645.673156
585.790135	2649.466624
586.143103	2649.088537
586.496016	2649.829587
586.848874	2652.080462
587.201679	2653.207160
587.554428	2653.008035
587.907124	2657.353509
588.259765	2655.999959
588.612352	2658.213026
588.964884	2658.230670
589.317362	2659.543891
589.669786	2661.303253
590.022155	2659.773263
590.374470	2661.146977
590.726731	2663.599499
591.078937	2659.765701
591.431090	2665.353820
591.783188	2667.697957
592.135232	2668.983451
592.487222	2670.735252
592.839157	2673.495284
593.191038	2675.710871
593.542866	2677.366890
593.894639	2675.380675
594.246358	2677.807991
594.598022	2682.894515
594.949633	2684.711851
595.301190	2683.680935
595.652692	2685.891481
596.004141	2690.171421
596.355535	2689.211081
596.706876	2694.128727
597.058162	2691.154446
597.409395	2696.447657
597.760573	2701.095601
598.111698	2699.492514
598.462768	2703.220447
598.813785	2707.344111
599.164748	2708.090202
599.515657	2714.691593
599.866511	2713.953064
600.217312	2719.422716
600.568060	2722.046637
600.918753	2730.079715
601.269392	2733.532906
601.619978	2738.037177
601.970510	2739.872157
602.320988	2744.734349
602.671412	2752.101996
603.021783	2751.824732
603.372100	2758.234559
603.722363	2760.944180
604.072572	2767.815272
604.422728	2770.739142
604.772830	2774.081427
605.122878	2783.263888
605.472872	2787.042233
605.822813	2792.905095
606.172701	2798.876342
606.522534	2805.374389
606.872314	2816.142294
607.222041	2819.534990
607.571714	2828.520847
607.921333	2828.848522
608.270899	2841.708505
608.620411	2846.326202
608.969870	2857.522605
609.319276	2867.625077
609.668627	2875.385934
610.017926	2889.276833
610.367171	2897.004922
610.716362	2905.620254
611.065500	2915.062335
611.414585	2926.157915
611.763616	2939.622837
612.112594	2946.219186
612.461518	2961.193934
612.810389	2974.248002
613.159207	2982.981801
613.507971	2995.791373
613.856682	3012.805267
614.205340	3025.203985
614.553945	3045.166954
614.902496	3050.029147
615.250994	3070.176118
615.599439	3085.632296
615.947830	3102.409256
616.296169	3118.306535
616.644454	3137.392343
616.992686	3154.179385
617.340864	3183.183664
617.688990	3194.362423
618.037063	3225.642782
618.385082	3241.091398
618.733048	3268.865635
619.080961	3285.198974
619.428821	3308.111018
619.776628	3327.269923
620.124382	3344.830783
620.472083	3362.890716
620.819731	3377.505021
621.167326	3390.075138
621.514868	3403.416552
621.862357	3405.352355
622.209793	3424.276847
622.557176	3433.040893
622.904506	3442.508180
623.251783	3452.429170
623.599007	3459.978298
623.946179	3474.910196
624.293297	3487.850838
624.640363	3490.326044
624.987376	3507.516379
625.334336	3518.891743
625.681243	3529.619318
626.028097	3544.233623
626.374899	3569.091553
626.721647	3587.456476
627.068343	3602.421141
627.414987	3622.263123
627.761577	3640.872542
628.108115	3671.464784
628.454600	3676.755475
628.801032	3705.767316
629.147412	3728.790265
629.493739	3751.258688
629.840014	3764.186727
630.186236	3806.628201
630.532405	3815.364521
630.878521	3850.884491
631.224585	3877.537071
631.570597	3896.249834
631.916556	3931.064043
632.262462	3957.784679
632.608316	3983.973473
632.954117	4011.515817
633.299866	4035.884755
633.645562	4058.433836
633.991206	4065.514137
634.336797	4067.666709
634.682336	4084.521807
635.027823	4097.326338
635.373257	4115.492136
635.718639	4123.789875
636.063968	4143.468019
636.409245	4138.867966
636.754470	4158.662057
637.099642	4171.670754
637.444762	4171.138913
637.789829	4203.694684
638.134845	4211.422773
638.479808	4230.969847
638.824719	4260.137963
639.169577	4259.069238
639.514383	4299.085918
639.859137	4302.365188
640.203839	4335.772915
640.548489	4349.381510
640.893086	4379.883011
641.237632	4392.561513
641.582125	4428.998973
641.926566	4444.223258
642.270955	4475.561590
642.615292	4496.303418
642.959576	4524.077655
643.303809	4553.943971
643.647990	4602.452474
643.992118	4627.527173
644.336195	4650.471985
