Dividing Wavelength (nm)	Counts (n)	Blue Motor Position (mm): 11.000000	Red Motor Position (mm): 0.000000	
326.493990	2066.860474
326.888308	2066.860474
327.282561	2066.860474
327.676750	2042.035312
328.070874	2042.957843
328.464933	2046.794161
328.858929	2058.194731
329.252859	2069.653273
329.646726	2078.641651
330.040528	2097.470360
330.434265	2111.633482
330.827938	2135.964611
331.221547	2156.945893
331.615091	2175.693944
332.008571	2195.770340
332.401986	2216.272712
332.795338	2236.160064
333.188625	2258.129413
333.581847	2274.228338
333.975006	2289.601336
334.368100	2309.148410
334.761129	2325.577531
335.154095	2343.675273
335.546996	2378.897815
335.939833	2440.911569
336.332606	2449.363063
336.725315	2464.136165
337.117960	2473.636219
337.510540	2482.402786
337.903056	2493.261431
338.295508	2495.701349
338.687896	2506.078565
339.080220	2509.206601
339.472480	2515.525687
339.864676	2518.126922
340.256807	2523.508354
340.648875	2524.204033
341.040879	2524.456091
341.432818	2528.962883
341.824694	2528.340300
342.216506	2528.478932
342.608253	2525.683612
342.999937	2523.916687
343.391557	2523.868797
343.783113	2522.308559
344.174605	2518.444515
344.566033	2519.510719
344.957397	2518.348733
345.348697	2517.332941
345.739934	2515.099709
346.131106	2514.900584
346.522215	2509.877074
346.913260	2508.654594
347.304241	2510.179543
347.695159	2504.742659
348.086012	2505.708040
348.476802	2499.842657
348.867528	2502.327946
349.258191	2494.002481
349.648789	2496.775115
350.039324	2494.645228
350.429796	2496.845691
350.820203	2492.598519
351.210548	2494.410814
351.600828	2492.449805
351.991045	2494.506596
352.381198	2492.122130
352.771288	2493.735299
353.161314	2491.718838
353.551276	2491.068529
353.941175	2493.987357
354.331010	2492.437202
354.720782	2494.912409
355.110490	2498.849550
355.500135	2494.647748
355.889717	2497.178408
356.279235	2493.074908
356.668689	2496.467605
357.058080	2493.518530
357.447408	2495.839981
357.836672	2496.419714
358.225873	2496.225629
358.615010	2494.574652
359.004084	2497.367451
359.393095	2495.776967
359.782043	2495.797131
360.170927	2498.592451
360.559748	2497.833758
360.948505	2499.968686
361.337199	2501.561691
361.725830	2498.763850
362.114398	2502.857267
362.502903	2500.976917
362.891344	2500.994561
363.279722	2504.523369
363.668037	2501.256701
364.056289	2502.063286
364.444478	2502.053203
364.832603	2505.173678
365.220665	2504.485560
365.608665	2505.171157
365.996601	2503.252998
366.384474	2504.604027
366.772284	2501.869201
367.160031	2504.006650
367.547715	2506.285252
367.935336	2505.458503
368.322893	2504.220899
368.710388	2500.351814
369.097820	2503.154695
369.485189	2500.878614
369.872495	2506.577639
370.259738	2504.931702
370.646918	2505.518997
371.034035	2507.263236
371.421090	2505.430776
371.808081	2508.495798
372.195010	2507.961436
372.581875	2508.715088
372.968678	2510.298010
373.355418	2509.390603
373.742096	2505.768534
374.128710	2508.142917
374.515262	2508.069820
374.901751	2509.509070
375.288177	2510.645850
375.674540	2508.420181
376.060841	2510.088802
376.447079	2509.163751
376.833254	2511.172651
377.219367	2511.054183
377.605417	2510.403875
377.991404	2511.316323
378.377329	2508.921775
378.763191	2512.765655
379.148991	2512.574091
379.534727	2515.071983
379.920402	2511.593587
380.306013	2513.113495
380.691563	2511.525531
381.077049	2511.974194
381.462474	2511.646519
381.847835	2513.975532
382.233134	2516.622138
382.618371	2512.180881
383.003545	2513.171468
383.388657	2514.986283
383.773706	2512.599297
384.158693	2514.479647
384.543618	2514.255316
384.928480	2518.449556
385.313280	2513.589884
385.698017	2513.617610
386.082692	2515.893691
386.467305	2514.439318
386.851856	2516.791017
387.236344	2514.192302
387.620770	2514.393948
388.005133	2509.541837
388.389435	2514.151972
388.773674	2509.693072
389.157851	2520.871831
389.541965	2517.746315
389.926018	2514.376304
390.310008	2515.898732
390.693936	2518.066428
391.077802	2518.157169
391.461606	2516.848990
391.845348	2518.870492
392.229027	2520.193795
392.612645	2517.106089
392.996200	2517.753877
393.379694	2516.178516
393.763125	2515.417302
394.146494	2518.341171
394.529801	2518.983918
394.913047	2520.423168
395.296230	2517.191788
395.679351	2516.919566
396.062410	2520.082890
396.445408	2521.328055
396.828343	2519.397293
397.211217	2517.907632
397.594028	2521.673374
397.976778	2518.384021
398.359466	2521.943076
398.742092	2520.871831
399.124656	2520.715555
399.507158	2520.818898
399.889598	2522.429547
400.271977	2520.549197
400.654294	2522.900895
401.036549	2518.963754
401.418742	2521.955679
401.800874	2522.167407
402.182944	2522.235463
402.564952	2523.014321
402.946898	2523.725124
403.328783	2523.208405
403.710606	2524.821575
404.092367	2526.452388
404.474067	2525.736544
404.855705	2522.968951
405.237282	2522.202695
405.618797	2525.348375
406.000250	2526.296112
406.381642	2523.959537
406.762972	2525.681091
407.144240	2523.747809
407.525447	2521.885102
407.906593	2520.496265
408.287677	2526.802748
408.668700	2525.628159
409.049661	2527.195958
409.430560	2525.615556
409.811399	2526.238139
410.192176	2526.316277
410.572891	2525.809641
410.953545	2525.532377
411.334138	2527.906761
411.714669	2525.275278
412.095139	2529.880373
412.475547	2529.812317
412.855894	2527.137985
413.236180	2526.714528
413.616405	2527.498427
413.996568	2526.283509
414.376670	2528.940197
414.756711	2530.450023
415.136691	2528.819210
415.516609	2528.761236
415.896466	2525.877696
416.276262	2526.921215
416.655997	2528.184024
417.035670	2527.153108
417.415283	2531.591844
417.794834	2528.539426
418.174324	2530.487832
418.553753	2531.685106
418.933121	2529.966072
419.312428	2527.246370
419.691674	2527.783253
420.070859	2528.400794
420.449983	2528.529343
420.829045	2526.495238
421.208047	2529.315763
421.586988	2528.325177
421.965867	2529.903058
422.344686	2529.668644
422.723444	2528.257121
423.102141	2528.136133
423.480777	2533.477236
423.859352	2529.764426
424.237866	2530.941535
424.616319	2531.760723
424.994712	2532.158974
425.373044	2530.134951
425.751314	2527.863911
426.129524	2526.941380
426.507673	2527.561442
426.885762	2524.224198
427.263789	2529.923222
427.641756	2530.291227
428.019662	2530.245856
428.397508	2528.438602
428.775292	2531.705270
429.153016	2530.505476
429.530679	2530.253418
429.908282	2528.181504
430.285824	2530.099663
430.663305	2534.132586
431.040726	2529.653521
431.418086	2531.599406
431.795385	2528.468849
432.172624	2530.276103
432.549802	2531.039838
432.926920	2530.591175
433.303977	2531.062523
433.680974	2532.272400
434.057910	2532.519417
434.434786	2531.702750
434.811601	2531.397760
435.188355	2529.706453
435.565050	2531.180990
435.941683	2531.266690
436.318257	2531.155784
436.694770	2529.678726
437.071222	2530.601258
437.447614	2531.367513
437.823946	2533.895652
438.200218	2529.656041
438.576429	2532.053110
438.952580	2531.266690
439.328670	2530.850795
439.704700	2531.180990
440.080670	2531.796011
440.456580	2529.633356
440.832429	2530.921371
441.208218	2532.383305
441.583947	2531.334745
441.959616	2532.617719
442.335224	2533.792308
442.710773	2533.018491
443.086261	2531.770805
443.461689	2532.403470
443.837057	2531.997657
444.212365	2536.431352
444.587612	2529.537574
444.962800	2529.086391
445.337927	2529.933305
445.712995	2527.921884
446.088002	2534.321629
446.462949	2533.202493
446.837837	2533.789787
447.212664	2532.642925
447.587431	2534.742565
447.962139	2530.704601
448.336786	2533.522606
448.711374	2533.777184
449.085901	2533.026052
449.460369	2533.852802
449.834776	2535.511341
450.209124	2534.306506
450.583412	2535.632329
450.957640	2531.410363
451.331808	2531.062523
451.705917	2532.869777
452.079965	2533.192411
452.453954	2536.252391
452.827883	2535.360107
453.201752	2536.272556
453.575562	2536.290200
453.949311	2532.164015
454.323001	2534.190559
454.696632	2536.232226
455.070202	2535.952442
455.443713	2533.809952
455.817164	2535.143337
456.190556	2531.667462
456.563888	2536.655683
456.937160	2534.513193
457.310373	2534.336752
457.683526	2533.862884
458.056619	2536.345652
458.429653	2531.702750
458.802628	2537.474871
459.175542	2533.268028
459.548398	2535.103008
459.921194	2535.720549
460.293930	2536.222144
460.666607	2536.958152
461.039224	2536.219623
461.411782	2534.545960
461.784280	2535.380271
462.156719	2535.796167
462.529099	2535.302133
462.901419	2535.198790
463.273680	2534.311547
463.645882	2531.044879
464.018024	2533.709129
464.390106	2528.622605
464.762130	2535.531506
465.134094	2534.142668
465.505999	2536.287679
465.877845	2537.792463
466.249631	2537.487474
466.621358	2538.062165
466.993026	2535.420601
467.364634	2538.924202
467.736184	2535.597041
468.107674	2538.629295
468.479105	2535.347504
468.850477	2534.772812
469.221790	2535.095446
469.593043	2533.227699
469.964238	2535.317257
470.335373	2536.713657
470.706449	2535.791125
471.077467	2537.253060
471.448425	2536.529654
471.819324	2539.201466
472.190164	2537.270704
472.560945	2539.559388
472.931667	2537.076620
473.302330	2536.809438
473.672934	2535.430683
474.043479	2534.729962
474.413965	2537.492515
474.784393	2536.824562
475.154761	2537.169881
475.525070	2540.126518
475.895321	2535.695343
476.265513	2539.791281
476.635645	2538.218441
477.005719	2537.835313
477.375734	2539.158616
477.745691	2537.336239
478.115588	2537.323636
478.485427	2537.207690
478.855207	2539.685417
479.224928	2539.919830
479.594591	2539.801363
479.964194	2541.016281
480.333739	2540.991076
480.703226	2537.827752
481.072653	2542.417722
481.442022	2540.829759
481.811333	2536.597710
482.180584	2537.316074
482.549777	2537.487474
482.918912	2534.603934
483.287988	2541.245654
483.657005	2542.478216
484.025964	2541.543082
484.394864	2540.292876
484.763706	2540.602907
485.132489	2540.970911
485.501213	2539.801363
485.869879	2542.016950
486.238487	2539.705581
486.607036	2540.872608
486.975527	2541.200283
487.343959	2543.297403
487.712333	2541.449821
488.080648	2541.890922
488.448905	2543.672969
488.817104	2540.129038
489.185244	2541.870757
489.553326	2540.181970
489.921350	2541.180119
490.289315	2545.823022
490.657222	2542.460572
491.025070	2544.020809
491.392861	2544.605583
491.760593	2544.078782
492.128267	2545.880995
492.495883	2542.148020
492.863440	2541.941333
493.230939	2542.528627
493.598380	2544.721529
493.965763	2544.030891
494.333088	2543.554502
494.700354	2542.775644
495.067563	2543.977959
495.434713	2542.795809
495.801805	2546.092723
496.168839	2541.422094
496.535815	2542.115253
496.902733	2543.443597
497.269593	2543.766231
497.636395	2544.136756
498.003139	2544.177085
498.369825	2545.278577
498.736453	2546.559030
499.103023	2545.074410
499.469535	2544.101467
499.835989	2542.359749
500.202385	2542.838658
500.568723	2537.210210
500.935003	2542.057280
501.301226	2538.311702
501.667390	2543.501570
502.033497	2544.529966
502.399546	2547.468958
502.765537	2541.517876
503.131470	2546.581715
503.497345	2543.254554
503.863163	2543.856972
504.228923	2544.396375
504.594625	2545.076931
504.960269	2545.427291
505.325856	2545.671787
505.691385	2545.076931
506.056856	2543.304965
506.422270	2546.795964
506.787625	2547.453835
507.152924	2546.901828
507.518164	2547.373176
507.883347	2545.969215
508.248472	2548.895605
508.613540	2549.563558
508.978550	2549.392158
509.343503	2546.957281
509.708398	2548.756973
510.073236	2548.507436
510.438016	2550.775955
510.802738	2550.165976
511.167403	2551.620348
511.532010	2553.021789
511.896561	2554.806358
512.261053	2550.831408
512.625488	2552.484906
512.989866	2551.753939
513.354186	2554.282078
513.718449	2554.524053
514.082655	2557.604198
514.446803	2554.140925
514.810894	2555.922973
515.174927	2556.064126
515.538904	2558.226781
515.902822	2556.689229
516.266684	2561.770712
516.630488	2560.228119
516.994235	2558.899775
517.357925	2560.021431
517.721558	2564.666855
518.085133	2566.882442
518.448651	2560.646534
518.812112	2560.167625
519.175516	2563.247770
519.538863	2561.725341
519.902152	2566.443861
520.265385	2566.953018
520.628560	2569.937381
520.991678	2569.639953
521.354739	2572.614234
521.717743	2572.392423
522.080690	2573.118349
522.443580	2574.940726
522.806413	2576.153124
523.169189	2576.889132
523.531908	2578.265367
523.894569	2577.476427
524.257174	2580.934658
524.619722	2581.549679
524.982213	2580.861561
525.344647	2583.591346
525.707025	2585.534711
526.069345	2586.164855
526.431608	2586.061512
526.793815	2585.514546
527.155964	2591.188365
527.518057	2589.212233
527.880093	2589.343303
528.242072	2592.277254
528.603995	2594.656679
528.965860	2595.241453
529.327669	2593.340938
529.689421	2597.867894
530.051117	2596.789087
530.412755	2598.520723
530.774337	2601.295878
531.135862	2599.526433
531.497331	2600.839654
531.858743	2601.368975
532.220098	2607.846858
532.581396	2607.519183
532.942638	2607.015067
533.303824	2609.039091
533.664953	2611.668052
534.026025	2609.795264
534.387040	2614.317179
534.747999	2614.070162
535.108902	2616.517642
535.469748	2616.772221
535.830537	2617.793054
536.191270	2621.989815
536.551947	2618.758435
536.912567	2616.535287
537.273131	2622.090638
537.633638	2618.662653
537.994089	2624.948972
538.354483	2627.764457
538.714821	2627.182203
539.075103	2630.549694
539.435328	2633.836527
539.795497	2636.828451
540.155609	2632.931639
540.515665	2636.372227
540.875665	2639.139820
541.235609	2639.868267
541.595496	2641.977990
541.955328	2640.417753
542.315102	2641.282311
542.674821	2643.563433
543.034483	2642.630819
543.394090	2644.891777
543.753640	2646.709113
544.113134	2650.268167
544.472571	2649.499392
544.831953	2651.170534
545.191278	2651.062149
545.550548	2651.218425
545.909761	2652.473672
546.268918	2655.657161
546.628019	2656.869558
546.987064	2653.865031
547.346053	2654.149856
547.704986	2658.712100
548.063863	2658.611277
548.422684	2656.884682
548.781449	2655.248827
549.140158	2658.210505
549.498811	2659.858963
549.857408	2656.932573
550.215949	2658.858294
550.574434	2663.118069
550.932864	2663.080260
551.291237	2666.946825
551.649555	2665.288285
552.007817	2665.363903
552.366022	2663.927174
552.724173	2665.379026
553.082267	2668.537309
553.440305	2669.164933
553.798288	2667.932371
554.156215	2666.157884
554.514086	2670.228616
554.871902	2665.313491
555.229661	2668.842299
555.587365	2663.107986
555.945014	2669.772392
556.302606	2669.802639
556.660143	2670.556291
557.017625	2672.202228
557.375050	2671.725839
557.732421	2673.737259
558.089735	2673.099553
558.446994	2675.499142
558.804197	2677.233299
559.161345	2672.746672
559.518437	2669.837927
559.875474	2674.004440
560.232455	2673.954029
560.589381	2674.942095
560.946251	2674.959739
561.303065	2674.165757
561.659825	2673.301199
562.016528	2672.794563
562.373177	2676.182219
562.729770	2676.880419
563.086307	2675.978052
563.442789	2676.880419
563.799216	2677.243382
564.155587	2675.988134
564.511904	2673.971673
564.868164	2679.020388
565.224370	2678.019719
565.580520	2676.701458
565.936615	2680.210101
566.292654	2679.975687
566.648638	2680.081551
567.004567	2681.450225
567.360441	2680.537776
567.716260	2680.192457
568.072023	2682.501305
568.427732	2681.377128
568.783385	2681.362004
569.138982	2684.958868
569.494525	2687.043385
569.850013	2683.514577
570.205445	2683.784279
570.560823	2683.592715
570.916145	2685.344516
571.271412	2684.321162
571.626625	2686.748477
571.981782	2685.014320
572.336884	2686.854342
572.691931	2686.186389
573.046923	2687.640762
573.401860	2685.223528
573.756743	2689.092614
574.111570	2690.302491
574.466342	2692.432378
574.821059	2693.876669
575.175722	2694.282482
575.530330	2695.399097
575.884882	2696.939170
576.239380	2693.218798
576.593823	2698.045703
576.948211	2700.740200
577.302544	2698.529654
577.656823	2696.220805
578.011047	2701.892103
578.365216	2701.304809
578.719330	2701.846733
579.073389	2705.388144
579.427394	2706.701364
579.781344	2709.622713
580.135239	2711.568598
580.489080	2713.353167
580.842866	2715.125132
581.196597	2722.391956
581.550273	2722.225597
581.903895	2722.984291
582.257463	2727.430589
582.610975	2730.510734
582.964434	2733.754716
583.317837	2734.873852
583.671186	2739.209245
584.024481	2743.905080
584.377721	2745.230903
584.730906	2748.820205
585.084037	2753.400093
585.437113	2755.494692
585.790135	2761.511309
586.143103	2759.898140
586.496016	2767.336363
586.848874	2771.376847
587.201679	2775.404729
587.554428	2774.976231
587.907124	2784.309928
588.259765	2789.903088
588.612352	2798.236115
588.964884	2801.414563
589.317362	2806.531334
589.669786	2812.353867
590.022155	2817.009372
590.374470	2827.132009
590.726731	2830.247442
591.078937	2830.237360
591.431090	2843.218331
591.783188	2844.604648
592.135232	2852.897346
592.487222	2861.457226
592.839157	2871.836961
593.191038	2873.987013
593.542866	2884.606204
593.894639	2885.727861
594.246358	2897.418297
594.598022	2904.203690
594.949633	2912.456058
595.301190	2918.618869
595.652692	2928.141609
596.004141	2940.696602
596.355535	2941.604010
596.706876	2948.948971
597.058162	2954.688325
597.409395	2969.166519
597.760573	2980.993066
598.111698	2989.573109
598.462768	2995.632576
598.813785	3009.215965
599.164748	3015.487161
599.515657	3031.160108
599.866511	3035.082126
600.217312	3056.859910
600.568060	3054.919066
600.918753	3081.967377
601.269392	3097.254676
601.619978	3101.643001
601.970510	3120.428860
602.320988	3138.897127
602.671412	3155.469921
603.021783	3166.941066
603.372100	3172.733352
603.722363	3192.396373
604.072572	3204.850543
604.422728	3225.766291
604.772830	3236.201479
605.122878	3257.999428
605.472872	3269.931839
605.822813	3293.950417
606.172701	3306.729742
606.522534	3332.074143
606.872314	3353.277236
607.222041	3368.435986
607.571714	3397.964544
607.921333	3406.413518
608.270899	3432.093156
608.620411	3457.145170
608.969870	3477.781133
609.319276	3503.715349
609.668627	3526.975233
610.017926	3558.926066
610.367171	3588.542845
610.716362	3615.271042
611.065500	3635.498672
611.414585	3667.953621
611.763616	3702.702294
612.112594	3725.826067
612.461518	3757.250099
612.810389	3796.240904
613.159207	3817.867454
613.507971	3845.566074
613.856682	3892.045512
614.205340	3918.332609
614.553945	3977.301506
614.902496	3983.890294
615.250994	4027.793703
615.599439	4062.481883
615.947830	4107.706074
616.296169	4139.425014
616.644454	4183.900593
616.992686	4229.495309
617.340864	4283.770892
617.688990	4309.296775
618.037063	4377.833782
618.385082	4415.667642
618.733048	4475.362465
619.080961	4511.779760
619.428821	4557.003951
619.776628	4599.296712
620.124382	4629.964571
620.472083	4673.184903
620.819731	4710.706212
621.167326	4721.892532
621.514868	4757.919138
621.862357	4762.861989
622.209793	4800.393380
622.557176	4814.140606
622.904506	4835.714224
623.251783	4846.207386
623.599007	4866.235890
623.946179	4896.084562
624.293297	4917.159106
624.640363	4921.461730
624.987376	4951.035659
625.334336	4972.959637
625.681243	4988.345239
626.028097	5019.537378
626.374899	5054.966608
626.721647	5095.983956
627.068343	5125.888081
627.414987	5148.709384
627.761577	5177.345658
628.108115	5239.041820
628.454600	5234.315738
628.801032	5296.556344
629.147412	5335.010266
629.493739	5376.410742
629.840014	5390.803236
630.186236	5477.342203
630.532405	5480.634077
630.878521	5548.949273
631.224585	5589.071817
631.570597	5610.524447
631.916556	5677.591957
632.262462	5722.032249
632.608316	5772.138798
632.954117	5807.323531
633.299866	5851.022773
633.645562	5888.382764
633.991206	5888.372682
634.336797	5891.430142
634.682336	5924.754689
635.027823	5945.040293
635.373257	5971.733202
635.718639	5981.177804
636.063968	6010.933214
636.409245	5994.352859
636.754470	6029.401482
637.099642	6047.277413
637.444762	6036.239807
637.789829	6093.645946
638.134845	6100.948057
638.479808	6138.386187
638.824719	6176.857752
639.169577	6169.348953
639.514383	6227.496143
639.859137	6234.163068
640.203839	6292.867305
640.548489	6312.278268
640.893086	6363.844231
641.237632	6372.925869
641.582125	6436.265447
641.926566	6459.686648
642.270955	6512.323855
642.615292	6551.483538
642.959576	6586.108704
643.303809	6644.797817
643.647990	6712.397169
643.992118	6756.451813
644.336195	6788.715197
