Dividing Wavelength (nm)	Counts (n)	Blue Motor Position (mm): 0.000000	Red Motor Position (mm): 33.000000	
326.493990	2052.420089
326.888308	2052.420089
327.282561	2052.420089
327.676750	2026.377488
328.070874	2029.623991
328.464933	2035.645649
328.858929	2043.565302
329.252859	2055.064174
329.646726	2067.319219
330.040528	2086.944431
330.434265	2098.211410
330.827938	2122.318208
331.221547	2139.768162
331.615091	2161.906389
332.008571	2180.435150
332.401986	2203.238809
332.795338	2221.071891
333.188625	2241.589387
333.581847	2260.652510
333.975006	2278.304110
334.368100	2295.194496
334.761129	2311.558082
335.154095	2327.203303
335.546996	2347.327589
335.939833	2379.598535
336.332606	2394.432130
336.725315	2404.625343
337.117960	2417.689494
337.510540	2424.908426
337.903056	2432.928902
338.295508	2440.321754
338.687896	2448.150666
339.080220	2456.866821
339.472480	2456.387911
339.864676	2460.947635
340.256807	2464.907461
340.648875	2466.069447
341.040879	2468.443831
341.432818	2468.549695
341.824694	2471.012298
342.216506	2470.891311
342.608253	2469.459623
342.999937	2470.545992
343.391557	2468.738738
343.783113	2467.962400
344.174605	2467.193624
344.566033	2465.678758
344.957397	2465.724128
345.348697	2459.841102
345.739934	2461.111472
346.131106	2458.653910
346.522215	2460.498972
346.913260	2452.730554
347.304241	2454.762139
347.695159	2454.948662
348.086012	2450.746860
348.476802	2449.852055
348.867528	2445.685542
349.258191	2443.106991
349.648789	2444.062290
350.039324	2438.761517
350.429796	2444.826025
350.820203	2442.260077
351.210548	2444.205963
351.600828	2441.201435
351.991045	2440.891404
352.381198	2441.521548
352.771288	2443.215376
353.161314	2439.873091
353.551276	2441.924841
353.941175	2441.387958
354.331010	2439.898297
354.720782	2442.008020
355.110490	2442.239913
355.500135	2440.294027
355.889717	2440.674635
356.279235	2440.825869
356.668689	2442.623041
357.058080	2442.897783
357.447408	2446.172013
357.836672	2445.627568
358.225873	2445.950202
358.615010	2444.785696
359.004084	2446.658484
359.393095	2447.815429
359.782043	2447.046653
360.170927	2447.333999
360.559748	2446.408947
360.948505	2449.075718
361.337199	2450.739298
361.725830	2451.477827
362.114398	2453.060750
362.502903	2452.549073
362.891344	2455.999742
363.279722	2450.240224
363.668037	2453.549742
364.056289	2455.125102
364.444478	2456.864300
364.832603	2456.526543
365.220665	2455.823302
365.608665	2452.707869
365.996601	2454.499999
366.384474	2455.727520
366.772284	2453.295163
367.160031	2458.016204
367.547715	2458.543004
367.935336	2455.445215
368.322893	2455.588888
368.710388	2455.188117
369.097820	2458.046451
369.485189	2452.569237
369.872495	2459.203396
370.259738	2461.189610
370.646918	2462.122224
371.034035	2463.894189
371.421090	2461.166925
371.808081	2465.640949
372.195010	2466.029118
372.581875	2466.971814
372.968678	2468.385857
373.355418	2471.014819
373.742096	2473.016157
374.128710	2475.597228
374.515262	2479.516725
374.901751	2479.642754
375.288177	2483.658033
375.674540	2486.909577
376.060841	2492.122130
376.447079	2493.815958
376.833254	2501.065137
377.219367	2501.997751
377.605417	2512.415295
377.991404	2513.635254
378.377329	2524.425844
378.763191	2526.986750
379.148991	2536.542257
379.534727	2547.020296
379.920402	2555.081101
380.306013	2566.118707
380.691563	2579.218145
381.077049	2587.450349
381.462474	2599.191197
381.847835	2610.385079
382.233134	2625.553911
382.618371	2636.853657
383.003545	2652.188847
383.388657	2667.725683
383.773706	2684.364012
384.158693	2700.503266
384.543618	2715.006665
384.928480	2733.298492
385.313280	2754.728437
385.698017	2773.088319
386.082692	2797.363996
386.467305	2812.648774
386.851856	2834.131651
387.236344	2863.130889
387.620770	2878.841645
388.005133	2898.108935
388.389435	2931.204110
388.773674	2948.938889
389.157851	2979.392499
389.541965	3006.992817
389.926018	3016.986904
390.310008	3051.513767
390.693936	3076.538054
391.077802	3104.544185
391.461606	3136.668937
391.845348	3152.740136
392.229027	3183.259281
392.612645	3224.473235
392.996200	3252.083634
393.379694	3287.734674
393.763125	3333.727641
394.146494	3357.496682
394.529801	3393.288874
394.913047	3438.568518
395.296230	3444.585135
395.679351	3467.950883
396.062410	3519.504243
396.445408	3496.781242
396.828343	3538.600134
397.211217	3571.672623
397.594028	3548.997513
397.976778	3600.437447
398.359466	3629.411479
398.742092	3635.062612
399.124656	3656.356446
399.507158	3712.494736
399.889598	3715.859706
400.271977	3779.907565
400.654294	3769.207716
401.036549	3833.537881
401.418742	3830.487982
401.800874	3898.992222
402.182944	3924.253444
402.564952	4009.181763
402.946898	4006.827544
403.328783	4001.022655
403.710606	4049.833628
404.092367	4121.942292
404.474067	4183.880429
404.855705	4170.899458
405.237282	4140.070281
405.618797	4238.115683
406.000250	4316.437569
406.381642	4398.106782
406.762972	4397.466556
407.144240	4365.792986
407.525447	4429.815640
407.906593	4446.937919
408.287677	4531.344478
408.668700	4559.826998
409.049661	4599.468111
409.430560	4629.031957
409.811399	4614.190801
410.192176	4665.587885
410.572891	4746.453033
410.953545	4851.571173
411.334138	4750.349845
411.714669	4857.764231
412.095139	4772.278865
412.475547	4883.053179
412.855894	4886.758427
413.236180	4987.563860
413.616405	4918.643725
413.996568	5022.887225
414.376670	5023.212380
414.756711	5018.876987
415.136691	5088.535651
415.516609	5177.902706
415.896466	5208.212643
416.276262	5289.276918
416.655997	5404.061470
417.035670	5492.649667
417.415283	5636.176358
417.794834	5711.082863
418.174324	5666.831615
418.553753	5671.953427
418.933121	5836.085834
419.312428	5848.839954
419.691674	5775.710455
420.070859	6000.326627
420.449983	5875.137133
420.829045	6070.880095
421.208047	5998.748746
421.586988	6155.332025
421.965867	6227.705350
422.344686	6312.489996
422.723444	6475.667105
423.102141	6097.875474
423.480777	6491.052707
423.859352	6301.419622
424.237866	6672.188926
424.616319	6663.127452
424.994712	6825.366906
425.373044	6741.802220
425.751314	7059.100004
426.129524	6776.918897
426.507673	7043.414454
426.885762	7088.154695
427.263789	7125.497042
427.641756	7208.807150
428.019662	7290.148688
428.397508	7336.794485
428.775292	7311.329096
429.153016	7491.099163
429.530679	7414.287102
429.908282	7473.392110
430.285824	7409.608911
430.663305	7697.705812
431.040726	7575.402378
431.418086	7580.065446
431.795385	7717.754481
432.172624	7903.178202
432.549802	7783.561703
432.926920	7921.452384
433.303977	7865.319136
433.680974	7901.983448
434.057910	8113.137218
434.434786	8155.424937
434.811601	8114.463042
435.188355	8454.738406
435.565050	8340.994851
435.941683	8354.016152
436.318257	8683.226183
436.694770	8641.553485
437.071222	8869.723670
437.447614	8642.599524
437.823946	8611.793033
438.200218	8763.103266
438.576429	8641.702199
438.952580	8810.288466
439.328670	8817.772059
439.704700	8889.792503
440.080670	8780.787633
440.456580	9049.551710
440.832429	9028.429275
441.208218	8767.524358
441.583947	8879.932006
441.959616	8997.708483
442.335224	9036.177528
442.710773	9117.907235
443.086261	9296.250655
443.461689	9013.278087
443.837057	9179.875619
444.212365	9400.383250
444.587612	9380.309375
444.962800	9274.372048
445.337927	9404.375844
445.712995	8951.077810
446.088002	9622.728381
446.462949	9683.723822
446.837837	9662.157766
447.212664	9686.143576
447.587431	10512.900369
447.962139	11512.493121
448.336786	12465.165333
448.711374	12253.036100
449.085901	11040.469722
449.460369	10960.517022
449.834776	10736.977137
450.209124	11645.045220
450.583412	11464.012344
450.957640	11792.758589
451.331808	11378.453881
451.705917	10808.392643
452.079965	10687.621720
452.453954	10888.713347
452.827883	10834.089924
453.201752	10804.347117
453.575562	10809.156377
453.949311	11151.876701
454.323001	11217.946063
454.696632	11136.415482
455.070202	11719.170346
455.443713	11779.454984
455.817164	11947.910181
456.190556	12260.479364
456.563888	12136.472020
456.937160	12391.161195
457.310373	11885.503217
457.683526	11898.312789
458.056619	11919.725090
458.429653	11982.389153
458.802628	12118.853188
459.175542	12170.109119
459.548398	12707.700286
459.921194	13296.131489
460.293930	13577.611876
460.666607	14435.896045
461.039224	15230.381891
461.411782	15590.829432
461.784280	15262.927580
462.156719	15211.255753
462.529099	15116.598007
462.901419	14480.384227
463.273680	14074.752824
463.645882	14299.878152
464.018024	14179.631510
464.390106	14534.690057
464.762130	15593.738178
465.134094	17113.792256
465.505999	19395.708353
465.877845	21673.609171
466.249631	22947.838944
466.621358	22501.906036
466.993026	21687.447138
467.364634	20948.943306
467.736184	20146.799947
468.107674	19527.884886
468.479105	19380.002638
468.850477	19117.686198
469.221790	18679.829219
469.593043	18007.694697
469.964238	17620.884442
470.335373	17678.792176
470.706449	18393.360610
471.077467	19233.473940
471.448425	21708.317515
471.819324	23589.804680
472.190164	23528.690772
472.560945	21769.454109
472.931667	20193.039931
473.302330	19850.649802
473.672934	19297.849475
474.043479	19715.501509
474.413965	19502.036370
474.784393	19312.710796
475.154761	19987.897737
475.525070	20107.960377
475.895321	19942.608010
476.265513	20474.235492
476.635645	21065.764484
477.005719	21131.289402
477.375734	21478.423256
477.745691	22122.700362
478.115588	22761.774996
478.485427	23953.082829
478.855207	25752.444557
479.224928	27553.999186
479.594591	29000.734723
479.964194	28640.365319
480.333739	29121.140162
480.703226	29340.843729
481.072653	29774.249369
481.442022	30292.429573
481.811333	30709.814426
482.180584	30275.551790
482.549777	30050.688602
482.918912	29822.609158
483.287988	29751.264228
483.657005	29600.190929
484.025964	29232.582429
484.394864	29427.768344
484.763706	29366.157883
485.132489	28799.726275
485.501213	28877.861639
485.869879	29052.610716
486.238487	28990.415481
486.607036	29252.971376
486.975527	28938.736092
487.343959	29290.028898
487.712333	29629.658994
488.080648	29586.486553
488.448905	30017.507727
488.817104	29901.662012
489.185244	30717.839943
489.553326	31652.989105
489.921350	33528.305897
490.289315	36034.596190
490.657222	36955.819165
491.025070	37532.380971
491.392861	37263.753006
491.760593	36490.881107
492.128267	35481.939535
492.495883	34498.838918
492.863440	33583.282201
493.230939	32599.803497
493.598380	32021.547863
493.965763	31844.744515
494.333088	31322.939721
494.700354	31114.306528
495.067563	31063.781564
495.434713	30928.192169
495.801805	31205.546372
496.168839	31012.288698
496.535815	30834.923262
496.902733	30951.547835
497.269593	30735.927603
497.636395	30864.933250
498.003139	31119.211571
498.369825	30845.129078
498.736453	31218.968444
499.103023	31027.729752
499.469535	31087.049009
499.835989	31159.233291
500.202385	31003.002893
500.568723	31011.557731
500.935003	31279.953803
501.301226	31100.065269
501.667390	31776.275563
502.033497	31940.720522
502.399546	31681.539680
502.765537	31256.167118
503.131470	31679.384586
503.497345	32042.385472
503.863163	30965.186677
504.228923	31663.227688
504.594625	31972.522641
504.960269	31415.185275
505.325856	32005.040604
505.691385	31608.251385
506.056856	31857.581813
506.422270	32256.447988
506.787625	31713.263661
507.152924	32080.073138
507.518164	32174.151151
507.883347	31699.070292
508.248472	31762.419952
508.613540	32333.023115
508.978550	32444.503191
509.343503	32204.907231
509.708398	32461.824595
510.073236	32914.058945
510.438016	32917.013061
510.802738	32520.566641
511.167403	32927.488579
511.532010	33060.789290
511.896561	33431.248562
512.261053	34035.783732
512.625488	33709.205182
512.989866	33518.833569
513.354186	33456.088848
513.718449	33307.158040
514.082655	33997.430633
514.446803	33581.056531
514.810894	34037.517888
515.174927	33897.338523
515.538904	33774.692292
515.902822	34213.970876
516.266684	33788.550423
516.630488	33977.286182
516.994235	33838.046992
517.357925	34216.211669
517.721558	34293.104388
518.085133	34477.925691
518.448651	34493.270964
518.812112	34245.281482
519.175516	34222.830704
519.538863	34455.023729
519.902152	34360.910428
520.265385	34649.430786
520.628560	34503.050802
520.991678	34288.521980
521.354739	34315.877801
521.717743	34456.155468
522.080690	34191.943554
522.443580	34593.458855
522.806413	34421.575674
523.169189	34355.831466
523.531908	34363.090727
523.894569	34061.339861
524.257174	34014.994013
524.619722	34113.775423
524.982213	34040.739186
525.344647	33899.460849
525.707025	33799.106600
526.069345	33952.367759
526.431608	33682.587890
526.793815	33788.850372
527.155964	33235.664396
527.518057	33218.118660
527.880093	32911.435025
528.242072	33193.490103
528.603995	32774.799591
528.965860	32502.937726
529.327669	32459.278813
529.689421	32293.220684
530.051117	32070.298341
530.412755	32039.335574
530.774337	31873.428680
531.135862	31613.519391
531.497331	31515.330317
531.858743	31290.331018
532.220098	31366.875898
532.581396	30946.695725
532.942638	30578.683932
533.303824	30531.108043
533.664953	30345.512923
534.026025	29897.853420
534.387040	30077.855380
534.747999	29891.594828
535.108902	29884.532171
535.469748	29201.420537
535.830537	29174.077318
536.191270	29102.429919
536.551947	28699.374546
536.912567	28652.514500
537.273131	28494.625562
537.633638	28039.994143
537.994089	27921.441328
538.354483	27543.377475
538.714821	27717.297283
539.075103	27669.517227
539.435328	27352.602569
539.795497	26955.435264
540.155609	26812.289180
540.515665	26922.471159
540.875665	26288.082276
541.235609	26214.478910
541.595496	26047.863734
541.955328	26155.474724
542.315102	25601.729180
542.674821	25316.858618
543.034483	25027.758527
543.394090	24807.613859
543.753640	24573.784979
544.113134	24910.889457
544.472571	24199.073493
544.831953	24558.767382
545.191278	23935.567340
545.550548	23548.653741
545.909761	23645.169152
546.268918	23480.099090
546.628019	23461.598056
546.987064	22938.946348
547.346053	22395.182289
547.704986	22595.129574
548.063863	22201.962423
548.422684	22059.121329
548.781449	21636.400415
549.140158	21657.956388
549.498811	21328.408600
549.857408	20826.755819
550.215949	20974.317954
550.574434	20690.637103
550.932864	20464.140582
551.291237	20533.252280
551.649555	20206.015861
552.007817	20048.497447
552.366022	19719.650379
552.724173	19514.790489
553.082267	19465.987079
553.440305	19400.542820
553.798288	18887.066012
554.156215	18827.177105
554.514086	18690.032514
554.871902	18323.134817
555.229661	18165.349222
555.587365	17831.261874
555.945014	17676.687494
556.302606	17470.186709
556.660143	17297.088610
557.017625	17183.387905
557.375050	16866.992487
557.732421	16809.112479
558.089735	16623.620703
558.446994	16378.129113
558.804197	16332.194120
559.161345	16087.486430
559.518437	15693.011100
559.875474	15572.961062
560.232455	15441.800322
560.589381	15267.474701
560.946251	15029.509554
561.303065	15025.721127
561.659825	14753.274488
562.016528	14509.776675
562.373177	14212.046129
562.729770	14206.906673
563.086307	13906.078337
563.442789	13856.286861
563.799216	13653.385460
564.155587	13451.444398
564.511904	13263.530348
564.868164	13108.081328
565.224370	13012.614477
565.580520	12772.335440
565.936615	12647.813899
566.292654	12396.396433
566.648638	12311.924339
567.004567	12142.418061
567.360441	11996.438849
567.716260	11775.994232
568.072023	11710.570138
568.427732	11537.832481
568.783385	11288.101281
569.138982	11228.083824
569.494525	11110.453540
569.850013	10889.048583
570.205445	10765.119378
570.560823	10582.049876
570.916145	10420.765720
571.271412	10320.955915
571.626625	10128.008272
571.981782	9993.046502
572.336884	9803.075660
572.691931	9723.606911
573.046923	9535.455926
573.401860	9380.856340
573.756743	9255.689532
574.111570	9159.385849
574.466342	9023.557000
574.821059	8922.302904
575.175722	8730.439109
575.530330	8614.172458
575.884882	8457.516081
576.239380	8320.235380
576.593823	8222.888178
576.948211	8103.813604
577.302544	7929.482942
577.656823	7822.494534
578.011047	7748.278667
578.365216	7621.292002
578.719330	7484.238152
579.073389	7384.299798
579.427394	7287.683564
579.781344	7184.685229
580.135239	7058.086732
580.489080	6971.900646
580.842866	6831.575087
581.196597	6792.493542
581.550273	6712.172838
581.903895	6613.313290
582.257463	6568.187402
582.610975	6430.878974
582.964434	6378.612291
583.317837	6256.341625
583.671186	6174.160735
584.024481	6114.188648
584.377721	5998.287480
584.730906	5934.496719
585.084037	5871.686463
585.437113	5776.396052
585.790135	5708.771494
586.143103	5599.441470
586.496016	5539.088776
586.848874	5478.683150
587.201679	5416.230816
587.554428	5311.195855
587.907124	5267.345378
588.259765	5191.541548
588.612352	5139.292509
588.964884	5050.167429
589.317362	5007.587323
589.669786	4949.329229
590.022155	4880.260380
590.374470	4851.291389
590.726731	4776.987302
591.078937	4679.057848
591.431090	4647.996778
591.783188	4572.200510
592.135232	4512.470398
592.487222	4474.424810
592.839157	4429.417389
593.191038	4368.306001
593.542866	4314.418587
593.894639	4245.511055
594.246358	4215.886715
594.598022	4170.995240
594.949633	4113.410139
595.301190	4071.676947
595.652692	4031.544321
596.004141	4008.619674
596.355535	3934.116462
596.706876	3897.487438
597.058162	3853.072352
597.409395	3836.739013
597.760573	3811.908810
598.111698	3765.142026
598.462768	3734.592633
598.813785	3703.609702
599.164748	3663.371212
599.515657	3648.630878
599.866511	3603.000874
600.217312	3597.574072
600.568060	3546.015671
600.918753	3545.360321
601.269392	3517.959129
601.619978	3486.033502
601.970510	3474.519507
602.320988	3451.060497
602.671412	3443.776030
603.021783	3418.877771
603.372100	3389.618914
603.722363	3372.345400
604.072572	3356.347299
604.422728	3339.928261
604.772830	3320.086279
605.122878	3306.707057
605.472872	3291.313893
605.822813	3277.493570
606.172701	3259.466404
606.522534	3250.838469
606.872314	3243.407808
607.222041	3226.267885
607.571714	3218.693552
607.921333	3196.192362
608.270899	3186.969571
608.620411	3182.777851
608.969870	3172.912313
609.319276	3160.311949
609.668627	3155.724499
610.017926	3149.670073
610.367171	3142.355359
610.716362	3134.092908
611.065500	3122.939355
611.414585	3120.915332
611.763616	3110.487705
612.112594	3099.669389
612.461518	3096.632094
612.810389	3092.979778
613.159207	3084.165320
613.507971	3077.810946
613.856682	3075.159299
614.205340	3068.232753
614.553945	3071.169226
614.902496	3052.486709
615.250994	3053.726833
615.599439	3046.429763
615.947830	3041.461706
616.296169	3037.887528
616.644454	3028.246321
616.992686	3026.441588
617.340864	3028.737834
617.688990	3017.793489
618.037063	3019.343643
618.385082	3013.425329
618.733048	3014.758714
619.080961	3006.725635
619.428821	3000.068792
619.776628	2996.255159
620.124382	2989.963799
620.472083	2984.927686
620.819731	2983.674959
621.167326	2971.435038
621.514868	2969.103504
621.862357	2957.849128
622.209793	2954.915177
622.557176	2946.703137
622.904506	2937.003957
623.251783	2928.353337
623.599007	2926.273861
623.946179	2918.056780
624.293297	2915.616862
624.640363	2904.004564
624.987376	2898.466857
625.334336	2891.174828
625.681243	2885.390103
626.028097	2877.604041
626.374899	2876.759648
626.721647	2873.936602
627.068343	2868.262783
627.414987	2862.339427
627.761577	2856.438757
628.108115	2858.750126
628.454600	2849.822242
628.801032	2849.343333
629.147412	2844.869309
629.493739	2842.691530
629.840014	2833.128462
630.186236	2833.312464
630.532405	2826.378357
630.878521	2825.138233
631.224585	2824.001452
631.570597	2817.649599
631.916556	2818.955257
632.262462	2814.211532
632.608316	2816.306131
632.954117	2809.422436
633.299866	2807.143834
633.645562	2802.838689
633.991206	2800.197124
634.336797	2791.922070
634.682336	2790.873510
635.027823	2785.426543
635.373257	2781.769186
635.718639	2779.364556
636.063968	2774.630912
636.409245	2769.763678
636.754470	2766.008019
637.099642	2764.319232
637.444762	2756.293715
637.789829	2758.612646
638.134845	2754.284815
638.479808	2749.430184
638.824719	2753.095103
639.169577	2743.776530
639.514383	2743.126221
