Dividing Wavelength (nm)	Counts (n)	Blue Motor Position (mm): 0.000000	Red Motor Position (mm): 13.000000	
326.493990	2053.428320
326.888308	2053.428320
327.282561	2053.428320
327.676750	2028.081398
328.070874	2028.111645
328.464933	2035.232275
328.858929	2044.679397
329.252859	2054.315563
329.646726	2068.319888
330.040528	2085.212795
330.434265	2099.801894
330.827938	2122.900461
331.221547	2143.856537
331.615091	2162.286996
332.008571	2182.103772
332.401986	2201.938191
332.795338	2223.350492
333.188625	2241.428070
333.581847	2257.695873
333.975006	2277.207659
334.368100	2296.111986
334.761129	2310.292752
335.154095	2326.880669
335.546996	2343.466065
335.939833	2358.014835
336.332606	2369.402802
336.725315	2384.052395
337.117960	2389.942983
337.510540	2404.335477
337.903056	2411.617424
338.295508	2419.564803
338.687896	2426.324990
339.080220	2430.103335
339.472480	2435.825045
339.864676	2438.718667
340.256807	2441.153544
340.648875	2447.591098
341.040879	2446.973556
341.432818	2447.888526
341.824694	2447.056735
342.216506	2449.700821
342.608253	2444.387444
342.999937	2443.384255
343.391557	2445.380552
343.783113	2445.113371
344.174605	2442.048349
344.566033	2440.919131
344.957397	2440.120108
345.348697	2438.103646
345.739934	2437.798656
346.131106	2436.316557
346.522215	2434.055600
346.913260	2429.705084
347.304241	2428.812800
347.695159	2428.177614
348.086012	2427.287851
348.476802	2427.660896
348.867528	2422.188723
349.258191	2420.041192
349.648789	2418.687642
350.039324	2418.160842
350.429796	2422.103024
350.820203	2420.051274
351.210548	2416.156983
351.600828	2419.584968
351.991045	2415.867117
352.381198	2415.615059
352.771288	2418.549010
353.161314	2416.971129
353.551276	2418.002045
353.941175	2415.975501
354.331010	2416.149421
354.720782	2416.343506
355.110490	2416.658578
355.500135	2415.073135
355.889717	2419.267375
356.279235	2416.507343
356.668689	2418.395255
357.058080	2418.173444
357.447408	2419.048085
357.836672	2416.963568
358.225873	2418.312076
358.615010	2423.065884
359.004084	2422.909608
359.393095	2421.823240
359.782043	2421.803075
360.170927	2423.426327
360.559748	2424.341296
360.948505	2424.701739
361.337199	2423.431368
361.725830	2425.410021
362.114398	2426.067891
362.502903	2426.466143
362.891344	2427.451688
363.279722	2425.510844
363.668037	2428.961514
364.056289	2423.698549
364.444478	2428.409507
364.832603	2428.434713
365.220665	2428.706935
365.608665	2427.804569
365.996601	2429.226174
366.384474	2427.789445
366.772284	2432.011412
367.160031	2429.936977
367.547715	2433.150713
367.935336	2430.201637
368.322893	2430.342790
368.710388	2429.132913
369.097820	2431.265321
369.485189	2431.408994
369.872495	2435.320929
370.259738	2433.526278
370.646918	2435.230188
371.034035	2436.182967
371.421090	2437.564243
371.808081	2438.030549
372.195010	2440.906528
372.581875	2439.492484
372.968678	2442.313010
373.355418	2442.900304
373.742096	2444.084975
374.128710	2445.383072
374.515262	2448.054884
374.901751	2451.588733
375.288177	2454.767180
375.674540	2457.890175
376.060841	2463.095166
376.447079	2463.304374
376.833254	2470.364510
377.219367	2474.808287
377.605417	2483.458907
377.991404	2487.343116
378.377329	2492.590958
378.763191	2499.457009
379.148991	2507.061590
379.534727	2515.147600
379.920402	2526.933818
380.306013	2532.768954
380.691563	2547.274874
381.077049	2558.347768
381.462474	2568.732545
381.847835	2583.437591
382.233134	2595.170877
382.618371	2604.013060
383.003545	2626.090794
383.388657	2638.139151
383.773706	2659.947183
384.158693	2670.803308
384.543618	2689.180834
384.928480	2704.314378
385.313280	2725.628376
385.698017	2744.623444
386.082692	2766.610437
386.467305	2783.382355
386.851856	2807.617702
387.236344	2836.669872
387.620770	2850.885926
388.005133	2869.472660
388.389435	2902.361148
388.773674	2917.202305
389.157851	2951.267902
389.541965	2978.628764
389.926018	2991.128305
390.310008	3024.704911
390.693936	3047.939589
391.077802	3077.853796
391.461606	3106.419494
391.845348	3123.244345
392.229027	3150.824497
392.612645	3196.144471
392.996200	3223.661609
393.379694	3258.722834
393.763125	3301.126499
394.146494	3323.350426
394.529801	3361.731251
394.913047	3402.615009
395.296230	3405.485946
395.679351	3429.499482
396.062410	3471.250318
396.445408	3446.949436
396.828343	3481.718274
397.211217	3510.427645
397.594028	3480.757934
397.976778	3521.855941
398.359466	3540.833365
398.742092	3547.114642
399.124656	3552.425498
399.507158	3598.161366
399.889598	3594.158690
400.271977	3643.347749
400.654294	3619.029223
401.036549	3661.316942
401.418742	3647.161382
401.800874	3697.850184
402.182944	3701.608364
402.564952	3762.429885
402.946898	3740.054724
403.328783	3719.302814
403.710606	3744.095208
404.092367	3780.769603
404.474067	3809.932678
404.855705	3778.077627
405.237282	3731.666244
405.618797	3781.553502
406.000250	3817.955674
406.381642	3854.733412
406.762972	3822.961540
407.144240	3772.522275
407.525447	3795.061274
407.906593	3771.892131
408.287677	3801.377840
408.668700	3786.324954
409.049661	3783.116260
409.430560	3774.372378
409.811399	3731.066346
410.192176	3729.130543
410.572891	3738.673447
410.953545	3763.949793
411.334138	3674.623067
411.714669	3696.854556
412.095139	3617.592494
412.475547	3639.216523
412.855894	3602.242180
413.236180	3616.528810
413.616405	3542.093653
413.996568	3553.516908
414.376670	3516.953419
414.756711	3480.657111
415.136691	3466.640183
415.516609	3467.459371
415.896466	3442.946760
416.276262	3430.351437
416.655997	3431.957045
417.035670	3423.810540
417.415283	3427.941766
417.794834	3414.383582
418.174324	3360.808720
418.553753	3320.426557
418.933121	3325.460149
419.312428	3290.744243
419.691674	3231.820716
420.070859	3245.683889
420.449983	3186.213397
420.829045	3189.676670
421.208047	3137.573825
421.586988	3131.463946
421.965867	3109.333281
422.344686	3089.544231
422.723444	3081.367480
423.102141	2992.403717
423.480777	3017.354908
423.859352	2958.512040
424.237866	2975.311685
424.616319	2944.424536
424.994712	2934.367434
425.373044	2897.388050
425.751314	2894.081053
426.129524	2844.592045
426.507673	2841.958042
426.885762	2817.584064
427.263789	2800.257618
427.641756	2782.114505
428.019662	2769.924995
428.397508	2746.571850
428.775292	2727.075187
429.153016	2721.608056
429.530679	2697.786084
429.908282	2679.930317
430.285824	2663.652431
430.663305	2658.974240
431.040726	2639.575880
431.418086	2627.454426
431.795385	2620.487551
432.172624	2615.403547
432.549802	2596.867225
432.926920	2591.677357
433.303977	2581.164031
433.680974	2569.750858
434.057910	2567.557956
434.434786	2561.458160
434.811601	2550.755791
435.188355	2549.223280
435.565050	2540.960829
435.941683	2538.135262
436.318257	2534.298944
436.694770	2530.364323
437.071222	2528.496576
437.447614	2524.304856
437.823946	2518.719258
438.200218	2517.048115
438.576429	2513.557116
438.952580	2512.627023
439.328670	2511.558299
439.704700	2508.964625
440.080670	2504.750221
440.456580	2504.062103
440.832429	2504.276352
441.208218	2500.825682
441.583947	2503.563029
441.959616	2499.620847
442.335224	2499.860301
442.710773	2498.945332
443.086261	2500.024139
443.461689	2496.661689
443.837057	2498.758809
444.212365	2499.668738
444.587612	2495.156905
444.962800	2491.751605
445.337927	2495.245125
445.712995	2486.491161
446.088002	2496.717142
446.462949	2493.889055
446.837837	2496.097080
447.212664	2494.849394
447.587431	2495.204796
447.962139	2501.622185
448.336786	2504.755262
448.711374	2501.395333
449.085901	2496.611278
449.460369	2498.358037
449.834776	2497.987513
450.209124	2501.019767
450.583412	2498.181597
450.957640	2499.499859
451.331808	2499.121772
451.705917	2495.605567
452.079965	2493.576503
452.453954	2496.402070
452.827883	2496.059271
453.201752	2494.846874
453.575562	2498.443737
453.949311	2496.757471
454.323001	2497.236381
454.696632	2495.154384
455.070202	2498.005157
455.443713	2497.949704
455.817164	2498.068171
456.190556	2498.864673
456.563888	2501.531444
456.937160	2498.042965
457.310373	2497.614467
457.683526	2497.221257
458.056619	2497.342245
458.429653	2499.431803
458.802628	2500.256032
459.175542	2497.740496
459.548398	2502.769047
459.921194	2500.679489
460.293930	2503.240395
460.666607	2505.425735
461.039224	2504.490601
461.411782	2510.529903
461.784280	2507.711898
462.156719	2507.164933
462.529099	2507.686693
462.901419	2504.528410
463.273680	2503.016064
463.645882	2498.978099
464.018024	2502.942967
464.390106	2500.394664
464.762130	2508.969666
465.134094	2513.468896
465.505999	2519.800585
465.877845	2527.387522
466.249631	2530.513037
466.621358	2530.495393
466.993026	2523.122706
467.364634	2527.569003
467.736184	2518.893178
468.107674	2521.650689
468.479105	2518.474762
468.850477	2515.576098
469.221790	2515.213135
469.593043	2513.035357
469.964238	2508.853720
470.335373	2512.745491
470.706449	2511.598628
471.077467	2515.981911
471.448425	2521.670853
471.819324	2527.672347
472.190164	2529.018335
472.560945	2519.029289
472.931667	2517.380832
473.302330	2515.419823
473.672934	2513.894874
474.043479	2516.092817
474.413965	2514.714061
474.784393	2515.623989
475.154761	2517.128774
475.525070	2518.101717
475.895321	2516.738084
476.265513	2515.066942
476.635645	2514.643485
477.005719	2514.824967
477.375734	2515.671880
477.745691	2521.721265
478.115588	2519.677077
478.485427	2524.002387
478.855207	2525.723941
479.224928	2534.616537
479.594591	2537.689120
479.964194	2532.753830
480.333739	2536.980838
480.703226	2536.275076
481.072653	2540.008051
481.442022	2537.517721
481.811333	2536.338091
482.180584	2531.856505
482.549777	2535.281969
482.918912	2530.679395
483.287988	2534.548481
483.657005	2535.942360
484.025964	2533.688964
484.394864	2531.924560
484.763706	2535.423121
485.132489	2530.984385
485.501213	2534.949253
485.869879	2533.850281
486.238487	2531.049920
486.607036	2534.160312
486.975527	2532.479087
487.343959	2531.412883
487.712333	2535.599562
488.080648	2531.947246
488.448905	2534.031763
488.817104	2535.506300
489.185244	2535.019829
489.553326	2533.802390
489.921350	2541.404450
490.289315	2549.417364
490.657222	2548.482230
491.025070	2549.762683
491.392861	2549.830739
491.760593	2548.595656
492.128267	2543.136087
492.495883	2543.683052
492.863440	2537.621064
493.230939	2537.074099
493.598380	2538.039480
493.965763	2534.515713
494.333088	2534.707277
494.700354	2534.487987
495.067563	2533.290713
495.434713	2534.551002
495.801805	2536.333049
496.168839	2534.649304
496.535815	2534.664428
496.902733	2534.079654
497.269593	2534.281300
497.636395	2534.966897
498.003139	2536.285158
498.369825	2534.072092
498.736453	2538.321785
499.103023	2533.089067
499.469535	2535.770961
499.835989	2535.032432
500.202385	2531.846423
500.568723	2530.994467
500.935003	2535.261804
501.301226	2528.589837
501.667390	2537.426980
502.033497	2537.439583
502.399546	2535.294572
502.765537	2537.845396
503.131470	2533.058820
503.497345	2538.014274
503.863163	2535.337422
504.228923	2535.486136
504.594625	2539.866898
504.960269	2535.478574
505.325856	2537.469830
505.691385	2537.298430
506.056856	2538.767927
506.422270	2537.805066
506.787625	2536.292720
507.152924	2538.906558
507.518164	2533.880528
507.883347	2536.086033
508.248472	2535.662576
508.613540	2533.968748
508.978550	2535.702905
509.343503	2535.302133
509.708398	2540.398740
510.073236	2538.790612
510.438016	2537.041332
510.802738	2531.743079
511.167403	2537.827752
511.532010	2534.482946
511.896561	2537.442103
512.261053	2534.321629
512.625488	2537.472350
512.989866	2536.375899
513.354186	2538.218441
513.718449	2535.637370
514.082655	2535.128214
514.446803	2534.876156
514.810894	2535.153419
515.174927	2539.080478
515.538904	2536.806918
515.902822	2536.138965
516.266684	2535.506300
516.630488	2538.258770
516.994235	2535.902031
517.357925	2533.177287
517.721558	2532.658048
518.085133	2535.435724
518.448651	2529.771988
518.812112	2531.042358
519.175516	2533.925898
519.538863	2530.429858
519.902152	2534.336752
520.265385	2534.719880
520.628560	2537.797505
520.991678	2535.753317
521.354739	2536.320447
521.717743	2535.821372
522.080690	2536.338091
522.443580	2536.350693
522.806413	2536.643080
523.169189	2537.495035
523.531908	2535.166022
523.894569	2536.595189
524.257174	2535.186187
524.619722	2536.254912
524.982213	2535.075282
525.344647	2534.929088
525.707025	2534.833306
526.069345	2536.317926
526.431608	2534.104859
526.793815	2535.092926
527.155964	2534.311547
527.518057	2532.058151
527.880093	2534.160312
528.242072	2535.279448
528.603995	2534.518234
528.965860	2533.925898
529.327669	2535.546629
529.689421	2535.014788
530.051117	2536.552340
530.412755	2532.312729
530.774337	2536.537216
531.135862	2532.285003
531.497331	2533.830117
531.858743	2531.216278
532.220098	2534.772812
532.581396	2531.264169
532.942638	2531.518747
533.303824	2533.255425
533.664953	2532.111083
534.026025	2531.125537
534.387040	2534.387164
534.747999	2534.230888
535.108902	2533.008408
535.469748	2533.094108
535.830537	2533.850281
536.191270	2532.509334
536.551947	2528.597399
536.912567	2529.935825
537.273131	2529.388860
537.633638	2526.386853
537.994089	2530.729807
538.354483	2529.925743
538.714821	2531.596885
539.075103	2530.959179
539.435328	2529.903058
539.795497	2528.226874
540.155609	2531.135620
540.515665	2531.990095
540.875665	2528.612522
541.235609	2531.612009
541.595496	2530.301309
541.955328	2534.127545
542.315102	2529.340969
542.674821	2528.620084
543.034483	2528.534384
543.394090	2530.606299
543.753640	2530.606299
544.113134	2530.311391
544.472571	2530.901206
544.831953	2531.428007
545.191278	2530.926412
545.550548	2528.584796
545.909761	2529.219981
546.268918	2530.157636
546.628019	2529.063706
546.987064	2529.991278
547.346053	2529.940866
547.704986	2530.082019
548.063863	2530.336597
548.422684	2528.713345
548.781449	2531.317101
549.140158	2529.759385
549.498811	2528.935156
549.857408	2527.367357
550.215949	2531.982534
550.574434	2527.858870
550.932864	2529.850126
551.291237	2527.589168
551.649555	2531.274252
552.007817	2530.686957
552.366022	2528.836854
552.724173	2528.365506
553.082267	2527.382481
553.440305	2527.420289
553.798288	2528.350382
554.156215	2528.257121
554.514086	2529.020856
554.871902	2527.074970
555.229661	2526.565814
555.587365	2524.554393
555.945014	2528.776360
556.302606	2528.862059
556.660143	2529.338448
557.017625	2529.159487
557.375050	2529.439272
557.732421	2527.717718
558.089735	2528.632687
558.446994	2528.458767
558.804197	2530.918850
559.161345	2532.098480
559.518437	2528.988088
559.875474	2528.647810
560.232455	2529.708973
560.589381	2528.889786
560.946251	2530.374406
561.303065	2530.729807
561.659825	2528.935156
562.016528	2529.038500
562.373177	2528.937677
562.729770	2530.104704
563.086307	2526.336441
563.442789	2529.550177
563.799216	2530.263500
564.155587	2529.764426
564.511904	2530.054292
564.868164	2529.333407
565.224370	2528.317615
565.580520	2527.909281
565.936615	2527.637059
566.292654	2525.837367
566.648638	2528.879703
567.004567	2528.292409
567.360441	2527.569003
567.716260	2529.955990
568.072023	2527.735362
568.427732	2530.460105
568.783385	2526.825433
569.138982	2528.499096
569.494525	2529.545136
569.850013	2529.217461
570.205445	2529.119158
570.560823	2526.888448
570.916145	2528.617563
571.271412	2527.097656
571.626625	2527.934487
571.981782	2528.945238
572.336884	2528.355423
572.691931	2523.382325
573.046923	2526.787625
573.401860	2523.397449
573.756743	2527.223684
574.111570	2527.977337
574.466342	2527.637059
574.821059	2527.866432
575.175722	2528.020187
575.530330	2529.593027
575.884882	2526.996832
576.239380	2526.442306
576.593823	2528.168901
576.948211	2523.084897
577.302544	2526.593540
577.656823	2524.990453
578.011047	2524.463653
578.365216	2527.064888
578.719330	2522.104393
579.073389	2526.001205
579.427394	2525.000536
579.781344	2523.616739
580.135239	2524.803931
580.489080	2524.624970
580.842866	2526.500279
581.196597	2528.010104
581.550273	2524.589682
581.903895	2526.485155
582.257463	2526.212933
582.610975	2525.635721
582.964434	2524.990453
583.317837	2521.383508
583.671186	2525.620597
584.024481	2525.582789
584.377721	2524.103210
584.730906	2521.302849
585.084037	2524.932480
585.437113	2523.825947
585.790135	2526.633869
586.143103	2525.842408
586.496016	2523.372243
586.848874	2524.705628
587.201679	2523.170597
587.554428	2524.377953
587.907124	2524.163704
588.259765	2524.133457
588.612352	2520.929804
588.964884	2521.171779
589.317362	2522.406862
589.669786	2523.657068
590.022155	2520.886954
590.374470	2518.200019
590.726731	2523.679753
591.078937	2518.409227
591.431090	2521.625483
591.783188	2521.522139
592.135232	2521.310411
592.487222	2520.650020
592.839157	2523.495751
593.191038	2524.146060
593.542866	2520.634896
593.894639	2519.767818
594.246358	2522.976512
594.598022	2522.197654
594.949633	2519.558610
595.301190	2519.500637
595.652692	2519.344361
596.004141	2521.862417
596.355535	2517.194309
596.706876	2519.253620
597.058162	2518.820081
597.409395	2519.719927
597.760573	2519.178003
598.111698	2516.647344
598.462768	2520.166069
598.813785	2518.895698
599.164748	2519.117509
599.515657	2517.622807
599.866511	2517.262364
600.217312	2521.028106
600.568060	2518.734381
600.918753	2521.118847
601.269392	2519.271264
601.619978	2516.274298
601.970510	2519.220853
602.320988	2517.325379
602.671412	2519.853518
603.021783	2518.502488
603.372100	2517.753877
603.722363	2517.416120
604.072572	2521.708662
604.422728	2517.532066
604.772830	2516.269257
605.122878	2517.350585
605.472872	2517.148938
605.822813	2518.474762
606.172701	2518.149607
606.522534	2518.429392
606.872314	2518.772190
607.222041	2517.554751
607.571714	2516.276819
607.921333	2514.562827
608.270899	2512.306910
608.620411	2513.957888
608.969870	2518.300842
609.319276	2516.770852
609.668627	2520.397962
610.017926	2519.654392
610.367171	2519.755215
610.716362	2518.205060
611.065500	2517.516943
611.414585	2517.973167
611.763616	2519.553569
612.112594	2520.113137
612.461518	2517.101048
612.810389	2520.760925
613.159207	2518.000893
613.507971	2518.280678
613.856682	2521.718744
614.205340	2519.286388
614.553945	2519.578775
614.902496	2519.402334
615.250994	2518.086593
615.599439	2520.430730
615.947830	2520.087931
616.296169	2523.062212
616.644454	2521.678415
616.992686	2518.225225
617.340864	2522.227901
617.688990	2524.723272
618.037063	2518.867972
618.385082	2520.808816
618.733048	2524.660258
619.080961	2519.687159
619.428821	2520.276974
619.776628	2520.269413
620.124382	2520.002232
620.472083	2519.883764
620.819731	2520.934845
621.167326	2519.417458
621.514868	2521.958199
621.862357	2517.784124
622.209793	2521.582633
622.557176	2517.267406
622.904506	2517.194309
623.251783	2516.443177
623.599007	2519.543487
623.946179	2514.986283
624.293297	2517.030471
624.640363	2514.812364
624.987376	2516.793537
625.334336	2513.020233
625.681243	2514.469565
626.028097	2508.631909
626.374899	2515.699607
626.721647	2516.475944
627.068343	2517.191788
627.414987	2517.032992
627.761577	2512.765655
628.108115	2518.918383
628.454600	2512.596777
628.801032	2516.574247
629.147412	2515.437467
629.493739	2513.342867
629.840014	2514.827487
630.186236	2512.790861
630.532405	2514.557785
630.878521	2512.453104
631.224585	2514.469565
631.570597	2512.067455
631.916556	2513.330264
632.262462	2512.478309
632.608316	2513.138701
632.954117	2514.651047
633.299866	2512.208608
633.645562	2511.054183
633.991206	2511.167609
634.336797	2512.047291
634.682336	2514.235152
635.027823	2510.708864
635.373257	2513.574760
635.718639	2509.902280
636.063968	2513.020233
636.409245	2513.073166
636.754470	2510.250119
637.099642	2510.136693
637.444762	2508.727691
637.789829	2506.355828
638.134845	2509.209121
638.479808	2505.347597
638.824719	2508.614265
639.169577	2507.842968
639.514383	2508.699965
639.859137	2508.427742
640.203839	2509.282218
640.548489	2507.046466
640.893086	2505.763493
641.237632	2507.548061
641.582125	2509.007475
641.926566	2507.338853
642.270955	2508.820952
642.615292	2502.181753
642.959576	2504.420025
643.303809	2502.758965
643.647990	2506.136538
643.992118	2507.830366
644.336195	2506.769203
