Dividing Wavelength (nm)	Counts (n)	Blue Motor Position (mm): 0.000000	Red Motor Position (mm): 36.500000	
326.493990	2053.743392
326.888308	2053.743392
327.282561	2053.743392
327.676750	2028.164577
328.070874	2030.894362
328.464933	2034.115659
328.858929	2044.150076
329.252859	2057.040306
329.646726	2066.512634
330.040528	2082.921590
330.434265	2100.159816
330.827938	2121.327621
331.221547	2141.222534
331.615091	2161.407314
332.008571	2181.183761
332.401986	2203.294262
332.795338	2224.308312
333.188625	2243.121898
333.581847	2261.002870
333.975006	2279.400561
334.368100	2297.843623
334.761129	2314.154276
335.154095	2330.762357
335.546996	2356.252952
335.939833	2392.861811
336.332606	2405.573080
336.725315	2418.725451
337.117960	2429.337080
337.510540	2436.808070
337.903056	2447.830552
338.295508	2456.087963
338.687896	2461.277830
339.080220	2468.211937
339.472480	2468.852164
339.864676	2474.727629
340.256807	2477.028916
340.648875	2479.756180
341.040879	2479.546972
341.432818	2480.335913
341.824694	2482.594349
342.216506	2485.054432
342.608253	2484.212560
342.999937	2479.995635
343.391557	2485.528301
343.783113	2481.515542
344.174605	2479.267188
344.566033	2478.664770
344.957397	2477.016313
345.348697	2474.004223
345.739934	2471.836527
346.131106	2470.165385
346.522215	2469.845271
346.913260	2469.225209
347.304241	2464.534416
347.695159	2463.067440
348.086012	2463.379992
348.476802	2462.386884
348.867528	2458.278344
349.258191	2455.016717
349.648789	2455.137705
350.039324	2454.210133
350.429796	2457.738940
350.820203	2454.232818
351.210548	2454.447067
351.600828	2455.724999
351.991045	2452.102930
352.381198	2453.605194
352.771288	2454.313476
353.161314	2454.726851
353.551276	2456.587037
353.941175	2454.195009
354.331010	2454.832715
354.720782	2455.803137
355.110490	2454.341203
355.500135	2454.406738
355.889717	2455.752726
356.279235	2453.970678
356.668689	2455.679629
357.058080	2456.271965
357.447408	2458.600978
357.836672	2458.479990
358.225873	2456.760957
358.615010	2456.720627
359.004084	2458.268262
359.393095	2458.568210
359.782043	2461.161884
360.170927	2459.783128
360.559748	2463.211113
360.948505	2461.892851
361.337199	2464.922585
361.725830	2463.271607
362.114398	2464.814200
362.502903	2463.725311
362.891344	2466.540795
363.279722	2464.673047
363.668037	2468.915178
364.056289	2462.792697
364.444478	2466.661783
364.832603	2464.153809
365.220665	2469.371403
365.608665	2468.411063
365.996601	2470.319140
366.384474	2468.887452
366.772284	2470.659418
367.160031	2469.918368
367.547715	2470.765282
367.935336	2470.188070
368.322893	2470.795529
368.710388	2468.721094
369.097820	2469.126907
369.485189	2469.288224
369.872495	2471.624799
370.259738	2473.679069
370.646918	2475.914821
371.034035	2475.990438
371.421090	2474.316775
371.808081	2479.214256
372.195010	2479.736015
372.581875	2480.643423
372.968678	2483.350523
373.355418	2483.048053
373.742096	2484.628455
374.128710	2485.283805
374.515262	2490.471152
374.901751	2489.291522
375.288177	2494.383088
375.674540	2498.791577
376.060841	2503.005981
376.447079	2507.356497
376.833254	2513.075686
377.219367	2515.629031
377.605417	2525.323169
377.991404	2531.223840
378.377329	2533.436907
378.763191	2542.475695
379.148991	2551.078424
379.534727	2562.715928
379.920402	2569.312278
380.306013	2579.485326
380.691563	2590.321287
381.077049	2598.729931
381.462474	2611.582353
381.847835	2624.394445
382.233134	2638.698719
382.618371	2648.332364
383.003545	2665.880621
383.388657	2678.828825
383.773706	2696.971937
384.158693	2711.462734
384.543618	2728.416134
384.928480	2744.386510
385.313280	2763.815117
385.698017	2782.454783
386.082692	2808.709112
386.467305	2825.909529
386.851856	2847.649505
387.236344	2876.545399
387.620770	2891.225239
388.005133	2911.326840
388.389435	2945.352108
388.773674	2957.382822
389.157851	2990.397338
389.541965	3017.783406
389.926018	3031.276055
390.310008	3063.751168
390.693936	3089.942482
391.077802	3118.644292
391.461606	3147.880464
391.845348	3163.462670
392.229027	3195.771425
392.612645	3235.195769
392.996200	3265.556118
393.379694	3301.580203
393.763125	3345.712985
394.146494	3373.008312
394.529801	3406.663055
394.913047	3449.724591
395.296230	3458.057619
395.679351	3480.314313
396.062410	3531.255172
396.445408	3511.181298
396.828343	3551.780230
397.211217	3585.523194
397.594028	3556.428174
397.976778	3607.953808
398.359466	3637.288282
398.742092	3650.889315
399.124656	3667.474711
399.507158	3721.430181
399.889598	3732.689598
400.271977	3795.172179
400.654294	3780.857823
401.036549	3841.139941
401.418742	3840.960980
401.800874	3911.451434
402.182944	3936.455557
402.564952	4022.598794
402.946898	4017.769368
403.328783	4012.241743
403.710606	4059.454670
404.092367	4135.203047
404.474067	4196.866441
404.855705	4178.067978
405.237282	4156.171727
405.618797	4250.847117
406.000250	4324.994928
406.381642	4410.344183
406.762972	4408.269748
407.144240	4374.299933
407.525447	4440.454995
407.906593	4457.337819
408.287677	4547.279566
408.668700	4567.829829
409.049661	4610.858598
409.430560	4642.317918
409.811399	4626.876864
410.192176	4680.870142
410.572891	4758.327471
410.953545	4865.872927
411.334138	4761.919293
411.714669	4872.413824
412.095139	4783.676913
412.475547	4902.058329
412.855894	4901.960027
413.236180	5001.686653
413.616405	4930.049336
413.996568	5032.225963
414.376670	5032.903998
414.756711	5032.430129
415.136691	5101.347744
415.516609	5187.052400
415.896466	5223.573039
416.276262	5299.036592
416.655997	5409.705042
417.035670	5505.676008
417.415283	5644.748840
417.794834	5722.735490
418.174324	5676.596330
418.553753	5681.753430
418.933121	5846.576476
419.312428	5860.558116
419.691674	5783.925016
420.070859	6014.308267
420.449983	5889.953084
420.829045	6077.625159
421.208047	6004.215877
421.586988	6166.016751
421.965867	6239.640282
422.344686	6322.567263
422.723444	6491.788715
423.102141	6108.618173
423.480777	6499.854561
423.859352	6312.240459
424.237866	6679.047416
424.616319	6672.345202
424.994712	6836.797723
425.373044	6749.106852
425.751314	7064.552012
426.129524	6787.112110
426.507673	7047.462501
426.885762	7094.569563
427.263789	7137.608414
427.641756	7217.641772
428.019662	7299.174874
428.397508	7344.141966
428.775292	7321.862587
429.153016	7492.624112
429.530679	7426.007784
429.908282	7478.314797
430.285824	7422.375633
430.663305	7710.502781
431.040726	7591.319822
431.418086	7592.035666
431.795385	7725.391829
432.172624	7917.069101
432.549802	7800.890669
432.926920	7932.177439
433.303977	7876.117288
433.680974	7914.992146
434.057910	8121.762632
434.434786	8171.281887
434.811601	8135.918192
435.188355	8467.300961
435.565050	8352.707972
435.941683	8366.500569
436.318257	8699.524233
436.694770	8654.902460
437.071222	8878.616265
437.447614	8662.476794
437.823946	8629.323646
438.200218	8775.333105
438.576429	8656.382039
438.952580	8823.483686
439.328670	8824.965785
439.704700	8902.113083
440.080670	8795.374212
440.456580	9070.855626
440.832429	9049.057677
441.208218	8785.785937
441.583947	8897.830623
441.959616	9017.827728
442.335224	9045.899394
442.710773	9130.043813
443.086261	9309.219024
443.461689	9031.269965
443.837057	9196.093011
444.212365	9415.625178
444.587612	9393.839832
444.962800	9290.733113
445.337927	9424.326210
445.712995	8964.215057
446.088002	9636.095001
446.462949	9692.898722
446.837837	9687.807157
447.212664	9707.563439
447.587431	10530.584736
447.962139	11536.448684
448.336786	12475.071201
448.711374	12261.908531
449.085901	11051.625795
449.460369	10976.542850
449.834776	10749.774106
450.209124	11665.739157
450.583412	11477.809982
450.957640	11805.336268
451.331808	11396.644885
451.705917	10823.362349
452.079965	10700.625376
452.453954	10898.518391
452.827883	10841.218116
453.201752	10813.736266
453.575562	10819.919241
453.949311	11165.079483
454.323001	11227.514173
454.696632	11149.091463
455.070202	11742.949469
455.443713	11790.588373
455.817164	11964.177985
456.190556	12269.896239
456.563888	12143.282619
456.937160	12410.131057
457.310373	11900.656926
457.683526	11906.711352
458.056619	11924.189032
458.429653	11995.244095
458.802628	12133.008748
459.175542	12187.518744
459.548398	12723.194272
459.921194	13304.033498
460.293930	13585.876848
460.666607	14442.018526
461.039224	15238.586369
461.411782	15593.712972
461.784280	15267.197438
462.156719	15228.113372
462.529099	15131.492097
462.901419	14494.769160
463.273680	14085.460235
463.645882	14296.563594
464.018024	14180.924566
464.390106	14555.182348
464.762130	15601.559528
465.134094	17135.010473
465.505999	19412.722247
465.877845	21683.484792
466.249631	22951.687865
466.621358	22498.785562
466.993026	21703.508255
467.364634	20959.222218
467.736184	20161.452061
468.107674	19543.580519
468.479105	19403.590197
468.850477	19121.462022
469.221790	18697.695068
469.593043	18026.616668
469.964238	17633.701576
470.335373	17692.849434
470.706449	18411.284433
471.077467	19253.711652
471.448425	21727.766287
471.819324	23606.979891
472.190164	23539.433471
472.560945	21794.599384
472.931667	20207.230779
473.302330	19875.353977
473.672934	19315.352361
474.043479	19737.468337
474.413965	19521.769967
474.784393	19335.098560
475.154761	20010.593011
475.525070	20145.111160
475.895321	19976.834924
476.265513	20507.494505
476.635645	21098.531984
477.005719	21169.473622
477.375734	21532.809744
477.745691	22168.305160
478.115588	22798.053660
478.485427	23995.894828
478.855207	25798.682020
479.224928	27599.793028
479.594591	29060.116994
479.964194	28699.646768
480.333739	29180.567804
480.703226	29395.691483
481.072653	29839.915439
481.442022	30366.486643
481.811333	30774.855393
482.180584	30326.419552
482.549777	30120.004467
482.918912	29882.165349
483.287988	29826.022019
483.657005	29670.625931
484.025964	29309.603698
484.394864	29508.625932
484.763706	29436.096331
485.132489	28890.789678
485.501213	28967.821029
485.869879	29139.134560
486.238487	29079.724562
486.607036	29349.766571
486.975527	29030.386790
487.343959	29374.309428
487.712333	29730.320754
488.080648	29690.447748
488.448905	30127.598965
488.817104	30002.321251
489.185244	30833.829331
489.553326	31778.327313
489.921350	33676.727549
490.289315	36194.458741
490.657222	37125.622870
491.025070	37713.998621
491.392861	37453.870041
491.760593	36684.174069
492.128267	35688.483170
492.495883	34703.726534
492.863440	33800.820592
493.230939	32811.221927
493.598380	32239.066089
493.965763	32064.846333
494.333088	31576.061097
494.700354	31372.705992
495.067563	31342.194408
495.434713	31232.458572
495.801805	31505.409326
496.168839	31330.768633
496.535815	31188.338393
496.902733	31302.959108
497.269593	31123.239453
497.636395	31288.130554
498.003139	31544.395089
498.369825	31312.045788
498.736453	31721.689949
499.103023	31559.415207
499.469535	31637.893370
499.835989	31739.104615
500.202385	31623.253859
500.568723	31659.214930
500.935003	31975.363332
501.301226	31829.424448
501.667390	32563.272775
502.033497	32777.867133
502.399546	32565.982396
502.765537	32170.554288
503.131470	32661.295491
503.497345	33082.166303
503.863163	32016.237007
504.228923	32806.349652
504.594625	33179.231199
504.960269	32665.343538
505.325856	33331.952955
505.691385	33006.790970
506.056856	33319.178671
506.422270	33806.174297
506.787625	33328.585464
507.152924	33785.205618
507.518164	33951.230979
507.883347	33537.236301
508.248472	33673.503731
508.613540	34366.601891
508.978550	34605.660968
509.343503	34430.075059
509.708398	34785.884739
510.073236	35385.998816
510.438016	35465.112164
510.802738	35145.228267
511.167403	35693.098347
511.532010	35939.746881
511.896561	36460.803063
512.261053	37223.774136
512.625488	37000.120825
512.989866	36885.520274
513.354186	36961.203117
513.718449	36915.822650
514.082655	37811.580236
514.446803	37501.355190
514.810894	38113.177347
515.174927	38115.168603
515.538904	38128.265521
515.902822	38760.617777
516.266684	38433.071326
516.630488	38790.721027
516.994235	38789.569123
517.357925	39364.621104
517.721558	39621.588880
518.085133	39996.396148
518.448651	40183.065034
518.812112	40075.413714
519.175516	40226.277805
519.538863	40681.320077
519.902152	40731.943344
520.265385	41273.191868
520.628560	41274.394183
520.991678	41227.191339
521.354739	41455.316154
521.717743	41800.289873
522.080690	41693.165354
522.443580	42374.515105
522.806413	42387.312074
523.169189	42500.178467
523.531908	42730.481060
523.894569	42559.815317
524.257174	42758.318312
524.619722	43110.730254
524.982213	43242.009462
525.344647	43282.691573
525.707025	43396.379675
526.069345	43814.356863
526.431608	43731.790325
526.793815	44096.772384
527.155964	43628.171928
527.518057	43870.830389
527.880093	43725.430910
528.242072	44340.353376
528.603995	44065.534874
528.965860	43946.112460
529.327669	44158.760933
529.689421	44197.466912
530.051117	44151.927648
530.412755	44407.579683
530.774337	44442.817349
531.135862	44369.014857
531.497331	44517.819636
531.858743	44484.250592
532.220098	44862.097676
532.581396	44573.342904
532.942638	44320.115664
533.303824	44554.753649
533.664953	44574.419191
534.026025	44211.624992
534.387040	44767.354231
534.747999	44805.180528
535.108902	45121.094517
535.469748	44404.963325
535.830537	44657.862890
536.191270	44868.232760
536.551947	44580.647536
536.912567	44797.991843
537.273131	44907.132824
537.633638	44513.040622
537.994089	44651.788299
538.354483	44383.666970
538.714821	44973.275283
539.075103	45229.126443
539.435328	45047.871757
539.795497	44764.236277
540.155609	44852.302714
540.515665	45382.584208
540.875665	44644.382844
541.235609	44861.636410
541.595496	44952.672087
541.955328	45468.389687
542.315102	44859.846801
542.674821	44705.045569
543.034483	44554.181478
543.394090	44503.565773
543.753640	44430.249752
544.113134	45429.837463
544.472571	44471.778778
544.831953	45523.852462
545.191278	44750.113484
545.550548	44377.509201
545.909761	44935.822030
546.268918	44995.113561
546.628019	45332.724676
546.987064	44714.268360
547.346053	43971.552643
547.704986	44804.779757
548.063863	44377.355446
548.422684	44500.699877
548.781449	44004.978014
549.140158	44436.815855
549.498811	44105.778406
549.857408	43453.274137
550.215949	44171.835165
550.574434	43933.000419
550.932864	43810.167665
551.291237	44387.745264
551.649555	44053.783945
552.007817	44119.702072
552.366022	43743.924382
552.724173	43708.769896
553.082267	43990.157022
553.440305	44231.255245
553.798288	43423.939663
554.156215	43681.628324
554.514086	43764.472126
554.871902	43272.029533
555.229661	43321.765557
555.587365	42928.172429
555.945014	42915.007456
556.302606	42830.064013
556.660143	42803.038387
557.017625	42898.716967
557.375050	42485.985099
557.732421	42742.400868
558.089735	42675.250179
558.446994	42425.108125
558.804197	42716.081004
559.161345	42463.773775
559.518437	41750.238777
559.875474	41840.969464
560.232455	41911.583427
560.589381	41808.489310
560.946251	41528.881712
561.303065	41959.214769
561.659825	41542.213043
562.016528	41210.958824
562.373177	40706.014169
562.729770	41125.990176
563.086307	40546.307895
563.442789	40884.637374
563.799216	40596.580802
564.155587	40366.487417
564.511904	40175.775526
564.868164	40059.067773
565.224370	40183.329695
565.580520	39775.200400
565.936615	39781.542171
566.292654	39316.352056
566.648638	39454.031009
567.004567	39233.167977
567.360441	39138.641301
567.716260	38745.726208
568.072023	38886.908763
568.427732	38631.743199
568.783385	38062.410407
569.138982	38244.333047
569.494525	38188.310704
569.850013	37666.279059
570.205445	37603.433514
570.560823	37214.906746
570.916145	36944.050591
571.271412	36970.713254
571.626625	36494.593917
571.981782	36357.777002
572.336884	35872.341613
572.691931	35935.416530
573.046923	35478.408207
573.401860	35152.273280
573.756743	34977.693081
574.111570	34906.028038
574.466342	34636.071729
574.821059	34570.813992
575.175722	33994.199253
575.530330	33868.959348
575.884882	33424.309414
576.239380	33142.773575
576.593823	33019.393855
576.948211	32784.922228
577.302544	32244.281163
577.656823	32050.151369
578.011047	32055.973902
578.365216	31740.811046
578.719330	31322.304536
579.073389	31123.100821
579.427394	30944.853183
579.781344	30703.946523
580.135239	30328.756127
580.489080	30180.558807
580.842866	29645.770522
581.196597	29765.931465
581.550273	29567.471320
581.903895	29309.195365
582.257463	29416.728217
582.610975	28835.785648
582.964434	28839.952162
583.317837	28309.330390
583.671186	28093.800899
584.024481	28052.402943
584.377721	27580.172857
584.730906	27499.748809
585.084037	27387.482313
585.437113	27027.526284
585.790135	26899.826296
586.143103	26441.487108
586.496016	26338.279566
586.848874	26199.226899
587.201679	26028.535950
587.554428	25525.822006
587.907124	25481.565717
588.259765	25161.654093
588.612352	25063.505349
588.964884	24560.229316
589.317362	24527.398802
589.669786	24336.485264
590.022155	24078.579834
590.374470	24143.036027
590.726731	23728.411205
591.078937	23170.002594
591.431090	23174.403521
591.783188	22727.487588
592.135232	22433.648813
592.487222	22373.369216
592.839157	22263.593050
593.191038	21912.852250
593.542866	21630.280454
593.894639	21152.195067
594.246358	21107.729570
594.598022	20927.674678
594.949633	20541.769310
595.301190	20351.052377
595.652692	20148.108126
596.004141	20198.325580
596.355535	19538.239416
596.706876	19361.277272
597.058162	19057.242763
597.409395	19110.167317
597.760573	19039.099651
598.111698	18697.831179
598.462768	18490.433069
598.813785	18325.380651
599.164748	17989.735587
599.515657	17936.271629
599.866511	17560.524186
600.217312	17675.943924
600.568060	17098.452025
600.918753	17261.248527
601.269392	17061.686890
601.619978	16802.453115
601.970510	16728.196919
602.320988	16621.057276
602.671412	16567.109368
603.021783	16361.301742
603.372100	16053.763631
603.722363	15933.191834
604.072572	15803.389684
604.422728	15641.125024
604.772830	15431.574341
605.122878	15337.672768
605.472872	15147.893491
605.822813	15092.970119
606.172701	14861.825654
606.522534	14829.736189
606.872314	14761.562145
607.222041	14568.811107
607.571714	14530.921795
607.921333	14238.355911
608.270899	14171.142207
608.620411	14138.175581
608.969870	13948.522332
609.319276	13818.611798
609.668627	13698.503787
610.017926	13679.042412
610.367171	13597.073251
610.716362	13486.442609
611.065500	13332.997448
611.414585	13266.560081
611.763616	13183.123944
612.112594	13032.960573
612.461518	12943.235597
612.810389	12918.390270
613.159207	12733.969739
613.507971	12612.704783
613.856682	12617.869445
614.205340	12456.645783
614.553945	12514.480421
614.902496	12237.373235
615.250994	12225.060217
615.599439	12132.640743
615.947830	12056.138713
616.296169	11945.855911
616.644454	11850.126920
616.992686	11783.608895
617.340864	11786.089143
617.688990	11571.767008
618.037063	11622.183587
618.385082	11478.480456
618.733048	11464.975205
619.080961	11330.310862
619.428821	11239.885165
619.776628	11146.467543
620.124382	11015.894097
620.472083	10929.803792
620.819731	10846.430669
621.167326	10663.666157
621.514868	10556.844107
621.862357	10339.900572
622.209793	10262.334858
622.557176	10074.382998
622.904506	9924.438918
623.251783	9761.193754
623.599007	9608.595507
623.946179	9498.859670
624.293297	9361.500830
624.640363	9172.419752
624.987376	9056.531187
625.334336	8943.957181
625.681243	8794.149212
626.028097	8695.357720
626.374899	8596.382226
626.721647	8509.381993
627.068343	8399.875528
627.414987	8280.072507
627.761577	8169.270466
628.108115	8147.240624
628.454600	7964.778581
628.801032	7924.817354
629.147412	7848.703493
629.493739	7767.833303
629.840014	7641.859910
630.186236	7640.324878
630.532405	7504.448138
630.878521	7474.579302
631.224585	7390.422279
631.570597	7293.128010
631.916556	7256.977896
632.262462	7192.088163
632.608316	7133.058772
632.954117	7052.584313
633.299866	6992.571897
633.645562	6929.842299
633.991206	6813.429454
634.336797	6703.239913
634.682336	6630.957329
635.027823	6546.308794
635.373257	6478.069215
635.718639	6377.162959
636.063968	6313.601571
636.409245	6196.291400
636.754470	6132.785465
637.099642	6064.681997
