Dividing Wavelength (nm)	Counts (n)	Blue Motor Position (mm): 0.000000	Red Motor Position (mm): 17.500000	
326.493990	2052.586447
326.888308	2052.586447
327.282561	2052.586447
327.676750	2027.501665
328.070874	2028.111645
328.464933	2035.358304
328.858929	2042.620086
329.252859	2052.364636
329.646726	2065.761503
330.040528	2082.649368
330.434265	2099.181832
330.827938	2122.303084
331.221547	2141.164561
331.615091	2162.591986
332.008571	2182.396158
332.401986	2202.341484
332.795338	2220.156921
333.188625	2242.862278
333.581847	2259.704773
333.975006	2278.979625
334.368100	2297.163067
334.761129	2312.750315
335.154095	2326.293374
335.546996	2344.582681
335.939833	2358.808817
336.332606	2372.760210
336.725315	2384.967364
337.117960	2394.361554
337.510540	2405.704150
337.903056	2411.698082
338.295508	2420.474731
338.687896	2427.917995
339.080220	2431.040990
339.472480	2436.243460
339.864676	2439.956270
340.256807	2443.938782
340.648875	2444.982301
341.040879	2448.017075
341.432818	2449.350460
341.824694	2448.611931
342.216506	2449.426078
342.608253	2446.812239
342.999937	2447.654112
343.391557	2446.373659
343.783113	2446.081272
344.174605	2443.626230
344.566033	2442.633123
344.957397	2439.658842
345.348697	2441.481219
345.739934	2437.032401
346.131106	2436.172884
346.522215	2433.629622
346.913260	2432.780188
347.304241	2432.208017
347.695159	2429.568973
348.086012	2428.656524
348.476802	2426.327511
348.867528	2421.137643
349.258191	2419.695873
349.648789	2420.787283
350.039324	2416.267888
350.429796	2420.499937
350.820203	2418.722930
351.210548	2420.739392
351.600828	2417.959195
351.991045	2417.447518
352.381198	2417.707138
352.771288	2419.627817
353.161314	2419.133784
353.551276	2419.053126
353.941175	2414.442991
354.331010	2416.719072
354.720782	2416.424164
355.110490	2419.892478
355.500135	2418.233938
355.889717	2420.784762
356.279235	2421.994639
356.668689	2418.846438
357.058080	2418.934659
357.447408	2419.342992
357.836672	2420.799886
358.225873	2421.850966
358.615010	2421.482962
359.004084	2424.742068
359.393095	2423.234763
359.782043	2423.186872
360.170927	2424.023703
360.559748	2423.650658
360.948505	2426.788776
361.337199	2426.619898
361.725830	2423.542273
362.114398	2427.532347
362.502903	2423.693508
362.891344	2425.374733
363.279722	2427.605443
363.668037	2430.874632
364.056289	2429.440423
364.444478	2432.265990
364.832603	2431.318253
365.220665	2429.314394
365.608665	2431.046031
365.996601	2431.161977
366.384474	2430.922522
366.772284	2430.912440
367.160031	2433.095260
367.547715	2435.331012
367.935336	2432.192893
368.322893	2430.491504
368.710388	2430.781370
369.097820	2433.745569
369.485189	2429.763057
369.872495	2434.015270
370.259738	2435.993923
370.646918	2438.499377
371.034035	2437.349994
371.421090	2440.586414
371.808081	2438.206990
372.195010	2441.755962
372.581875	2440.636826
372.968678	2444.130346
373.355418	2442.373503
373.742096	2444.137907
374.128710	2450.590584
374.515262	2450.504885
374.901751	2451.135029
375.288177	2458.658951
375.674540	2459.057202
376.060841	2462.717080
376.447079	2468.884932
376.833254	2475.022536
377.219367	2478.258957
377.605417	2483.272385
377.991404	2489.677171
378.377329	2495.459374
378.763191	2501.581855
379.148991	2510.928155
379.534727	2521.224711
379.920402	2529.938346
380.306013	2536.360776
380.691563	2550.813764
381.077049	2560.512944
381.462474	2569.869325
381.847835	2587.672160
382.233134	2598.833275
382.618371	2612.348608
383.003545	2626.098355
383.388657	2640.400109
383.773706	2664.811896
384.158693	2677.934020
384.543618	2693.057481
384.928480	2707.868391
385.313280	2731.256825
385.698017	2749.808271
386.082692	2774.676283
386.467305	2787.863941
386.851856	2811.325471
387.236344	2840.155830
387.620770	2855.619569
388.005133	2877.394833
388.389435	2911.871285
388.773674	2923.334868
389.157851	2957.854169
389.541965	2984.302583
389.926018	2997.344048
390.310008	3030.159439
390.693936	3053.812533
391.077802	3081.997624
391.461606	3114.402161
391.845348	3133.709780
392.229027	3162.532577
392.612645	3201.956921
392.996200	3232.077815
393.379694	3271.224895
393.763125	3315.408088
394.146494	3339.313240
394.529801	3373.945967
394.913047	3422.328441
395.296230	3429.088628
395.679351	3448.295424
396.062410	3503.110411
396.445408	3481.108295
396.828343	3523.474152
397.211217	3555.230900
397.594028	3530.055378
397.976778	3579.425918
398.359466	3609.163685
398.742092	3620.975108
399.124656	3635.057571
399.507158	3698.258517
399.889598	3700.217005
400.271977	3765.772170
400.654294	3752.314810
401.036549	3811.107267
401.418742	3812.604489
401.800874	3881.582597
402.182944	3910.014705
402.564952	3993.904546
402.946898	3988.387003
403.328783	3982.357783
403.710606	4031.761091
404.092367	4104.046196
404.474067	4169.198068
404.855705	4150.568484
405.237282	4121.420533
405.618797	4219.380234
406.000250	4297.550886
406.381642	4380.117425
406.762972	4377.357393
407.144240	4340.617464
407.525447	4404.856887
407.906593	4421.961522
408.287677	4501.377339
408.668700	4525.315258
409.049661	4559.905135
409.430560	4591.573664
409.811399	4565.319335
410.192176	4610.193166
410.572891	4685.273590
410.953545	4784.256646
411.334138	4674.936704
411.714669	4775.669041
412.095139	4677.386705
412.475547	4779.044093
412.855894	4773.065285
413.236180	4856.665259
413.616405	4773.334986
413.996568	4856.962687
414.376670	4845.620091
414.756711	4827.020754
415.136691	4873.401890
415.516609	4934.810706
415.896466	4943.549546
416.276262	4993.303214
416.655997	5072.088887
417.035670	5137.465090
417.415283	5239.878651
417.794834	5275.572541
418.174324	5211.476791
418.553753	5185.025856
418.933121	5295.328823
419.312428	5272.875524
419.691674	5175.203168
420.070859	5331.289894
420.449983	5197.285943
420.829045	5314.447399
421.208047	5217.057348
421.586988	5307.412469
421.965867	5321.177339
422.344686	5339.219629
422.723444	5425.108288
423.102141	5095.525211
423.480777	5342.932439
423.859352	5160.122556
424.237866	5374.064084
424.616319	5317.698943
424.994712	5380.814189
425.373044	5269.359319
425.751314	5418.844654
426.129524	5185.948388
426.507673	5294.655829
426.885762	5271.161532
427.263789	5233.887240
427.641756	5228.112598
428.019662	5216.064241
428.397508	5178.094270
428.775292	5104.528712
429.153016	5133.701869
429.530679	5037.851890
429.908282	5001.149770
430.285824	4912.624588
430.663305	4985.670907
431.040726	4869.754615
431.418086	4802.767763
431.795385	4800.345489
432.172624	4821.251154
432.549802	4710.267631
432.926920	4695.035785
433.303977	4612.408753
433.680974	4565.848656
434.057910	4578.673351
434.434786	4534.159963
434.811601	4456.516111
435.188355	4504.359182
435.565050	4408.340324
435.941683	4347.042414
436.318257	4382.852251
436.694770	4308.217968
437.071222	4312.787774
437.447614	4184.823125
437.823946	4113.079944
438.200218	4090.266202
438.576429	4004.538860
438.952580	3984.603617
439.328670	3926.854679
439.704700	3886.250706
440.080670	3809.441165
440.456580	3809.874704
440.832429	3754.701796
441.208218	3653.046929
441.583947	3621.123822
441.959616	3593.097527
442.335224	3549.912483
442.710773	3514.702544
443.086261	3493.796879
443.461689	3408.447624
443.837057	3387.073131
444.212365	3370.883466
444.587612	3327.353102
444.962800	3268.341355
445.337927	3243.770772
445.712995	3156.929335
446.088002	3193.177752
446.462949	3160.657268
446.837837	3120.799385
447.212664	3087.744539
447.587431	3119.871813
447.962139	3161.446209
448.336786	3194.753112
448.711374	3146.778972
449.085901	3028.427803
449.460369	2990.606546
449.834776	2944.220369
450.209124	2960.820888
450.583412	2929.013728
450.957640	2918.417223
451.331808	2874.339894
451.705917	2821.680001
452.079965	2797.051444
452.453954	2783.357150
452.827883	2759.363778
453.201752	2742.188567
453.575562	2727.733058
453.949311	2718.868189
454.323001	2705.683051
454.696632	2689.112778
455.070202	2689.944569
455.443713	2679.713547
455.817164	2671.612413
456.190556	2666.886331
456.563888	2652.897129
456.937160	2646.734319
457.310373	2629.503655
457.683526	2620.916049
458.056619	2617.472941
458.429653	2606.422732
458.802628	2603.645056
459.175542	2599.791094
459.548398	2599.768409
459.921194	2601.666403
460.293930	2599.067688
460.666607	2605.822835
461.039224	2610.937085
461.411782	2607.466251
461.784280	2598.679520
462.156719	2592.912440
462.529099	2589.194589
462.901419	2582.956161
463.273680	2574.338308
463.645882	2570.355797
464.018024	2569.115673
464.390106	2564.767678
464.762130	2575.149934
465.134094	2582.038671
465.505999	2601.293358
465.877845	2612.169647
466.249631	2619.265071
466.621358	2613.699637
466.993026	2603.897114
467.364634	2600.406115
467.736184	2588.471183
468.107674	2582.429360
468.479105	2581.300142
468.850477	2575.449883
469.221790	2571.174984
469.593043	2565.579303
469.964238	2561.435475
470.335373	2560.364230
470.706449	2560.833057
471.077467	2563.860270
471.448425	2576.828638
471.819324	2584.599577
472.190164	2583.356932
472.560945	2573.360324
472.931667	2563.048644
473.302330	2558.952707
473.672934	2553.014228
474.043479	2555.948179
474.413965	2555.060936
474.784393	2552.391645
475.154761	2556.389280
475.525070	2555.234856
475.895321	2550.559186
476.265513	2554.259392
476.635645	2555.340720
477.005719	2555.224773
477.375734	2556.079249
477.745691	2558.156204
478.115588	2559.141750
478.485427	2563.393963
478.855207	2571.006106
479.224928	2578.943402
479.594591	2581.776531
479.964194	2579.666808
480.333739	2584.960019
480.703226	2581.852148
481.072653	2583.707293
481.442022	2584.009762
481.811333	2580.566654
482.180584	2581.894998
482.549777	2578.141859
482.918912	2573.839234
483.287988	2579.828125
483.657005	2575.976683
484.025964	2577.085737
484.394864	2573.919892
484.763706	2575.797722
485.132489	2574.061045
485.501213	2575.500294
485.869879	2576.450552
486.238487	2571.154820
486.607036	2574.910479
486.975527	2573.514080
487.343959	2573.977866
487.712333	2573.506518
488.080648	2574.981055
488.448905	2576.309399
488.817104	2575.172619
489.185244	2576.228741
489.553326	2580.725450
489.921350	2588.884558
490.289315	2596.111052
490.657222	2600.574993
491.025070	2602.694799
491.392861	2600.816969
491.760593	2597.895620
492.128267	2593.204827
492.495883	2586.585792
492.863440	2583.573702
493.230939	2584.660071
493.598380	2585.106213
493.965763	2579.636561
494.333088	2578.492219
494.700354	2573.992989
495.067563	2579.389544
495.434713	2574.759245
495.801805	2577.877198
496.168839	2575.424677
496.535815	2576.672362
496.902733	2579.465162
497.269593	2577.660429
497.636395	2578.459452
498.003139	2577.733525
498.369825	2576.478278
498.736453	2578.744277
499.103023	2578.033474
499.469535	2577.816704
499.835989	2576.445511
500.202385	2575.099522
500.568723	2572.122721
500.935003	2576.483319
501.301226	2572.742783
501.667390	2576.954667
502.033497	2581.630337
502.399546	2581.622776
502.765537	2579.157651
503.131470	2581.690831
503.497345	2582.005903
503.863163	2577.473906
504.228923	2580.947261
504.594625	2581.108578
504.960269	2580.183526
505.325856	2582.126891
505.691385	2578.668659
506.056856	2580.024730
506.422270	2584.168558
506.787625	2581.048084
507.152924	2582.152097
507.518164	2582.676377
507.883347	2581.872313
508.248472	2582.013465
508.613540	2581.279977
508.978550	2585.786769
509.343503	2583.069587
509.708398	2586.018662
510.073236	2588.173755
510.438016	2586.931111
510.802738	2585.098651
511.167403	2586.263158
511.532010	2587.160483
511.896561	2588.743405
512.261053	2589.613004
512.625488	2589.323138
512.989866	2590.535536
513.354186	2588.839187
513.718449	2587.629310
514.082655	2592.153746
514.446803	2587.291553
514.810894	2592.136102
515.174927	2588.874475
515.538904	2589.711307
515.902822	2592.299939
516.266684	2590.822881
516.630488	2590.845567
516.994235	2590.016297
517.357925	2592.057964
517.721558	2593.023345
518.085133	2594.926381
518.448651	2591.939497
518.812112	2588.423292
519.175516	2588.345154
519.538863	2586.789958
519.902152	2593.804724
520.265385	2593.257759
520.628560	2590.608632
520.991678	2590.263313
521.354739	2589.613004
521.717743	2592.201637
522.080690	2589.902871
522.443580	2591.344641
522.806413	2592.312542
523.169189	2590.928746
523.531908	2590.648962
523.894569	2587.299115
524.257174	2591.165680
524.619722	2588.819023
524.982213	2588.703076
525.344647	2587.306677
525.707025	2586.782397
526.069345	2588.224167
526.431608	2585.353229
526.793815	2588.635021
527.155964	2585.081007
527.518057	2582.434401
527.880093	2584.934814
528.242072	2585.716193
528.603995	2584.007241
528.965860	2584.118147
529.327669	2585.885071
529.689421	2586.479927
530.051117	2585.479258
530.412755	2580.922055
530.774337	2583.934145
531.135862	2580.342322
531.497331	2581.267374
531.858743	2581.728640
532.220098	2579.608835
532.581396	2580.969946
532.942638	2582.540266
533.303824	2578.724112
533.664953	2584.362643
534.026025	2579.024061
534.387040	2579.873495
534.747999	2580.639751
535.108902	2580.559092
535.469748	2578.913155
535.830537	2581.519432
536.191270	2580.117991
536.551947	2575.046590
536.912567	2576.442990
537.273131	2577.816704
537.633638	2571.036352
537.994089	2579.840728
538.354483	2576.248906
538.714821	2577.627661
539.075103	2578.046077
539.435328	2577.146231
539.795497	2577.499112
540.155609	2576.203535
540.515665	2575.490212
540.875665	2576.523648
541.235609	2573.879563
541.595496	2577.405850
541.955328	2577.201684
542.315102	2576.019533
542.674821	2572.775551
543.034483	2574.988617
543.394090	2576.722774
543.753640	2576.737898
544.113134	2575.981724
544.472571	2575.142372
544.831953	2577.814184
545.191278	2575.956519
545.550548	2573.929975
545.909761	2575.026426
546.268918	2576.160685
546.628019	2575.704461
546.987064	2574.386199
547.346053	2573.483833
547.704986	2576.929461
548.063863	2574.237485
548.422684	2576.067424
548.781449	2572.024419
549.140158	2573.872002
549.498811	2577.647826
549.857408	2573.365366
550.215949	2574.580284
550.574434	2571.273287
550.932864	2573.201528
551.291237	2576.067424
551.649555	2575.207907
552.007817	2576.261508
552.366022	2573.078020
552.724173	2573.496436
553.082267	2575.893504
553.440305	2574.741601
553.798288	2572.813359
554.156215	2573.536765
554.514086	2573.388051
554.871902	2567.268090
555.229661	2572.647001
555.587365	2569.884449
555.945014	2573.839234
556.302606	2570.678431
556.660143	2570.993503
557.017625	2576.415264
557.375050	2574.696230
557.732421	2571.815211
558.089735	2573.597259
558.446994	2573.501477
558.804197	2573.440983
559.161345	2573.554409
559.518437	2574.303020
559.875474	2572.843606
560.232455	2574.265212
560.589381	2574.166909
560.946251	2572.969635
561.303065	2575.757393
561.659825	2575.790161
562.016528	2572.205900
562.373177	2573.587176
562.729770	2572.737742
563.086307	2572.180694
563.442789	2574.416446
563.799216	2575.638926
564.155587	2573.214131
564.511904	2571.053997
564.868164	2573.624985
565.224370	2576.019533
565.580520	2569.859243
565.936615	2576.609348
566.292654	2569.919737
566.648638	2574.539954
567.004567	2572.059707
567.360441	2574.618092
567.716260	2571.041394
568.072023	2572.299162
568.427732	2569.592062
568.783385	2571.084243
569.138982	2570.121383
569.494525	2573.917372
569.850013	2574.358473
570.205445	2570.537278
570.560823	2570.189439
570.916145	2571.744635
571.271412	2570.355797
571.626625	2570.854871
571.981782	2569.990313
572.336884	2565.160888
572.691931	2567.084088
573.046923	2566.993347
573.401860	2565.070147
573.756743	2568.407391
574.111570	2568.276321
574.466342	2570.507031
574.821059	2569.060220
575.175722	2570.086095
575.530330	2567.787329
575.884882	2569.655076
576.239380	2567.227761
576.593823	2569.050138
576.948211	2568.140210
577.302544	2566.496793
577.656823	2566.166598
578.011047	2567.255487
578.365216	2564.190466
578.719330	2567.290775
579.073389	2565.957390
579.427394	2565.589386
579.781344	2562.887327
580.135239	2563.701474
580.489080	2568.094839
580.842866	2564.855898
581.196597	2563.431772
581.550273	2563.605692
581.903895	2565.264231
582.257463	2567.124417
582.610975	2561.301884
582.964434	2566.380847
583.317837	2563.913202
583.671186	2563.719118
584.024481	2563.940928
584.377721	2560.974209
584.730906	2562.496638
585.084037	2564.162739
585.437113	2562.363047
585.790135	2561.876576
586.143103	2559.875238
586.496016	2564.989488
586.848874	2560.575958
587.201679	2561.639642
587.554428	2560.636452
587.907124	2561.932029
588.259765	2558.531770
588.612352	2558.897254
588.964884	2560.076884
589.317362	2561.362378
589.669786	2560.442368
590.022155	2557.964641
590.374470	2555.461708
590.726731	2558.993036
591.078937	2551.968188
591.431090	2558.050340
591.783188	2558.919939
592.135232	2557.972202
592.487222	2557.142932
592.839157	2558.940104
593.191038	2557.359702
593.542866	2555.159238
593.894639	2557.394990
594.246358	2555.401214
594.598022	2557.347099
594.949633	2555.038251
595.301190	2556.255689
595.652692	2554.705535
596.004141	2555.050854
596.355535	2555.754095
596.706876	2553.399876
597.058162	2554.012376
597.409395	2553.977088
597.760573	2553.046995
598.111698	2554.415668
598.462768	2552.142108
598.813785	2550.518856
599.164748	2553.498178
599.515657	2550.125646
599.866511	2548.222611
600.217312	2553.278888
600.568060	2551.428785
600.918753	2552.222766
601.269392	2551.713610
601.619978	2550.937272
601.970510	2552.298384
602.320988	2550.113043
602.671412	2552.535318
603.021783	2549.349309
603.372100	2551.736295
603.722363	2552.086655
604.072572	2554.551779
604.422728	2550.687735
604.772830	2550.768393
605.122878	2549.555996
605.472872	2548.600697
605.822813	2549.230842
606.172701	2549.820657
606.522534	2549.162786
606.872314	2549.850903
607.222041	2550.324772
607.571714	2548.930893
607.921333	2546.551468
608.270899	2547.287477
608.620411	2544.635830
608.969870	2551.930379
609.319276	2549.984494
609.668627	2551.544731
610.017926	2546.561551
610.367171	2551.343085
610.716362	2552.573127
611.065500	2549.447611
611.414585	2550.914587
611.763616	2551.242262
612.112594	2552.129505
612.461518	2551.612787
612.810389	2553.793086
613.159207	2553.631769
613.507971	2555.814588
613.856682	2551.688404
614.205340	2551.315359
614.553945	2552.946172
614.902496	2552.537838
615.250994	2551.201933
615.599439	2552.464742
615.947830	2554.234187
616.296169	2553.339382
616.644454	2552.205122
616.992686	2549.906356
617.340864	2554.793755
617.688990	2551.499361
618.037063	2553.064639
618.385082	2552.396686
618.733048	2555.771739
619.080961	2553.823333
619.428821	2553.586398
619.776628	2553.772921
620.124382	2552.772252
620.472083	2552.038764
620.819731	2551.106151
621.167326	2551.199412
621.514868	2548.043650
621.862357	2552.031203
622.209793	2550.707900
622.557176	2548.966181
622.904506	2547.826880
623.251783	2549.555996
623.599007	2549.480379
623.946179	2547.048022
624.293297	2549.545914
624.640363	2546.052394
624.987376	2545.255892
625.334336	2539.062834
625.681243	2544.161961
626.028097	2542.916796
626.374899	2545.785213
626.721647	2545.568443
627.068343	2545.485264
627.414987	2543.622558
627.761577	2542.911755
628.108115	2542.949564
628.454600	2544.093906
628.801032	2543.357897
629.147412	2542.251364
629.493739	2542.195911
629.840014	2544.237579
630.186236	2541.739687
630.532405	2541.361600
630.878521	2543.294883
631.224585	2540.832279
631.570597	2541.863195
631.916556	2540.459234
632.262462	2540.071065
632.608316	2543.254554
632.954117	2539.251878
633.299866	2542.016950
633.645562	2538.518390
633.991206	2540.250026
634.336797	2538.341949
634.682336	2538.793132
635.027823	2538.089892
635.373257	2537.248019
635.718639	2536.668286
636.063968	2537.684079
636.409245	2533.872966
636.754470	2534.810621
637.099642	2534.059489
637.444762	2534.014119
637.789829	2531.916999
638.134845	2535.390354
638.479808	2535.009747
638.824719	2536.627957
639.169577	2531.942204
639.514383	2532.375744
639.859137	2530.830630
640.203839	2531.974972
640.548489	2533.378933
640.893086	2528.370547
641.237632	2530.102183
641.582125	2532.363141
641.926566	2532.645445
642.270955	2527.264014
642.615292	2528.791483
642.959576	2528.879703
643.303809	2524.209074
643.647990	2532.133768
643.992118	2529.325846
644.336195	2531.286854
