Dividing Wavelength (nm)	Counts (n)	Blue Motor Position (mm): 0.000000	Red Motor Position (mm): 34.500000	
326.493990	2051.898329
326.888308	2051.898329
327.282561	2051.898329
327.676750	2026.218692
328.070874	2031.567356
328.464933	2032.731862
328.858929	2041.072452
329.252859	2051.341282
329.646726	2063.114897
330.040528	2083.856724
330.434265	2100.056472
330.827938	2120.621859
331.221547	2140.065590
331.615091	2160.613333
332.008571	2182.965809
332.401986	2203.135465
332.795338	2221.926366
333.188625	2239.767010
333.581847	2260.738210
333.975006	2277.817639
334.368100	2293.745165
334.761129	2311.313586
335.154095	2326.641214
335.546996	2348.965964
335.939833	2385.448794
336.332606	2398.505383
336.725315	2410.200860
337.117960	2420.247879
337.510540	2431.648449
337.903056	2438.665735
338.295508	2450.746860
338.687896	2457.370936
339.080220	2460.403190
339.472480	2463.684981
339.864676	2463.087605
340.256807	2469.063892
340.648875	2470.170426
341.040879	2471.067751
341.432818	2473.636219
341.824694	2477.235603
342.216506	2473.217803
342.608253	2475.302320
342.999937	2475.753504
343.391557	2475.027578
343.783113	2471.944912
344.174605	2469.111783
344.566033	2468.078347
344.957397	2467.909468
345.348697	2466.324025
345.739934	2464.660445
346.131106	2461.633232
346.522215	2460.866976
346.913260	2459.473097
347.304241	2458.069136
347.695159	2456.256841
348.086012	2453.995884
348.476802	2451.195523
348.867528	2447.969184
349.258191	2445.914914
349.648789	2446.466920
350.039324	2443.860644
350.429796	2450.265430
350.820203	2448.743001
351.210548	2446.313165
351.600828	2445.478854
351.991045	2446.572785
352.381198	2444.878957
352.771288	2445.884667
353.161314	2445.355346
353.551276	2447.270984
353.941175	2445.912393
354.331010	2446.335850
354.720782	2444.969698
355.110490	2446.766869
355.500135	2446.013217
355.889717	2444.818463
356.279235	2446.862651
356.668689	2445.864503
357.058080	2448.344750
357.447408	2449.395831
357.836672	2448.054884
358.225873	2448.014555
358.615010	2450.469597
359.004084	2451.094700
359.393095	2451.394648
359.782043	2452.942282
360.170927	2452.866665
360.559748	2455.694752
360.948505	2452.155863
361.337199	2453.471604
361.725830	2455.367078
362.114398	2455.210802
362.502903	2457.524691
362.891344	2455.593929
363.279722	2458.704321
363.668037	2458.411934
364.056289	2458.122068
364.444478	2459.997377
364.832603	2459.372274
365.220665	2461.633232
365.608665	2463.105249
365.996601	2462.606174
366.384474	2461.527368
366.772284	2459.657099
367.160031	2463.763119
367.547715	2458.827830
367.935336	2462.313788
368.322893	2461.265228
368.710388	2461.739096
369.097820	2459.286575
369.485189	2461.696246
369.872495	2464.231947
370.259738	2467.801083
370.646918	2465.638428
371.034035	2466.868470
371.421090	2468.562298
371.808081	2467.604478
372.195010	2472.973307
372.581875	2471.871815
372.968678	2472.567494
373.355418	2475.778709
373.742096	2477.008751
374.128710	2477.563278
374.515262	2482.675008
374.901751	2483.216932
375.288177	2485.808085
375.674540	2492.666575
376.060841	2493.392501
376.447079	2495.875269
376.833254	2505.188801
377.219367	2506.262567
377.605417	2517.852179
377.991404	2520.670184
378.377329	2528.478932
378.763191	2533.033614
379.148991	2542.137938
379.534727	2550.607077
379.920402	2561.909343
380.306013	2567.172308
380.691563	2582.789803
381.077049	2590.233066
381.462474	2600.426279
381.847835	2616.084103
382.233134	2629.748151
382.618371	2640.284162
383.003545	2657.449291
383.388657	2669.207782
383.773706	2690.693180
384.158693	2705.662887
384.543618	2720.037737
384.928480	2734.226064
385.313280	2757.324631
385.698017	2775.417332
386.082692	2799.929943
386.467305	2813.941830
386.851856	2838.280521
387.236344	2866.483256
387.620770	2878.627396
388.005133	2900.536250
388.389435	2937.692075
388.773674	2950.123560
389.157851	2980.743528
389.541965	3009.687313
389.926018	3020.833304
390.310008	3053.626010
390.693936	3079.482088
391.077802	3107.581480
391.461606	3139.023156
391.845348	3153.607214
392.229027	3182.775331
392.612645	3226.041033
392.996200	3253.913573
393.379694	3290.963533
393.763125	3336.154957
394.146494	3358.394007
394.529801	3395.849780
394.913047	3440.093467
395.296230	3448.965898
395.679351	3470.416007
396.062410	3516.267822
396.445408	3498.769977
396.828343	3541.967624
397.211217	3574.039445
397.594028	3548.763100
397.976778	3594.824122
398.359466	3629.880306
398.742092	3636.519506
399.124656	3654.433246
399.507158	3713.480281
399.889598	3715.118656
400.271977	3783.194398
400.654294	3770.243673
401.036549	3830.719876
401.418742	3833.356399
401.800874	3897.593302
402.182944	3921.372425
402.564952	4008.622195
402.946898	4008.014736
403.328783	3999.243128
403.710606	4050.710788
404.092367	4119.981283
404.474067	4184.276159
404.855705	4171.113707
405.237282	4138.366371
405.618797	4236.217688
406.000250	4313.518741
406.381642	4396.879261
406.762972	4399.339344
407.144240	4360.814847
407.525447	4431.146504
407.906593	4447.726859
408.287677	4533.003018
408.668700	4557.873550
409.049661	4595.616669
409.430560	4632.364160
409.811399	4611.821458
410.192176	4664.438502
410.572891	4745.396912
410.953545	4848.198642
411.334138	4751.121142
411.714669	4858.089385
412.095139	4768.135036
412.475547	4884.668869
412.855894	4888.565681
413.236180	4988.362883
413.616405	4916.022325
413.996568	5019.791957
414.376670	5023.673645
414.756711	5018.924878
415.136691	5092.054377
415.516609	5175.041851
415.896466	5206.894382
416.276262	5285.617040
416.655997	5399.461417
417.035670	5488.473071
417.415283	5628.254185
417.794834	5705.204878
418.174324	5668.825391
418.553753	5666.982849
418.933121	5831.435370
419.312428	5847.776270
419.691674	5766.626296
420.070859	5995.366131
420.449983	5871.890630
420.829045	6068.689714
421.208047	5993.339588
421.586988	6149.522095
421.965867	6227.294496
422.344686	6307.501775
422.723444	6472.768442
423.102141	6088.758548
423.480777	6482.276058
423.859352	6293.842768
424.237866	6662.514952
424.616319	6655.112018
424.994712	6818.979764
425.373044	6734.452217
425.751314	7046.897892
426.129524	6769.647033
426.507673	7032.076899
426.885762	7073.961326
427.263789	7116.738037
427.641756	7202.210800
428.019662	7284.467308
428.397508	7326.049265
428.775292	7302.043291
429.153016	7470.468241
429.530679	7410.909528
429.908282	7458.503062
430.285824	7399.647591
430.663305	7683.502361
431.040726	7567.344094
431.418086	7567.538178
431.795385	7701.983231
432.172624	7891.770070
432.549802	7780.746219
432.926920	7913.890653
433.303977	7858.352262
433.680974	7895.818117
434.057910	8100.960311
434.434786	8150.930748
434.811601	8106.714788
435.188355	8440.426570
435.565050	8338.186929
435.941683	8338.305396
436.318257	8679.135287
436.694770	8629.434551
437.071222	8856.558696
437.447614	8634.339594
437.823946	8600.100077
438.200218	8747.674814
438.576429	8625.134447
438.952580	8793.261969
439.328670	8803.853433
439.704700	8876.574598
440.080670	8772.111808
440.456580	9040.575935
440.832429	9017.331175
441.208218	8759.193851
441.583947	8873.020584
441.959616	8990.315631
442.335224	9020.612966
442.710773	9100.270758
443.086261	9286.465776
443.461689	9001.131427
443.837057	9166.186366
444.212365	9387.303976
444.587612	9365.808496
444.962800	9262.742106
445.337927	9396.713290
445.712995	8937.975852
446.088002	9606.805897
446.462949	9668.580196
446.837837	9654.036467
447.212664	9676.121762
447.587431	10499.468214
447.962139	11497.634320
448.336786	12441.625666
448.711374	12234.431722
449.085901	11018.497852
449.460369	10952.655342
449.834776	10720.253109
450.209124	11630.693055
450.583412	11452.316867
450.957640	11765.412850
451.331808	11360.005779
451.705917	10798.068359
452.079965	10672.730151
452.453954	10871.550738
452.827883	10819.490743
453.201752	10783.766606
453.575562	10794.670622
453.949311	11138.137036
454.323001	11201.847138
454.696632	11117.133069
455.070202	11700.815505
455.443713	11761.203487
455.817164	11930.873602
456.190556	12244.486303
456.563888	12116.047786
456.937160	12376.289791
457.310373	11867.491175
457.683526	11876.590457
458.056619	11893.077551
458.429653	11960.850823
458.802628	12094.597676
459.175542	12149.773105
459.548398	12695.110004
459.921194	13268.571501
460.293930	13549.061301
460.666607	14408.557868
461.039224	15203.653693
461.411782	15566.689867
461.784280	15234.208127
462.156719	15189.515777
462.529099	15104.131234
462.901419	14458.316577
463.273680	14059.727665
463.645882	14270.039563
464.018024	14156.328776
464.390106	14511.704916
464.762130	15572.252780
465.134094	17095.752487
465.505999	19371.099961
465.877845	21651.259216
466.249631	22905.095000
466.621358	22468.228608
466.993026	21665.233294
467.364634	20923.762742
467.736184	20112.716706
468.107674	19503.210959
468.479105	19359.250728
468.850477	19083.565148
469.221790	18653.111103
469.593043	17979.156725
469.964238	17594.841841
470.335373	17640.381104
470.706449	18372.124750
471.077467	19209.278922
471.448425	21676.936333
471.819324	23555.454258
472.190164	23480.099090
472.560945	21734.513871
472.931667	20161.941052
473.302330	19819.349278
473.672934	19269.084651
474.043479	19690.938487
474.413965	19472.830445
474.784393	19296.069947
475.154761	19950.023548
475.525070	20091.904302
475.895321	19926.665361
476.265513	20445.016964
476.635645	21037.062675
477.005719	21109.998089
477.375734	21453.038526
477.745691	22095.057194
478.115588	22737.176686
478.485427	23912.902312
478.855207	25720.314763
479.224928	27521.929886
479.594591	28965.373549
479.964194	28619.431928
480.333739	29093.335678
480.703226	29310.601847
481.072653	29744.032693
481.442022	30253.980692
481.811333	30675.968119
482.180584	30237.942261
482.549777	30019.572080
482.918912	29790.638160
483.287988	29725.400588
483.657005	29580.971530
484.025964	29215.394615
484.394864	29406.227494
484.763706	29324.076851
485.132489	28785.348904
485.501213	28856.953453
485.869879	29031.558858
486.238487	28951.281003
486.607036	29238.220960
486.975527	28917.386806
487.343959	29275.953996
487.712333	29627.400557
488.080648	29583.255173
488.448905	30018.652069
488.817104	29890.463088
489.185244	30716.526722
489.553326	31671.744718
489.921350	33562.333686
490.289315	36069.791006
490.657222	36988.816037
491.025070	37596.822041
491.392861	37312.984915
491.760593	36559.884421
492.128267	35557.413170
492.495883	34572.538067
492.863440	33674.295192
493.230939	32691.998639
493.598380	32130.015849
493.965763	31958.757771
494.333088	31471.694089
494.700354	31263.053334
495.067563	31212.903936
495.434713	31090.829875
495.801805	31391.166697
496.168839	31212.730016
496.535815	31063.595041
496.902733	31192.497345
497.269593	31005.248727
497.636395	31154.292961
498.003139	31431.311926
498.369825	31185.996777
498.736453	31583.746336
499.103023	31422.820102
499.469535	31511.834277
499.835989	31627.679992
500.202385	31494.452378
500.568723	31520.283250
500.935003	31835.988031
501.301226	31692.375640
501.667390	32417.459921
502.033497	32625.911632
502.399546	32416.073604
502.765537	32025.089273
503.131470	32486.274192
503.497345	32916.088010
503.863163	31853.657275
504.228923	32619.630355
504.594625	32990.881089
504.960269	32472.630309
505.325856	33134.211175
505.691385	32778.441824
506.056856	33119.231386
506.422270	33580.444031
506.787625	33074.947370
507.152924	33533.994839
507.518164	33700.494069
507.883347	33264.260341
508.248472	33384.121336
508.613540	34054.239396
508.978550	34270.250317
509.343503	34097.696662
509.708398	34440.021256
510.073236	35011.252042
510.438016	35075.420889
510.802738	34728.581943
511.167403	35248.667703
511.532010	35490.673334
511.896561	35983.854456
512.261053	36691.803856
512.625488	36449.631866
512.989866	36323.166960
513.354186	36359.145675
513.718449	36290.596065
514.082655	37145.139697
514.446803	36802.333674
514.810894	37395.052379
515.174927	37345.293670
515.538904	37307.976528
515.902822	37899.623988
516.266684	37557.044817
516.630488	37859.340127
516.994235	37819.555341
517.357925	38335.242695
517.721558	38543.495281
518.085133	38855.809885
518.448651	38981.556426
518.812112	38836.847585
519.175516	38924.510729
519.538863	39309.271756
519.902152	39310.867281
520.265385	39789.015682
520.628560	39731.284388
520.991678	39618.143252
521.354739	39777.216861
521.717743	40057.994007
522.080690	39896.762784
522.443580	40488.420325
522.806413	40419.825345
523.169189	40462.907046
523.531908	40618.935798
523.894569	40399.698538
524.257174	40496.045071
524.619722	40738.534653
524.982213	40811.381847
525.344647	40761.938210
525.707025	40777.520416
526.069345	41124.865998
526.431608	40953.297889
526.793815	41208.148381
527.155964	40681.889728
527.518057	40825.981028
527.880093	40594.193815
528.242072	41082.694226
528.603995	40736.346792
528.965860	40544.787987
529.327669	40662.141007
529.689421	40601.798396
530.051117	40453.883380
530.412755	40605.806113
530.774337	40538.446216
531.135862	40357.226817
531.497331	40393.550851
531.858743	40274.289754
532.220098	40521.870902
532.581396	40158.403709
532.942638	39807.519237
533.303824	39917.355897
533.664953	39848.791164
534.026025	39416.081203
534.387040	39818.181278
534.747999	39727.299356
535.108902	39900.601622
535.469748	39157.427161
535.830537	39278.898804
536.191270	39343.828865
536.551947	38961.507758
536.912567	39067.563552
537.273131	39037.898882
537.633638	38583.670756
537.994089	38580.099099
538.354483	38218.625683
538.714821	38628.325297
539.075103	38722.879699
539.435328	38463.487128
539.795497	38082.585105
540.155609	38059.325221
540.515665	38385.238338
540.875665	37617.715103
541.235609	37701.065541
541.595496	37658.699684
541.955328	37976.708271
542.315102	37326.991761
542.674821	37091.610205
543.034483	36828.603127
543.394090	36679.314397
543.753640	36479.840980
544.113134	37182.706376
544.472571	36276.833715
544.831953	37020.691253
545.191278	36233.799905
545.550548	35811.542777
545.909761	36136.568650
546.268918	36066.950316
546.628019	36194.884718
546.987064	35581.225060
547.346053	34839.295764
547.704986	35374.079008
548.063863	34899.935803
548.422684	34859.180595
548.781449	34333.489072
549.140158	34556.852517
549.498811	34168.242569
549.857408	33512.731252
550.215949	33951.203252
550.574434	33621.547079
550.932864	33401.876279
551.291237	33721.830752
551.649555	33319.077848
552.007817	33228.269023
552.366022	32806.498366
552.724173	32661.459329
553.082267	32731.692684
553.440305	32789.910449
553.798288	32034.541437
554.156215	32095.819182
554.514086	32036.661242
554.871902	31528.943953
555.229661	31438.835848
555.587365	31009.069921
555.945014	30877.286598
556.302606	30670.543837
556.660143	30516.362668
557.017625	30460.841920
557.375050	30027.433759
557.732421	30077.653734
558.089735	29903.983463
558.446994	29580.359030
558.804197	29682.606233
559.161345	29362.089672
559.518437	28720.723832
559.875474	28650.092226
560.232455	28557.783658
560.589381	28365.846766
560.946251	28048.191059
561.303065	28205.580924
561.659825	27780.034442
562.016528	27440.404346
562.373177	26978.531310
562.729770	27120.822918
563.086307	26614.630578
563.442789	26692.312239
563.799216	26388.633131
564.155587	26116.125998
564.511904	25868.706167
564.868164	25680.071232
565.224370	25620.560410
565.580520	25252.099955
565.936615	25132.770803
566.292654	24733.014864
566.648638	24707.453694
567.004567	24447.302429
567.360441	24262.627319
567.716260	23897.413367
568.072023	23877.238670
568.427732	23609.311425
568.783385	23161.528414
569.138982	23160.590759
569.494525	23004.040247
569.850013	22595.611004
570.205445	22446.506276
570.560823	22125.427626
570.916145	21858.001976
571.271412	21742.337742
571.626625	21374.348635
571.981782	21202.210875
572.336884	20817.215435
572.691931	20747.909652
573.046923	20400.319574
573.401860	20117.815833
573.756743	19923.998591
574.111570	19782.480800
574.466342	19556.571572
574.821059	19412.321476
575.175722	19008.464559
575.530330	18843.568416
575.884882	18515.694291
576.239380	18280.128733
576.593823	18115.686295
576.948211	17894.545999
577.302544	17518.967435
577.656823	17338.234507
578.011047	17239.672388
578.365216	17001.462745
578.719330	16714.719394
579.073389	16532.423709
579.427394	16363.038419
579.781344	16164.306052
580.135239	15904.497586
580.489080	15754.634165
580.842866	15422.114616
581.196597	15410.807308
581.550273	15240.628036
581.903895	15043.897007
582.257463	15017.962791
582.610975	14691.046485
582.964434	14617.609476
583.317837	14318.936234
583.671186	14150.823836
584.024481	14062.747317
584.377721	13784.606694
584.730906	13690.511037
585.084037	13565.465216
585.437113	13342.442049
585.790135	13228.998444
586.143103	12956.909727
586.496016	12839.218949
586.848874	12720.358623
587.201679	12574.354205
587.554428	12300.899335
587.907124	12221.828837
588.259765	12036.478213
588.612352	11942.329624
588.964884	11680.797083
589.317362	11610.856115
589.669786	11484.534882
590.022155	11322.701240
590.374470	11284.552308
590.726731	11065.546941
591.078937	10799.956272
591.431090	10741.854453
591.783188	10522.024857
592.135232	10354.174599
592.487222	10276.976889
592.839157	10192.565289
593.191038	10009.422690
593.542866	9859.418116
593.894639	9633.229105
594.246358	9568.568745
594.598022	9451.974418
594.949633	9259.835881
595.301190	9152.386207
595.652692	9031.504379
596.004141	9011.002006
596.355535	8723.956186
596.706876	8618.316286
597.058162	8471.016291
597.409395	8443.179040
597.760573	8377.356694
598.111698	8217.579843
598.462768	8111.324923
598.813785	8006.010178
599.164748	7862.977520
599.515657	7806.463665
599.866511	7647.256465
600.217312	7643.233624
600.568060	7421.415293
600.918753	7441.743746
601.269392	7337.989238
601.619978	7220.908440
601.970510	7160.475088
602.320988	7094.191476
602.671412	7039.598301
603.021783	6943.559279
603.372100	6811.907026
603.722363	6746.089721
604.072572	6680.368198
604.422728	6595.765034
604.772830	6497.006309
605.122878	6443.209636
605.472872	6353.645976
605.822813	6305.346681
606.172701	6208.543925
606.522534	6167.090517
606.872314	6124.238188
607.222041	6037.273243
607.571714	5995.141800
607.921333	5892.065327
608.270899	5838.850907
608.620411	5803.235155
608.969870	5725.482919
609.319276	5664.235420
609.668627	5606.088231
610.017926	5578.240897
610.367171	5529.989493
610.716362	5474.788859
611.065500	5412.465074
611.414585	5371.689701
611.763616	5329.404503
612.112594	5263.360346
612.461518	5223.578080
612.810389	5192.325447
613.159207	5126.029233
613.507971	5070.574020
613.856682	5051.866298
614.205340	4993.028471
614.553945	4989.451772
614.902496	4903.679060
615.250994	4878.909351
615.599439	4841.496427
615.947830	4800.214419
616.296169	4756.515177
616.644454	4718.335998
616.992686	4686.397768
617.340864	4665.570241
617.688990	4609.096715
618.037063	4605.033545
618.385082	4562.559303
618.733048	4539.914440
619.080961	4494.186133
619.428821	4460.743119
619.776628	4423.730967
620.124382	4378.511817
620.472083	4343.831199
620.819731	4312.329029
621.167326	4249.879215
621.514868	4211.765571
621.862357	4153.199967
622.209793	4117.543885
622.557176	4063.585895
622.904506	4019.314482
623.251783	3971.962924
623.599007	3929.675205
623.946179	3895.859145
624.293297	3857.712734
624.640363	3809.985610
624.987376	3771.672841
625.334336	3740.185794
625.681243	3706.049620
626.028097	3678.403933
626.374899	3651.511897
626.721647	3626.049029
627.068343	3603.411728
627.414987	3572.302768
627.761577	3550.383831
628.108115	3537.596944
628.454600	3503.014629
628.801032	3488.985097
629.147412	3470.206799
629.493739	3450.130404
629.840014	3420.730395
630.186236	3419.883481
630.532405	3390.148235
630.878521	3382.581463
631.224585	3365.925491
631.570597	3345.216431
631.916556	3336.913651
632.262462	3324.129284
632.608316	3310.760144
632.954117	3299.104997
633.299866	3284.586474
633.645562	3271.141716
633.991206	3247.390320
634.336797	3230.368864
634.682336	3213.967470
635.027823	3195.141281
635.373257	3183.128211
635.718639	3162.766991
636.063968	3154.559992
636.409245	3132.015952
636.754470	3120.862400
637.099642	3107.410081
637.444762	3088.581371
637.789829	3083.570464
638.134845	3072.520255
638.479808	3061.717062
