Dividing Wavelength (nm)	Counts (n)	Blue Motor Position (mm): 0.000000	Red Motor Position (mm): 33.500000	
326.493990	2053.672816
326.888308	2053.672816
327.282561	2053.672816
327.676750	2028.449402
328.070874	2030.223888
328.464933	2033.810669
328.858929	2043.300642
329.252859	2053.841694
329.646726	2067.906513
330.040528	2085.482496
330.434265	2100.023705
330.827938	2121.720831
331.221547	2143.334778
331.615091	2159.847077
332.008571	2183.467404
332.401986	2201.459282
332.795338	2219.413351
333.188625	2239.278018
333.581847	2260.889444
333.975006	2277.000972
334.368100	2293.533436
334.761129	2313.009934
335.154095	2327.954435
335.546996	2346.415140
335.939833	2380.667260
336.332606	2395.518499
336.725315	2406.490570
337.117960	2418.697724
337.510540	2427.164342
337.903056	2434.186670
338.295508	2441.196394
338.687896	2450.572940
339.080220	2456.700463
339.472480	2457.910340
339.864676	2463.727831
340.256807	2467.876701
340.648875	2470.616568
341.040879	2470.316619
341.432818	2471.672690
341.824694	2475.297279
342.216506	2474.762917
342.608253	2471.740745
342.999937	2468.519448
343.391557	2473.164871
343.783113	2468.035497
344.174605	2468.693368
344.566033	2467.201186
344.957397	2467.052472
345.348697	2463.032152
345.739934	2463.556432
346.131106	2460.393108
346.522215	2454.699125
346.913260	2457.643158
347.304241	2454.762139
347.695159	2451.997066
348.086012	2452.584361
348.476802	2450.976233
348.867528	2448.795933
349.258191	2445.289811
349.648789	2446.875254
350.039324	2443.028853
350.429796	2445.975408
350.820203	2444.994903
351.210548	2443.716971
351.600828	2442.986004
351.991045	2444.652105
352.381198	2443.956426
352.771288	2442.819646
353.161314	2442.721343
353.551276	2445.483895
353.941175	2442.368462
354.331010	2442.736467
354.720782	2441.234203
355.110490	2443.674121
355.500135	2442.686055
355.889717	2444.914245
356.279235	2441.682865
356.668689	2444.115222
357.058080	2445.962805
357.447408	2445.655295
357.836672	2443.880808
358.225873	2447.149997
358.615010	2447.031530
359.004084	2448.009513
359.393095	2449.708382
359.782043	2445.002465
360.170927	2447.999431
360.559748	2449.668053
360.948505	2450.683846
361.337199	2451.195523
361.725830	2452.894392
362.114398	2451.891202
362.502903	2452.569237
362.891344	2454.038733
363.279722	2453.080914
363.668037	2455.404886
364.056289	2452.657457
364.444478	2453.090997
364.832603	2456.947479
365.220665	2456.375308
365.608665	2459.931842
365.996601	2457.466718
366.384474	2456.803806
366.772284	2457.771708
367.160031	2459.110134
367.547715	2458.878241
367.935336	2459.193313
368.322893	2461.562656
368.710388	2457.633076
369.097820	2462.235650
369.485189	2457.864969
369.872495	2464.670527
370.259738	2461.595423
370.646918	2462.747327
371.034035	2464.330249
371.421090	2465.799745
371.808081	2465.935857
372.195010	2465.943418
372.581875	2467.861577
372.968678	2472.474233
373.355418	2471.002216
373.742096	2474.281487
374.128710	2475.009933
374.515262	2478.750470
374.901751	2480.000676
375.288177	2482.559061
375.674540	2487.486789
376.060841	2491.865031
376.447079	2495.855105
376.833254	2500.964314
377.219367	2506.733915
377.605417	2510.991169
377.991404	2517.927797
378.377329	2522.376615
378.763191	2529.499765
379.148991	2540.345808
379.534727	2547.640357
379.920402	2556.152346
380.306013	2562.632749
380.691563	2575.555747
381.077049	2590.699373
381.462474	2595.927050
381.847835	2611.542024
382.233134	2627.517440
382.618371	2637.546816
383.003545	2656.395690
383.388657	2669.560663
383.773706	2688.676719
384.158693	2701.579552
384.543618	2718.112016
384.928480	2732.912844
385.313280	2755.008221
385.698017	2773.272321
386.082692	2797.177473
386.467305	2810.912097
386.851856	2835.442351
387.236344	2862.687267
387.620770	2879.219731
388.005133	2898.333266
388.389435	2932.998760
388.773674	2948.449897
389.157851	2982.298724
389.541965	3007.900224
389.926018	3022.234745
390.310008	3053.454611
390.693936	3080.177768
391.077802	3105.728856
391.461606	3135.751447
391.845348	3154.607883
392.229027	3182.674507
392.612645	3225.274778
392.996200	3253.091865
393.379694	3290.769449
393.763125	3330.995336
394.146494	3358.835108
394.529801	3394.939852
394.913047	3439.712860
395.296230	3449.250723
395.679351	3468.903661
396.062410	3524.568082
396.445408	3498.800224
396.828343	3541.287069
397.211217	3571.375195
397.594028	3545.221689
397.976778	3596.162549
398.359466	3632.058085
398.742092	3637.187459
399.124656	3653.639264
399.507158	3711.330229
399.889598	3719.534707
400.271977	3783.474182
400.654294	3773.089405
401.036549	3835.251873
401.418742	3830.621573
401.800874	3899.808889
402.182944	3928.800565
402.564952	4014.976569
402.946898	4006.199920
403.328783	4003.054240
403.710606	4049.959656
404.092367	4123.129484
404.474067	4187.628527
404.855705	4173.364582
405.237282	4143.089933
405.618797	4243.784460
406.000250	4313.959842
406.381642	4403.495776
406.762972	4400.113161
407.144240	4368.174931
407.525447	4433.641876
407.906593	4451.399340
408.287677	4534.265827
408.668700	4560.918407
409.049661	4600.970375
409.430560	4634.582268
409.811399	4622.105412
410.192176	4666.263399
410.572891	4751.393364
410.953545	4858.497719
411.334138	4753.926544
411.714669	4861.938306
412.095139	4777.735914
412.475547	4889.939395
412.855894	4896.404675
413.236180	4989.242564
413.616405	4919.800670
413.996568	5027.232700
414.376670	5024.712123
414.756711	5021.281618
415.136691	5094.557309
415.516609	5179.097459
415.896466	5210.324887
416.276262	5287.850271
416.655997	5400.830091
417.035670	5498.419267
417.415283	5642.155167
417.794834	5710.203182
418.174324	5670.710782
418.553753	5672.608777
418.933121	5841.540363
419.312428	5854.153330
419.691674	5775.471001
420.070859	6005.176217
420.449983	5877.045209
420.829045	6076.115334
421.208047	6003.898284
421.586988	6161.192367
421.965867	6235.788841
422.344686	6311.181817
422.723444	6482.490307
423.102141	6101.154745
423.480777	6487.279403
423.859352	6306.932124
424.237866	6670.893350
424.616319	6665.292628
424.994712	6831.496949
425.373044	6743.987560
425.751314	7060.214099
426.129524	6777.274299
426.507673	7045.577109
426.885762	7092.555622
427.263789	7130.591128
427.641756	7213.029117
428.019662	7294.274872
428.397508	7343.388314
428.775292	7312.995197
429.153016	7492.051941
429.530679	7423.429234
429.908282	7474.551575
430.285824	7414.483707
430.663305	7699.656738
431.040726	7578.517812
431.418086	7588.141374
431.795385	7713.852628
432.172624	7904.473778
432.549802	7791.720811
432.926920	7929.004033
433.303977	7869.591514
433.680974	7910.394613
434.057910	8111.955067
434.434786	8165.721494
434.811601	8124.421841
435.188355	8462.063202
435.565050	8350.855348
435.941683	8358.475052
436.318257	8696.028193
436.694770	8643.567426
437.071222	8872.637457
437.447614	8650.078076
437.823946	8613.232283
438.200218	8772.689020
438.576429	8646.531624
438.952580	8811.475657
439.328670	8820.307759
439.704700	8900.091580
440.080670	8792.074777
440.456580	9064.100480
440.832429	9033.593937
441.208218	8776.936192
441.583947	8885.046257
441.959616	9005.885235
442.335224	9038.388074
442.710773	9127.419893
443.086261	9306.171646
443.461689	9021.870734
443.837057	9191.160242
444.212365	9406.346935
444.587612	9392.269513
444.962800	9290.657495
445.337927	9412.358511
445.712995	8958.397566
446.088002	9634.585175
446.462949	9686.418319
446.837837	9673.462554
447.212664	9694.622797
447.587431	10524.820177
447.962139	11531.336954
448.336786	12479.237714
448.711374	12265.502874
449.085901	11051.346011
449.460369	10972.131840
449.834776	10741.486449
450.209124	11657.484267
450.583412	11483.398101
450.957640	11798.588684
451.331808	11388.258925
451.705917	10820.637605
452.079965	10696.703358
452.453954	10903.373022
452.827883	10848.830258
453.201752	10811.702160
453.575562	10813.383385
453.949311	11162.642085
454.323001	11229.074410
454.696632	11143.841102
455.070202	11733.242727
455.443713	11795.606841
455.817164	11967.384159
456.190556	12274.304728
456.563888	12146.259421
456.937160	12411.338413
457.310373	11902.620455
457.683526	11913.443813
458.056619	11924.148703
458.429653	11996.821977
458.802628	12129.684107
459.175542	12184.920029
459.548398	12729.258781
459.921194	13307.784117
460.293930	13584.251076
460.666607	14447.984732
461.039224	15247.662966
461.411782	15608.743172
461.784280	15277.630105
462.156719	15227.173197
462.529099	15138.695905
462.901419	14494.985930
463.273680	14096.586062
463.645882	14306.252691
464.018024	14191.301781
464.390106	14558.877513
464.762130	15613.315499
465.134094	17128.489740
465.505999	19423.565769
465.877845	21699.006504
466.249631	22966.254279
466.621358	22513.503211
466.993026	21724.353426
467.364634	20971.031121
467.736184	20172.129224
468.107674	19557.884793
468.479105	19407.582791
468.850477	19131.864443
469.221790	18707.663950
469.593043	18038.765849
469.964238	17640.078635
470.335373	17686.547991
470.706449	18416.973375
471.077467	19264.119114
471.448425	21727.844425
471.819324	23603.914870
472.190164	23527.871585
472.560945	21799.741361
472.931667	20200.823472
473.302330	19870.368276
473.672934	19312.806578
474.043479	19736.344160
474.413965	19518.306694
474.784393	19338.236679
475.154761	20005.214100
475.525070	20128.873604
475.895321	19962.732297
476.265513	20495.347844
476.635645	21093.664750
477.005719	21140.797018
477.375734	21502.759426
477.745691	22138.300212
478.115588	22783.330970
478.485427	23967.273677
478.855207	25778.469513
479.224928	27582.736284
479.594591	29024.216417
479.964194	28674.040227
480.333739	29157.060903
480.703226	29361.646050
481.072653	29801.774069
481.442022	30327.052217
481.811333	30742.360115
482.180584	30311.487655
482.549777	30085.502810
482.918912	29857.476298
483.287988	29785.415525
483.657005	29624.186822
484.025964	29276.614388
484.394864	29462.562388
484.763706	29397.957481
485.132489	28848.267545
485.501213	28932.449773
485.869879	29104.771535
486.238487	29022.114256
486.607036	29297.668767
486.975527	28979.720673
487.343959	29326.766307
487.712333	29683.785863
488.080648	29643.428906
488.448905	30087.443654
488.817104	29950.135227
489.185244	30791.551694
489.553326	31734.668400
489.921350	33620.228817
490.289315	36124.104398
490.657222	37049.594709
491.025070	37634.255129
491.392861	37373.307362
491.760593	36603.218180
492.128267	35601.208194
492.495883	34625.525635
492.863440	33734.940273
493.230939	32738.755341
493.598380	32153.971412
493.965763	31983.865237
494.333088	31484.100369
494.700354	31279.288370
495.067563	31239.188512
495.434713	31102.482502
495.801805	31382.795862
496.168839	31222.895503
496.535815	31055.274617
496.902733	31158.943425
497.269593	30958.184514
497.636395	31122.327004
498.003139	31370.785313
498.369825	31113.739398
498.736453	31523.824661
499.103023	31338.048059
499.469535	31417.826840
499.835989	31499.047390
500.202385	31366.049148
500.568723	31379.115819
500.935003	31680.080266
501.301226	31511.234379
501.667390	32215.153376
502.033497	32422.085180
502.399546	32183.066432
502.765537	31756.947779
503.131470	32222.589078
503.497345	32606.629219
503.863163	31531.623326
504.228923	32258.373708
504.594625	32617.876033
504.960269	32075.026943
505.325856	32697.407797
505.691385	32321.373008
506.056856	32609.013685
506.422270	33048.539286
506.787625	32524.420603
507.152924	32924.229473
507.518164	33035.013870
507.883347	32587.369491
508.248472	32666.971831
508.613540	33294.976092
508.978550	33465.130157
509.343503	33248.365583
509.708398	33541.269224
510.073236	34043.060637
510.438016	34067.525357
510.802738	33687.445042
511.167403	34157.192360
511.532010	34316.535672
511.896561	34762.682828
512.261053	35390.122480
512.625488	35114.484790
512.989866	34935.808654
513.354186	34924.524031
513.718449	34807.234025
514.082655	35556.722532
514.446803	35166.806926
514.810894	35677.531263
515.174927	35572.178710
515.538904	35485.276779
515.902822	35983.020145
516.266684	35578.086942
516.630488	35809.851470
516.994235	35717.280762
517.357925	36148.891751
517.721558	36284.791176
518.085133	36514.642586
518.448651	36556.196817
518.812112	36357.237598
519.175516	36377.772738
519.538863	36669.935330
519.902152	36594.466737
520.265385	36970.113357
520.628560	36856.460543
520.991678	36684.423606
521.354739	36742.507781
521.717743	36943.690149
522.080690	36712.429737
522.443580	37195.669703
522.806413	37049.322486
523.169189	37025.036728
523.531908	37065.839827
523.894569	36800.337377
524.257174	36816.388411
524.619722	36967.895249
524.982213	36955.892262
525.344647	36830.962387
525.707025	36772.699251
526.069345	36999.490681
526.431608	36758.505883
526.793815	36914.832063
527.155964	36363.579370
527.518057	36406.537562
527.880093	36121.039376
528.242072	36481.887689
528.603995	36073.602118
528.965860	35848.610381
529.327669	35845.857911
529.689421	35716.990895
530.051117	35513.645872
530.412755	35554.282614
530.774337	35406.675108
531.135862	35180.765881
531.497331	35124.264629
531.858743	34928.705668
532.220098	35059.773148
532.581396	34653.335160
532.942638	34261.894605
533.303824	34280.627533
533.664953	34127.424347
534.026025	33665.977288
534.387040	33925.886578
534.747999	33775.219092
535.108902	33825.360929
535.469748	33096.495782
535.830537	33116.874647
536.191270	33082.907352
536.551947	32687.146528
536.912567	32679.809129
537.273131	32578.111412
537.633638	32103.721191
537.994089	32022.165404
538.354483	31624.735958
538.714821	31888.794117
539.075103	31879.755328
539.435328	31557.348334
539.795497	31173.807267
540.155609	31054.515923
540.515665	31238.946537
540.875665	30541.288653
541.235609	30497.312147
541.595496	30383.878624
541.955328	30551.078574
542.315102	29948.537181
542.674821	29656.825772
543.034483	29372.890344
543.394090	29142.265117
543.753640	28929.896429
544.113134	29392.107222
544.472571	28569.416120
544.831953	29078.204654
545.191278	28374.724238
545.550548	27962.264592
545.909761	28109.630122
546.268918	27974.257497
546.628019	27997.240118
546.987064	27412.925016
547.346053	26780.683666
547.704986	27090.812930
548.063863	26653.465107
548.422684	26542.156430
548.781449	26068.865181
549.140158	26153.783417
549.498811	25772.478102
549.857408	25211.853903
550.215949	25449.161180
550.574434	25137.610310
550.932864	24884.410797
551.291237	25035.040473
551.649555	24658.370499
552.007817	24528.313771
552.366022	24150.809486
552.724173	23951.628456
553.082267	23923.710546
553.440305	23892.210897
553.798288	23281.296147
554.156215	23249.017639
554.514086	23116.624336
554.871902	22681.792049
555.229661	22545.270042
555.587365	22165.330879
555.945014	22008.639215
556.302606	21798.418058
556.660143	21617.606993
557.017625	21506.840240
557.375050	21147.242133
557.732421	21101.836461
558.089735	20909.511400
558.446994	20632.832713
558.804197	20613.958633
559.161345	20330.111424
559.518437	19849.520584
559.875474	19728.888293
560.232455	19602.821638
560.589381	19404.800074
560.946251	19139.620258
561.303065	19178.432102
561.659825	18841.715792
562.016528	18538.873516
562.373177	18169.538421
562.729770	18204.766004
563.086307	17808.211198
563.442789	17808.715314
563.799216	17541.423254
564.155587	17303.775700
564.511904	17083.414263
564.868164	16900.017086
565.224370	16810.987788
565.580520	16521.277718
565.936615	16401.230201
566.292654	16096.384066
566.648638	16011.576735
567.004567	15799.329035
567.360441	15643.827082
567.716260	15378.125507
568.072023	15307.274611
568.427732	15096.723258
568.783385	14784.012924
569.138982	14721.595877
569.494525	14589.237862
569.850013	14303.958966
570.205445	14163.673737
570.560823	13934.293675
570.916145	13731.480494
571.271412	13622.137868
571.626625	13375.186864
571.981782	13217.670971
572.336884	12955.830920
572.691931	12871.628527
573.046923	12622.303140
573.401860	12411.192220
573.756743	12271.136363
574.111570	12149.674802
574.466342	11972.367339
574.821059	11856.055317
575.175722	11596.708116
575.530330	11468.599794
575.884882	11255.043914
576.239380	11089.825138
576.593823	10959.939809
576.948211	10812.924640
577.302544	10586.763355
577.656823	10448.098857
578.011047	10362.573161
578.365216	10204.356547
578.719330	10014.499132
579.073389	9890.854752
579.427394	9777.280076
579.781344	9629.022262
580.135239	9474.866298
580.489080	9361.047126
580.842866	9161.523298
581.196597	9123.074418
581.550273	9006.142334
581.903895	8884.534580
582.257463	8836.015994
582.610975	8646.801326
582.964434	8584.331347
583.317837	8403.023729
583.671186	8294.507851
584.024481	8218.593115
584.377721	8057.369454
584.730906	7974.122360
585.084037	7893.352993
585.437113	7755.782425
585.790135	7665.180287
586.143103	7518.502875
586.496016	7435.001203
586.848874	7357.632094
587.201679	7262.568535
587.554428	7110.658405
587.907124	7052.692698
588.259765	6945.611028
588.612352	6874.432457
588.964884	6734.593370
589.317362	6680.237128
589.669786	6599.341732
590.022155	6502.659963
590.374470	6463.845599
590.726731	6341.607701
591.078937	6199.779879
591.431090	6149.186859
591.783188	6030.593714
592.135232	5942.857473
592.487222	5886.520058
592.839157	5826.918496
593.191038	5727.476695
593.542866	5644.181710
593.894639	5526.627044
594.246358	5485.544161
594.598022	5417.695271
594.949633	5326.442825
595.301190	5260.645685
595.652692	5189.020971
596.004141	5157.004603
596.355535	5033.791241
596.706876	4971.815296
597.058162	4896.686980
597.409395	4868.005335
597.760573	4828.578471
598.111698	4748.620730
598.462768	4691.489333
598.813785	4641.372702
599.164748	4574.448864
599.515657	4539.755643
599.866511	4462.152121
600.217312	4450.807004
600.568060	4358.866441
600.918753	4354.273949
601.269392	4303.965755
601.619978	4251.966253
601.970510	4218.329154
602.320988	4181.690047
602.671412	4155.080317
603.021783	4111.330663
603.372100	4059.341244
603.722363	4021.187271
604.072572	3988.790296
604.422728	3957.010862
604.772830	3910.823810
605.122878	3882.684089
605.472872	3848.646219
605.822813	3825.446829
606.172701	3787.186992
606.522534	3768.537243
606.872314	3747.482864
607.222041	3714.594376
607.571714	3696.408414
607.921333	3655.978360
608.270899	3636.998416
608.620411	3617.811784
608.969870	3594.672888
609.319276	3570.757654
609.668627	3550.111608
610.017926	3537.097870
610.367171	3520.943492
610.716362	3498.863238
611.065500	3480.190805
611.414585	3463.353351
611.763616	3450.624437
612.112594	3431.301695
612.461518	3417.844334
612.810389	3403.963517
613.159207	3390.352402
613.507971	3370.495297
613.856682	3361.111189
614.205340	3346.585104
614.553945	3345.307172
614.902496	3314.654436
615.250994	3312.431287
615.599439	3301.005512
615.947830	3288.271557
616.296169	3278.211935
616.644454	3267.302878
616.992686	3256.761825
617.340864	3257.475148
617.688990	3237.560070
618.037063	3236.897158
618.385082	3227.407186
618.733048	3223.054150
619.080961	3210.519321
619.428821	3203.093701
619.776628	3192.366126
620.124382	3180.733663
620.472083	3173.295441
620.819731	3166.137002
621.167326	3147.648571
621.514868	3140.843013
621.862357	3123.014972
622.209793	3117.341154
622.557176	3101.083432
622.904506	3089.254365
623.251783	3075.270204
623.599007	3069.102353
623.946179	3058.231104
624.293297	3050.883623
624.640363	3035.674461
624.987376	3025.995446
625.334336	3015.991276
625.681243	3003.244719
626.028097	2998.974861
626.374899	2995.899758
626.721647	2989.563027
627.068343	2987.579333
627.414987	2976.526603
627.761577	2966.272896
628.108115	2966.628298
628.454600	2958.678398
628.801032	2951.519960
629.147412	2946.415791
629.493739	2942.632405
629.840014	2933.835592
630.186236	2932.792073
630.532405	2925.416865
630.878521	2920.564754
631.224585	2918.228180
631.570597	2912.153589
631.916556	2913.799526
632.262462	2907.077147
632.608316	2901.221847
632.954117	2894.759088
633.299866	2894.186917
633.645562	2889.241545
633.991206	2880.285935
634.336797	2872.086498
634.682336	2867.340252
635.027823	2863.193903
635.373257	2859.014787
635.718639	2853.540093
636.063968	2850.049094
636.409245	2837.642815
636.754470	2835.827999
637.099642	2830.980930
637.444762	2826.005311
637.789829	2821.869044
638.134845	2818.357881
638.479808	2815.255051
638.824719	2811.859833
639.169577	2806.501087
