Dividing Wavelength (nm)	Counts (n)	Blue Motor Position (mm): 0.000000	Red Motor Position (mm): 11.500000	
326.493990	2053.791283
326.888308	2053.791283
327.282561	2053.791283
327.676750	2028.749351
328.070874	2028.071316
328.464933	2033.422501
328.858929	2044.971784
329.252859	2055.961499
329.646726	2064.942315
330.040528	2082.457804
330.434265	2099.144023
330.827938	2124.609412
331.221547	2142.424850
331.615091	2159.532005
332.008571	2182.466735
332.401986	2204.627647
332.795338	2223.161449
333.188625	2243.356311
333.581847	2262.779877
333.975006	2278.082300
334.368100	2298.196503
334.761129	2314.512198
335.154095	2327.788077
335.546996	2343.695438
335.939833	2359.229753
336.332606	2370.801722
336.725315	2381.357898
337.117960	2393.943138
337.510540	2405.310940
337.903056	2410.813360
338.295508	2421.742581
338.687896	2425.425144
339.080220	2432.664241
339.472480	2433.838830
339.864676	2441.357711
340.256807	2442.675973
340.648875	2444.037084
341.040879	2446.431632
341.432818	2447.253340
341.824694	2447.679318
342.216506	2448.072528
342.608253	2450.184771
342.999937	2447.976746
343.391557	2448.004472
343.783113	2443.734615
344.174605	2440.415015
344.566033	2441.513987
344.957397	2439.018616
345.348697	2439.026177
345.739934	2435.699016
346.131106	2435.877977
346.522215	2434.801690
346.913260	2430.892276
347.304241	2432.104673
347.695159	2427.665937
348.086012	2427.509661
348.476802	2424.681574
348.867528	2421.150246
349.258191	2418.881727
349.648789	2418.491037
350.039324	2415.453742
350.429796	2420.683939
350.820203	2418.395255
351.210548	2418.269226
351.600828	2418.579257
351.991045	2419.201840
352.381198	2417.326531
352.771288	2420.323497
353.161314	2416.847621
353.551276	2418.969947
353.941175	2414.190933
354.331010	2415.602456
354.720782	2416.729154
355.110490	2417.944072
355.500135	2417.523136
355.889717	2416.474576
356.279235	2417.679411
356.668689	2419.577406
357.058080	2418.339803
357.447408	2421.792993
357.836672	2418.284350
358.225873	2420.772159
358.615010	2421.210740
359.004084	2423.476738
359.393095	2423.847263
359.782043	2420.421799
360.170927	2422.609660
360.559748	2424.028745
360.948505	2424.280802
361.337199	2425.536050
361.725830	2424.058992
362.114398	2425.283992
362.502903	2423.436409
362.891344	2425.510844
363.279722	2426.289702
363.668037	2427.176945
364.056289	2429.241298
364.444478	2430.216761
364.832603	2427.570155
365.220665	2430.236926
365.608665	2427.819692
365.996601	2430.799014
366.384474	2431.356062
366.772284	2432.434869
367.160031	2432.449992
367.547715	2431.504776
367.935336	2431.136772
368.322893	2430.060485
368.710388	2430.063006
369.097820	2431.807245
369.485189	2428.517892
369.872495	2433.024684
370.259738	2435.008378
370.646918	2433.430497
371.034035	2435.419232
371.421090	2437.649942
371.808081	2438.751434
372.195010	2438.017947
372.581875	2441.229162
372.968678	2440.810746
373.355418	2439.152206
373.742096	2445.380552
374.128710	2444.755449
374.515262	2449.206787
374.901751	2450.772066
375.288177	2454.736933
375.674540	2459.445371
376.060841	2461.698767
376.447079	2464.431072
376.833254	2469.147072
377.219367	2476.169399
377.605417	2478.911787
377.991404	2484.336068
378.377329	2494.486431
378.763191	2497.231340
379.148991	2507.124604
379.534727	2516.654905
379.920402	2525.567665
380.306013	2535.723070
380.691563	2546.375028
381.077049	2557.558828
381.462474	2566.206927
381.847835	2579.276118
382.233134	2596.317739
382.618371	2607.690582
383.003545	2623.449229
383.388657	2636.485653
383.773706	2658.265958
384.158693	2667.072854
384.543618	2686.292253
384.928480	2700.369675
385.313280	2724.519322
385.698017	2744.028588
386.082692	2767.152361
386.467305	2779.384720
386.851856	2804.608134
387.236344	2833.622495
387.620770	2847.291583
388.005133	2867.173894
388.389435	2901.622619
388.773674	2914.044022
389.157851	2946.183898
389.541965	2972.365131
389.926018	2983.964826
390.310008	3018.247193
390.693936	3039.783002
391.077802	3065.591189
391.461606	3094.156887
391.845348	3108.289762
392.229027	3134.975110
392.612645	3170.812672
392.996200	3195.501723
393.379694	3228.117989
393.763125	3265.172990
394.146494	3281.967594
394.529801	3307.211172
394.913047	3342.156451
395.296230	3343.716688
395.679351	3357.083307
396.062410	3393.848442
396.445408	3364.783670
396.828343	3392.681415
397.211217	3408.689599
397.594028	3375.133158
397.976778	3404.094587
398.359466	3415.507760
398.742092	3415.467430
399.124656	3407.862850
399.507158	3445.396761
399.889598	3434.996860
400.271977	3467.716469
400.654294	3440.499280
401.036549	3467.920636
401.418742	3448.829787
401.800874	3477.652584
402.182944	3479.167450
402.564952	3518.216228
402.946898	3492.680263
403.328783	3464.260758
403.710606	3471.772078
404.092367	3491.810664
404.474067	3507.271883
404.855705	3470.657983
405.237282	3426.676436
405.618797	3457.520736
406.000250	3470.491625
406.381642	3488.922083
406.762972	3456.509984
407.144240	3405.047365
407.525447	3406.254722
407.906593	3386.889129
408.287677	3395.564955
408.668700	3375.168447
409.049661	3358.625900
409.430560	3340.964218
409.811399	3302.291006
410.192176	3291.102165
410.572891	3290.033440
410.953545	3295.760191
411.334138	3224.034654
411.714669	3225.395766
412.095139	3166.827640
412.475547	3169.592713
412.855894	3135.446458
413.236180	3128.630818
413.616405	3083.414188
413.996568	3074.408167
414.376670	3046.555792
414.756711	3015.469517
415.136691	2998.974861
415.516609	2989.005980
415.896466	2966.061168
416.276262	2950.731019
416.655997	2943.328085
417.035670	2930.515992
417.415283	2926.286464
417.794834	2905.907600
418.174324	2875.648074
418.553753	2848.098168
418.933121	2841.426201
419.312428	2820.245793
419.691674	2791.241514
420.070859	2788.680608
420.449983	2754.441091
420.829045	2752.921183
421.208047	2726.629045
421.586988	2716.289639
421.965867	2703.868236
422.344686	2693.307018
422.723444	2685.886440
423.102141	2648.546613
423.480777	2654.200268
423.859352	2630.232102
424.237866	2630.746299
424.616319	2617.538476
424.994712	2614.700307
425.373044	2596.259766
425.751314	2591.319435
426.129524	2573.660273
426.507673	2569.798749
426.885762	2559.237532
427.263789	2553.551110
427.641756	2547.899977
428.019662	2541.096940
428.397508	2539.198945
428.775292	2532.688295
429.153016	2526.638911
429.530679	2521.514578
429.908282	2519.437622
430.285824	2514.585512
430.663305	2513.650378
431.040726	2505.599655
431.418086	2504.566218
431.795385	2503.278204
432.172624	2502.499345
432.549802	2500.432472
432.926920	2499.588079
433.303977	2496.656648
433.680974	2494.478870
434.057910	2493.934425
434.434786	2492.674137
434.811601	2492.427120
435.188355	2492.109527
435.565050	2491.181955
435.941683	2488.984012
436.318257	2491.048364
436.694770	2490.561893
437.071222	2488.195071
437.447614	2487.743888
437.823946	2485.707262
438.200218	2488.517705
438.576429	2486.281953
438.952580	2487.461583
439.328670	2488.474855
439.704700	2486.970071
440.080670	2485.220791
440.456580	2485.495533
440.832429	2485.994608
441.208218	2483.494195
441.583947	2484.351192
441.959616	2484.578043
442.335224	2488.336224
442.710773	2483.403455
443.086261	2484.416727
443.461689	2483.136273
443.837057	2482.929586
444.212365	2484.386480
444.587612	2483.693321
444.962800	2477.762403
445.337927	2483.532004
445.712995	2477.134780
446.088002	2486.564258
446.462949	2484.204998
446.837837	2483.186685
447.212664	2486.685246
447.587431	2485.513178
447.962139	2490.640031
448.336786	2492.258241
448.711374	2489.760350
449.085901	2489.586430
449.460369	2487.227170
449.834776	2487.542242
450.209124	2490.425782
450.583412	2489.248672
450.957640	2490.703045
451.331808	2488.731954
451.705917	2485.366984
452.079965	2487.179279
452.453954	2489.054588
452.827883	2488.825216
453.201752	2488.767242
453.575562	2489.717500
453.949311	2489.714979
454.323001	2488.414362
454.696632	2491.693632
455.070202	2490.322438
455.443713	2490.985350
455.817164	2489.213384
456.190556	2492.837974
456.563888	2495.771926
456.937160	2492.444764
457.310373	2487.814464
457.683526	2489.740185
458.056619	2491.045844
458.429653	2490.952582
458.802628	2492.628766
459.175542	2490.566934
459.548398	2495.623212
459.921194	2496.455002
460.293930	2494.630104
460.666607	2499.247801
461.039224	2498.693274
461.411782	2500.866012
461.784280	2502.320384
462.156719	2501.412977
462.529099	2500.573625
462.901419	2498.032883
463.273680	2495.847543
463.645882	2494.171359
464.018024	2496.475167
464.390106	2493.132882
464.762130	2503.288286
465.134094	2504.878770
465.505999	2509.730881
465.877845	2516.107940
466.249631	2518.920904
466.621358	2515.281191
466.993026	2514.058711
467.364634	2515.646675
467.736184	2513.163906
468.107674	2510.988648
468.479105	2511.018895
468.850477	2506.527227
469.221790	2504.909017
469.593043	2505.140910
469.964238	2502.819459
470.335373	2504.135200
470.706449	2509.042763
471.077467	2505.677793
471.448425	2515.122395
471.819324	2515.712210
472.190164	2516.785975
472.560945	2512.115346
472.931667	2506.983452
473.302330	2511.719616
473.672934	2506.912876
474.043479	2507.968997
474.413965	2505.324912
474.784393	2505.801301
475.154761	2507.638802
475.525070	2504.972031
475.895321	2507.091837
476.265513	2508.195849
476.635645	2506.602845
477.005719	2507.427073
477.375734	2509.355315
477.745691	2509.133504
478.115588	2513.446211
478.485427	2512.236334
478.855207	2516.745646
479.224928	2522.618590
479.594591	2524.118334
479.964194	2524.156142
480.333739	2523.049609
480.703226	2523.024403
481.072653	2526.583458
481.442022	2522.114475
481.811333	2526.187727
482.180584	2518.764628
482.549777	2523.911646
482.918912	2520.639938
483.287988	2524.193951
483.657005	2521.897705
484.025964	2522.895854
484.394864	2520.811337
484.763706	2522.444671
485.132489	2518.502488
485.501213	2520.662623
485.869879	2519.845956
486.238487	2520.692870
486.607036	2521.421316
486.975527	2520.970133
487.343959	2520.821419
487.712333	2523.389887
488.080648	2521.716224
488.448905	2520.075328
488.817104	2522.169928
489.185244	2524.597243
489.553326	2522.948786
489.921350	2527.803417
490.289315	2531.889272
490.657222	2532.365661
491.025070	2534.150230
491.392861	2534.611495
491.760593	2529.477080
492.128267	2532.224509
492.495883	2531.112935
492.863440	2527.652182
493.230939	2524.385515
493.598380	2528.378109
493.965763	2524.894671
494.333088	2525.847449
494.700354	2521.224711
495.067563	2522.346368
495.434713	2523.004239
495.801805	2524.758560
496.168839	2520.713034
496.535815	2521.101203
496.902733	2522.905936
497.269593	2522.973992
497.636395	2521.716224
498.003139	2522.999198
498.369825	2522.207736
498.736453	2523.702438
499.103023	2522.311080
499.469535	2524.186389
499.835989	2519.477952
500.202385	2519.971985
500.568723	2521.196985
500.935003	2520.350071
501.301226	2518.021058
501.667390	2525.252593
502.033497	2525.633200
502.399546	2524.937521
502.765537	2522.416944
503.131470	2523.891482
503.497345	2526.107069
503.863163	2521.519619
504.228923	2522.759743
504.594625	2522.464835
504.960269	2523.599095
505.325856	2525.534898
505.691385	2520.556758
506.056856	2520.962571
506.422270	2522.921060
506.787625	2523.873838
507.152924	2522.560617
507.518164	2522.656399
507.883347	2524.695546
508.248472	2520.975174
508.613540	2522.467356
508.978550	2521.373425
509.343503	2523.677233
509.708398	2522.071625
510.073236	2523.752850
510.438016	2520.733199
510.802738	2521.920391
511.167403	2524.209074
511.532010	2521.796882
511.896561	2522.931142
512.261053	2523.523478
512.625488	2522.227901
512.989866	2523.871317
513.354186	2521.809485
513.718449	2519.722447
514.082655	2522.709331
514.446803	2524.521626
514.810894	2523.793179
515.174927	2521.504495
515.538904	2522.051461
515.902822	2522.537932
516.266684	2522.122037
516.630488	2522.893333
516.994235	2523.142870
517.357925	2522.018693
517.721558	2523.926770
518.085133	2524.347706
518.448651	2522.658920
518.812112	2517.804288
519.175516	2518.089114
519.538863	2517.653054
519.902152	2523.316790
520.265385	2523.571368
520.628560	2523.276461
520.991678	2522.535411
521.354739	2521.196985
521.717743	2523.868797
522.080690	2525.030783
522.443580	2522.764784
522.806413	2524.274609
523.169189	2522.623632
523.531908	2522.502644
523.894569	2523.964578
524.257174	2522.116996
524.619722	2522.361492
524.982213	2521.338137
525.344647	2524.935001
525.707025	2524.700587
526.069345	2524.211595
526.431608	2524.317459
526.793815	2522.283354
527.155964	2521.370905
527.518057	2522.205216
527.880093	2520.917201
528.242072	2521.456604
528.603995	2522.389218
528.965860	2521.081038
529.327669	2520.234125
529.689421	2523.190761
530.051117	2522.134640
530.412755	2523.440298
530.774337	2521.910308
531.135862	2521.617921
531.497331	2523.223529
531.858743	2521.244876
532.220098	2524.138498
532.581396	2523.415093
532.942638	2523.914167
533.303824	2521.731347
533.664953	2521.912829
534.026025	2522.502644
534.387040	2519.964423
534.747999	2520.498785
535.108902	2520.080369
535.469748	2519.372087
535.830537	2519.805627
536.191270	2520.324865
536.551947	2518.961233
536.912567	2515.810512
537.273131	2521.063394
537.633638	2513.761283
537.994089	2519.356964
538.354483	2519.372087
538.714821	2519.039371
539.075103	2517.504340
539.435328	2521.232273
539.795497	2519.246058
540.155609	2521.514578
540.515665	2520.173631
540.875665	2519.142715
541.235609	2520.619773
541.595496	2520.304701
541.955328	2518.540297
542.315102	2515.976870
542.674821	2518.406706
543.034483	2519.082221
543.394090	2518.048784
543.753640	2520.786131
544.113134	2516.299504
544.472571	2519.480472
544.831953	2520.614732
545.191278	2520.181193
545.550548	2518.492406
545.909761	2520.140863
546.268918	2519.566172
546.628019	2519.583816
546.987064	2516.143228
547.346053	2518.978877
547.704986	2519.135153
548.063863	2520.463497
548.422684	2518.741943
548.781449	2517.090965
549.140158	2515.523166
549.498811	2517.274967
549.857408	2518.179854
550.215949	2517.022910
550.574434	2517.816891
550.932864	2520.009793
551.291237	2517.587519
551.649555	2516.891840
552.007817	2517.758918
552.366022	2518.348733
552.724173	2515.434946
553.082267	2518.106758
553.440305	2518.409227
553.798288	2516.629700
554.156215	2518.172293
554.514086	2516.511233
554.871902	2513.836900
555.229661	2517.504340
555.587365	2512.884122
555.945014	2518.142046
556.302606	2517.108609
556.660143	2520.186234
557.017625	2516.428053
557.375050	2520.198837
557.732421	2516.695235
558.089735	2520.549197
558.446994	2518.058867
558.804197	2519.387211
559.161345	2520.985257
559.518437	2519.107427
559.875474	2519.359484
560.232455	2518.862931
560.589381	2520.108096
560.946251	2519.351923
561.303065	2518.772190
561.659825	2519.830832
562.016528	2517.990811
562.373177	2516.072652
562.729770	2519.210770
563.086307	2517.882426
563.442789	2516.309586
563.799216	2517.698424
564.155587	2516.279339
564.511904	2518.568023
564.868164	2518.162210
565.224370	2517.537107
565.580520	2516.702796
565.936615	2517.600122
566.292654	2516.536438
566.648638	2516.816222
567.004567	2518.920904
567.360441	2519.230935
567.716260	2517.741274
568.072023	2517.622807
568.427732	2520.715555
568.783385	2519.208250
569.138982	2518.731861
569.494525	2519.281347
569.850013	2519.498116
570.205445	2518.608352
570.560823	2518.807478
570.916145	2517.711027
571.271412	2518.358815
571.626625	2521.373425
571.981782	2518.257992
572.336884	2514.572909
572.691931	2511.235665
573.046923	2517.464011
573.401860	2514.668691
573.756743	2517.892509
574.111570	2518.341171
574.466342	2518.396624
574.821059	2515.455111
575.175722	2519.021727
575.530330	2515.840759
575.884882	2517.978208
576.239380	2514.525018
576.593823	2517.950482
576.948211	2514.915707
577.302544	2518.406706
577.656823	2512.821108
578.011047	2517.418640
578.365216	2514.804802
578.719330	2515.936541
579.073389	2516.833866
579.427394	2515.238341
579.781344	2515.503002
580.135239	2515.263547
580.489080	2514.986283
580.842866	2517.060718
581.196597	2518.898219
581.550273	2514.620800
581.903895	2515.021572
582.257463	2518.502488
582.610975	2514.787158
582.964434	2516.291942
583.317837	2517.547190
583.671186	2514.600635
584.024481	2516.473424
584.377721	2515.538290
584.730906	2513.950326
585.084037	2514.416633
585.437113	2513.708351
585.790135	2515.371932
586.143103	2512.453104
586.496016	2514.613238
586.848874	2515.061901
587.201679	2516.982580
587.554428	2515.611387
587.907124	2515.044257
588.259765	2512.425377
588.612352	2514.739267
588.964884	2514.315810
589.317362	2513.955368
589.669786	2513.224400
590.022155	2510.063597
590.374470	2510.247599
590.726731	2511.835562
591.078937	2507.452279
591.431090	2515.792868
591.783188	2516.836387
592.135232	2514.439318
592.487222	2512.420336
592.839157	2511.709533
593.191038	2513.715913
593.542866	2511.407064
593.894639	2512.841272
594.246358	2513.269771
594.598022	2514.751870
594.949633	2509.967815
595.301190	2511.275994
595.652692	2510.824811
596.004141	2515.117353
596.355535	2510.529903
596.706876	2511.273474
597.058162	2509.378000
597.409395	2511.454955
597.760573	2512.014523
598.111698	2511.253309
598.462768	2512.059894
598.813785	2509.829183
599.164748	2512.314472
599.515657	2512.178361
599.866511	2511.533093
600.217312	2508.347084
600.568060	2509.587208
600.918753	2513.799092
601.269392	2510.353463
601.619978	2511.132321
601.970510	2511.086951
602.320988	2509.594769
602.671412	2510.585356
603.021783	2511.122239
603.372100	2510.227434
603.722363	2509.468741
604.072572	2511.462517
604.422728	2509.950171
604.772830	2509.700634
605.122878	2508.384893
605.472872	2511.291118
605.822813	2511.573422
606.172701	2508.452948
606.522534	2513.310100
606.872314	2509.665346
607.222041	2511.091992
607.571714	2508.387413
607.921333	2506.718791
608.270899	2510.096364
608.620411	2507.028822
608.969870	2509.395644
609.319276	2513.294976
609.668627	2510.706344
610.017926	2510.945799
610.367171	2510.930675
610.716362	2510.993690
611.065500	2511.863289
611.414585	2509.594769
611.763616	2512.473268
612.112594	2512.637106
612.461518	2512.440501
612.810389	2510.658453
613.159207	2512.697600
613.507971	2509.554440
613.856682	2514.474606
614.205340	2510.562671
614.553945	2513.254647
614.902496	2512.720285
615.250994	2511.631396
615.599439	2509.176354
615.947830	2511.207939
616.296169	2513.274812
616.644454	2510.948319
616.992686	2510.270284
617.340864	2513.063083
617.688990	2511.248268
618.037063	2511.281035
618.385082	2512.455624
618.733048	2512.969822
619.080961	2509.380520
619.428821	2510.804646
619.776628	2512.296828
620.124382	2513.315141
620.472083	2511.578463
620.819731	2512.919410
621.167326	2508.672238
621.514868	2511.381858
621.862357	2511.646519
622.209793	2509.279697
622.557176	2510.605521
622.904506	2510.550068
623.251783	2511.467558
623.599007	2509.400685
623.946179	2508.493277
624.293297	2511.893536
624.640363	2507.953874
624.987376	2505.135869
625.334336	2506.318019
625.681243	2505.718122
626.028097	2504.679644
626.374899	2508.863802
626.721647	2507.313647
627.068343	2508.657115
627.414987	2505.627381
627.761577	2502.849706
628.108115	2507.931189
628.454600	2507.048987
628.801032	2505.448420
629.147412	2507.167454
629.493739	2505.556805
629.840014	2507.613596
630.186236	2506.375993
630.532405	2510.396313
630.878521	2507.258195
631.224585	2509.763648
631.570597	2506.043277
631.916556	2505.395488
632.262462	2506.381034
632.608316	2506.562515
632.954117	2506.774244
633.299866	2507.048987
633.645562	2507.880777
633.991206	2505.735766
634.336797	2507.064110
634.682336	2504.752741
635.027823	2506.214676
635.373257	2503.111846
635.718639	2507.580828
636.063968	2503.764675
636.409245	2504.800632
636.754470	2505.440859
637.099642	2501.329798
637.444762	2503.353821
637.789829	2502.877432
638.134845	2503.321053
638.479808	2505.214007
638.824719	2503.628564
639.169577	2500.198059
639.514383	2502.587566
639.859137	2501.198728
640.203839	2505.675272
640.548489	2501.942298
640.893086	2505.138389
641.237632	2499.678820
641.582125	2503.245436
641.926566	2499.711587
642.270955	2499.406597
642.615292	2497.574138
642.959576	2498.118583
643.303809	2496.727224
643.647990	2501.425580
643.992118	2499.958604
644.336195	2502.900117
