Dividing Wavelength (nm)	Counts (n)	Blue Motor Position (mm): 0.000000	Red Motor Position (mm): 7.500000	
326.493990	2053.534184
326.888308	2053.534184
327.282561	2053.534184
327.676750	2032.094157
328.070874	2031.965607
328.464933	2038.582122
328.858929	2043.698893
329.252859	2057.136088
329.646726	2067.614127
330.040528	2089.775039
330.434265	2100.454723
330.827938	2122.202261
331.221547	2143.024747
331.615091	2163.955618
332.008571	2183.931190
332.401986	2203.654704
332.795338	2224.363764
333.188625	2244.966960
333.581847	2264.357758
333.975006	2281.918618
334.368100	2296.805145
334.761129	2315.096972
335.154095	2330.411997
335.546996	2345.429594
335.939833	2359.471728
336.332606	2371.257946
336.725315	2383.457538
337.117960	2396.950187
337.510540	2404.136352
337.903056	2413.059194
338.295508	2419.073290
338.687896	2426.453540
339.080220	2431.076278
339.472480	2438.524583
339.864676	2438.658173
340.256807	2440.833431
340.648875	2446.149328
341.040879	2447.041612
341.432818	2448.211160
341.824694	2451.228290
342.216506	2450.991356
342.608253	2450.363732
342.999937	2450.419185
343.391557	2449.879782
343.783113	2448.858948
344.174605	2443.248144
344.566033	2445.289811
344.957397	2444.054728
345.348697	2442.154213
345.739934	2437.037442
346.131106	2437.191197
346.522215	2434.605085
346.913260	2432.686926
347.304241	2433.410332
347.695159	2430.168870
348.086012	2429.168201
348.476802	2428.091915
348.867528	2423.643096
349.258191	2420.472211
349.648789	2420.948600
350.039324	2416.066242
350.429796	2421.838363
350.820203	2418.586819
351.210548	2424.628642
351.600828	2420.270564
351.991045	2421.853487
352.381198	2418.672519
352.771288	2417.860893
353.161314	2417.074473
353.551276	2419.249731
353.941175	2419.169072
354.331010	2416.356108
354.720782	2417.165214
355.110490	2419.191758
355.500135	2416.915677
355.889717	2417.213105
356.279235	2419.612694
356.668689	2417.374422
357.058080	2419.456418
357.447408	2419.413568
357.836672	2419.768970
358.225873	2422.355082
358.615010	2419.940369
359.004084	2424.684095
359.393095	2421.082190
359.782043	2421.782911
360.170927	2422.153435
360.559748	2423.272572
360.948505	2426.239291
361.337199	2427.552511
361.725830	2426.750968
362.114398	2426.350196
362.502903	2425.810793
362.891344	2424.868097
363.279722	2427.791966
363.668037	2430.408325
364.056289	2426.332552
364.444478	2427.630649
364.832603	2425.679722
365.220665	2430.985537
365.608665	2431.333377
365.996601	2431.255239
366.384474	2428.928746
366.772284	2433.284303
367.160031	2433.271700
367.547715	2430.431010
367.935336	2432.964190
368.322893	2427.328180
368.710388	2430.884714
369.097820	2429.994950
369.485189	2430.804055
369.872495	2434.922678
370.259738	2433.208686
370.646918	2433.637184
371.034035	2434.547112
371.421090	2436.190528
371.808081	2436.132555
372.195010	2437.392843
372.581875	2439.043821
372.968678	2440.997268
373.355418	2441.012392
373.742096	2441.763524
374.128710	2444.982301
374.515262	2446.295521
374.901751	2447.883485
375.288177	2451.487910
375.674540	2458.933694
376.060841	2459.442850
376.447079	2462.903602
376.833254	2467.392750
377.219367	2475.877012
377.605417	2477.727115
377.991404	2481.712147
378.377329	2492.205309
378.763191	2499.819972
379.148991	2506.204593
379.534727	2511.712054
379.920402	2520.841584
380.306013	2525.945752
380.691563	2541.727084
381.077049	2549.200595
381.462474	2558.526729
381.847835	2570.822103
382.233134	2579.762590
382.618371	2590.354054
383.003545	2605.938781
383.388657	2614.685183
383.773706	2631.752009
384.158693	2638.620582
384.543618	2653.577685
384.928480	2661.656134
385.313280	2677.679442
385.698017	2689.667305
386.082692	2705.448637
386.467305	2713.161603
386.851856	2730.929150
387.236344	2746.266860
387.620770	2750.506471
388.005133	2763.190014
388.389435	2780.080400
388.773674	2785.187088
389.157851	2806.077630
389.541965	2814.125832
389.926018	2819.109013
390.310008	2832.480673
390.693936	2843.712364
391.077802	2851.697552
391.461606	2862.523430
391.845348	2866.110211
392.229027	2873.351828
392.612645	2889.392780
392.996200	2892.669530
393.379694	2908.392888
393.763125	2916.403282
394.146494	2916.201636
394.529801	2923.178593
394.913047	2933.782660
395.296230	2920.068201
395.679351	2915.228693
396.062410	2926.268820
396.445408	2898.474418
396.828343	2900.722773
397.211217	2898.136661
397.594028	2869.911241
397.976778	2872.028525
398.359466	2865.129706
398.742092	2852.569671
399.124656	2838.214986
399.507158	2839.724811
399.889598	2824.258551
400.271977	2824.840805
400.654294	2801.679223
401.036549	2800.698719
401.418742	2779.704834
401.800874	2778.991510
402.182944	2766.862494
402.564952	2765.904675
402.946898	2748.159813
403.328783	2729.016032
403.710606	2718.154866
404.092367	2714.958774
404.474067	2705.483926
404.855705	2688.570854
405.237282	2666.767864
405.618797	2664.811896
406.000250	2659.990033
406.381642	2650.976450
406.762972	2631.726804
407.144240	2617.588888
407.525447	2607.786364
407.906593	2594.593664
408.287677	2592.796493
408.668700	2580.526325
409.049661	2575.061714
409.430560	2563.777091
409.811399	2554.299722
410.192176	2546.213711
410.572891	2541.603576
410.953545	2537.542926
411.334138	2525.275278
411.714669	2523.568848
412.095139	2513.186592
412.475547	2509.793895
412.855894	2503.361383
413.236180	2502.965652
413.616405	2492.696822
413.996568	2496.616319
414.376670	2490.014928
414.756711	2487.464104
415.136691	2482.052425
415.516609	2482.259113
415.896466	2481.293732
416.276262	2479.047898
416.655997	2477.182671
417.035670	2478.647126
417.415283	2478.425315
417.794834	2474.417598
418.174324	2475.093113
418.553753	2467.566670
418.933121	2474.220993
419.312428	2472.917855
419.691674	2470.425004
420.070859	2471.972638
420.449983	2468.806794
420.829045	2469.162195
421.208047	2469.275621
421.586988	2468.479119
421.965867	2468.590024
422.344686	2469.232771
422.723444	2469.625981
423.102141	2468.048100
423.480777	2469.671352
423.859352	2466.250929
424.237866	2465.698922
424.616319	2467.392750
424.994712	2468.426187
425.373044	2468.577421
425.751314	2465.721608
426.129524	2463.886627
426.507673	2468.350569
426.885762	2462.885958
427.263789	2466.626495
427.641756	2465.429221
428.019662	2469.540282
428.397508	2465.865280
428.775292	2468.322843
429.153016	2465.565332
429.530679	2467.604478
429.908282	2466.364355
430.285824	2468.080868
430.663305	2467.561629
431.040726	2469.073975
431.418086	2467.375106
431.795385	2469.676393
432.172624	2468.065744
432.549802	2469.837710
432.926920	2469.000878
433.303977	2466.371916
433.680974	2468.169088
434.057910	2467.980044
434.434786	2469.936012
434.811601	2470.513224
435.188355	2472.305354
435.565050	2470.011629
435.941683	2470.722432
436.318257	2468.824438
436.694770	2472.817032
437.071222	2471.526496
437.447614	2469.386526
437.823946	2468.970631
438.200218	2472.154120
438.576429	2470.266208
438.952580	2470.636733
439.328670	2468.216979
439.704700	2473.210242
440.080670	2470.777885
440.456580	2473.381641
440.832429	2471.357618
441.208218	2469.903245
441.583947	2473.593369
441.959616	2471.723101
442.335224	2471.745786
442.710773	2473.961373
443.086261	2473.376600
443.461689	2471.153451
443.837057	2474.838534
444.212365	2473.696713
444.587612	2472.910293
444.962800	2471.796198
445.337927	2470.772844
445.712995	2465.797225
446.088002	2475.398102
446.462949	2470.354428
446.837837	2474.473051
447.212664	2473.979018
447.587431	2475.771148
447.962139	2475.196456
448.336786	2479.683083
448.711374	2480.466982
449.085901	2477.094451
449.460369	2475.153606
449.834776	2478.170737
450.209124	2477.890953
450.583412	2477.729636
450.957640	2478.266519
451.331808	2478.145531
451.705917	2477.391879
452.079965	2478.513535
452.453954	2477.527990
452.827883	2479.206694
453.201752	2476.560088
453.575562	2479.133597
453.949311	2478.190902
454.323001	2477.790130
454.696632	2475.952629
455.070202	2478.568988
455.443713	2479.766262
455.817164	2482.523773
456.190556	2480.043526
456.563888	2480.497229
456.937160	2480.149390
457.310373	2480.744246
457.683526	2482.196098
458.056619	2482.937148
458.429653	2481.477734
458.802628	2483.080821
459.175542	2478.957157
459.548398	2484.434371
459.921194	2482.233907
460.293930	2483.423619
460.666607	2482.947230
461.039224	2483.504278
461.411782	2485.407313
461.784280	2484.782210
462.156719	2485.094762
462.529099	2485.077118
462.901419	2485.026706
463.273680	2480.267857
463.645882	2478.200984
464.018024	2482.367497
464.390106	2480.018320
464.762130	2482.808598
465.134094	2488.016110
465.505999	2491.887717
465.877845	2492.028869
466.249631	2496.455002
466.621358	2493.483242
466.993026	2493.432830
467.364634	2494.909888
467.736184	2491.723879
468.107674	2489.457880
468.479105	2488.857983
468.850477	2487.854793
469.221790	2487.713641
469.593043	2489.329331
469.964238	2487.320431
470.335373	2485.835811
470.706449	2489.047026
471.077467	2487.322952
471.448425	2491.648262
471.819324	2493.132882
472.190164	2497.369971
472.560945	2493.720176
472.931667	2490.450988
473.302330	2489.203302
473.672934	2487.685915
474.043479	2488.454691
474.413965	2486.982674
474.784393	2489.440236
475.154761	2487.539721
475.525070	2489.626759
475.895321	2489.089876
476.265513	2488.447129
476.635645	2490.347644
477.005719	2489.651965
477.375734	2491.928046
477.745691	2491.290340
478.115588	2491.751605
478.485427	2488.426964
478.855207	2494.393170
479.224928	2495.524909
479.594591	2493.173211
479.964194	2494.869559
480.333739	2498.370640
480.703226	2496.036586
481.072653	2499.020949
481.442022	2498.446258
481.811333	2497.755620
482.180584	2492.628766
482.549777	2495.766884
482.918912	2492.986688
483.287988	2496.966679
483.657005	2497.047337
484.025964	2497.395177
484.394864	2495.456853
484.763706	2498.269817
485.132489	2495.303098
485.501213	2497.274189
485.869879	2492.180103
486.238487	2496.719663
486.607036	2495.383757
486.975527	2497.032214
487.343959	2495.837461
487.712333	2497.616988
488.080648	2495.212358
488.448905	2495.802172
488.817104	2496.172697
489.185244	2494.395691
489.553326	2496.848212
489.921350	2499.494818
490.289315	2500.528254
490.657222	2501.423059
491.025070	2502.690909
491.392861	2499.588079
491.760593	2498.748727
492.128267	2501.982627
492.495883	2497.909375
492.863440	2496.966679
493.230939	2497.372492
493.598380	2499.089005
493.965763	2497.145640
494.333088	2496.465084
494.700354	2497.443068
495.067563	2495.293016
495.434713	2496.717142
495.801805	2496.717142
496.168839	2498.531957
496.535815	2495.870228
496.902733	2492.293529
497.269593	2499.585558
497.636395	2498.020280
498.003139	2495.618170
498.369825	2495.434168
498.736453	2497.138078
499.103023	2494.972903
499.469535	2497.238901
499.835989	2495.247646
500.202385	2493.064826
500.568723	2490.672798
500.935003	2492.686739
501.301226	2489.767911
501.667390	2494.176400
502.033497	2497.178408
502.399546	2494.236894
502.765537	2495.298057
503.131470	2495.862666
503.497345	2495.260248
503.863163	2494.362923
504.228923	2495.192193
504.594625	2493.384939
504.960269	2495.514827
505.325856	2496.303767
505.691385	2494.783859
506.056856	2495.726555
506.422270	2494.688078
506.787625	2496.424755
507.152924	2496.228150
507.518164	2498.350476
507.883347	2497.352327
508.248472	2496.139930
508.613540	2496.835609
508.978550	2494.493993
509.343503	2496.611278
509.708398	2495.774446
510.073236	2496.495331
510.438016	2495.020794
510.802738	2493.715135
511.167403	2495.320742
511.532010	2496.646566
511.896561	2496.326453
512.261053	2496.626401
512.625488	2496.041627
512.989866	2496.507934
513.354186	2498.408449
513.718449	2495.257728
514.082655	2498.794097
514.446803	2497.092708
514.810894	2496.301247
515.174927	2495.570279
515.538904	2496.523058
515.902822	2496.560866
516.266684	2495.958448
516.630488	2497.858963
516.994235	2495.698829
517.357925	2494.627584
517.721558	2499.693943
518.085133	2496.278562
518.448651	2496.754951
518.812112	2491.905361
519.175516	2494.549446
519.538863	2494.189003
519.902152	2495.693788
520.265385	2495.799652
520.628560	2496.394508
520.991678	2497.674961
521.354739	2495.025835
521.717743	2497.435506
522.080690	2497.294354
522.443580	2498.592451
522.806413	2498.466422
523.169189	2497.687564
523.531908	2497.997595
523.894569	2493.079949
524.257174	2495.542553
524.619722	2494.025166
524.982213	2496.626401
525.344647	2497.644714
525.707025	2499.131855
526.069345	2499.953563
526.431608	2500.694612
526.793815	2496.243273
527.155964	2496.636483
527.518057	2496.873418
527.880093	2496.119765
528.242072	2497.438027
528.603995	2497.143119
528.965860	2498.249653
529.327669	2497.808552
529.689421	2497.924498
530.051117	2498.554643
530.412755	2495.792090
530.774337	2497.622029
531.135862	2496.243273
531.497331	2499.993892
531.858743	2499.215034
532.220098	2496.543222
532.581396	2498.048007
532.942638	2494.879641
533.303824	2496.439878
533.664953	2497.992554
534.026025	2499.227637
534.387040	2498.330311
534.747999	2499.605723
535.108902	2495.204796
535.469748	2495.673623
535.830537	2496.462564
536.191270	2496.142450
536.551947	2496.008860
536.912567	2491.890237
537.273131	2492.641369
537.633638	2490.385453
537.994089	2497.485918
538.354483	2494.423417
538.714821	2497.861484
539.075103	2494.728407
539.435328	2499.724190
539.795497	2495.093890
540.155609	2496.518016
540.515665	2497.286792
540.875665	2498.945332
541.235609	2498.131186
541.595496	2498.179077
541.955328	2498.423573
542.315102	2498.042965
542.674821	2495.708911
543.034483	2497.614467
543.394090	2494.937615
543.753640	2497.375013
544.113134	2498.355517
544.472571	2497.112873
544.831953	2496.636483
545.191278	2498.791577
545.550548	2495.963489
545.909761	2497.044817
546.268918	2495.555156
546.628019	2497.770743
546.987064	2497.221257
547.346053	2497.445589
547.704986	2498.335352
548.063863	2495.839981
548.422684	2494.138592
548.781449	2497.266628
549.140158	2496.545743
549.498811	2496.470125
549.857408	2494.965341
550.215949	2497.163284
550.574434	2496.248315
550.932864	2495.121617
551.291237	2496.112203
551.649555	2496.497852
552.007817	2497.790908
552.366022	2496.144971
552.724173	2497.904334
553.082267	2501.846516
553.440305	2496.137409
553.798288	2499.570435
554.156215	2494.005001
554.514086	2494.405773
554.871902	2494.579693
555.229661	2496.404590
555.587365	2491.489465
555.945014	2495.774446
556.302606	2495.824858
556.660143	2497.634632
557.017625	2498.103459
557.375050	2496.518016
557.732421	2497.405259
558.089735	2498.831906
558.446994	2497.498521
558.804197	2497.407780
559.161345	2497.022132
559.518437	2498.479025
559.875474	2495.741679
560.232455	2499.860301
560.589381	2497.997595
560.946251	2498.665548
561.303065	2497.793428
561.659825	2498.126144
562.016528	2497.858963
562.373177	2499.220075
562.729770	2498.592451
563.086307	2498.869715
563.442789	2496.195383
563.799216	2499.898110
564.155587	2498.234529
564.511904	2496.646566
564.868164	2496.137409
565.224370	2495.766884
565.580520	2497.622029
565.936615	2501.050014
566.292654	2496.825527
566.648638	2497.531288
567.004567	2497.100270
567.360441	2496.689416
567.716260	2497.753099
568.072023	2494.892244
568.427732	2500.218223
568.783385	2496.913747
569.138982	2499.691423
569.494525	2497.864004
569.850013	2497.720332
570.205445	2497.443068
570.560823	2497.364930
570.916145	2496.124806
571.271412	2497.483397
571.626625	2498.859632
571.981782	2496.681854
572.336884	2494.758654
572.691931	2496.843171
573.046923	2494.365444
573.401860	2491.804538
573.756743	2498.670589
574.111570	2496.192862
574.466342	2498.743686
574.821059	2495.514827
575.175722	2495.628253
575.530330	2494.771257
575.884882	2497.029693
576.239380	2495.587923
576.593823	2498.025321
576.948211	2495.023314
577.302544	2498.032883
577.656823	2500.629077
578.011047	2496.596154
578.365216	2497.579179
578.719330	2496.896103
579.073389	2498.799138
579.427394	2497.339724
579.781344	2495.484580
580.135239	2497.032214
580.489080	2499.429283
580.842866	2496.845691
581.196597	2498.209323
581.550273	2495.963489
581.903895	2494.557008
582.257463	2493.684888
582.610975	2497.090187
582.964434	2495.124137
583.317837	2492.825371
583.671186	2498.408449
584.024481	2497.009529
584.377721	2498.927688
584.730906	2498.854591
585.084037	2497.357368
585.437113	2496.558346
585.790135	2496.661689
586.143103	2494.670433
586.496016	2498.610095
586.848874	2494.393170
587.201679	2499.704026
587.554428	2496.253356
587.907124	2495.782008
588.259765	2495.308139
588.612352	2495.416524
588.964884	2495.358551
589.317362	2497.823675
589.669786	2497.982472
590.022155	2491.416369
590.374470	2492.122130
590.726731	2493.836122
591.078937	2492.333859
591.431090	2495.040958
591.783188	2495.935763
592.135232	2495.156905
592.487222	2496.074395
592.839157	2493.742861
593.191038	2496.606237
593.542866	2493.994919
593.894639	2495.653458
594.246358	2495.078767
594.598022	2495.189672
594.949633	2493.059785
595.301190	2494.587254
595.652692	2494.708242
596.004141	2496.520537
596.355535	2496.349138
596.706876	2492.815289
597.058162	2494.287306
597.409395	2494.650269
597.760573	2495.683705
598.111698	2494.705722
598.462768	2494.627584
598.813785	2493.268993
599.164748	2495.426607
599.515657	2492.227994
599.866511	2493.440392
600.217312	2494.292347
600.568060	2493.450474
600.918753	2495.650938
601.269392	2494.693119
601.619978	2495.562718
601.970510	2497.720332
602.320988	2493.037100
602.671412	2493.402583
603.021783	2493.427789
603.372100	2496.215547
603.722363	2494.587254
604.072572	2493.175731
604.422728	2497.183449
604.772830	2491.817140
605.122878	2496.908706
605.472872	2492.215392
605.822813	2493.223622
606.172701	2495.666061
606.522534	2494.221771
606.872314	2496.021463
607.222041	2492.956441
607.571714	2492.900988
607.921333	2490.264465
608.270899	2491.497027
608.620411	2487.489310
608.969870	2494.849394
609.319276	2494.181442
609.668627	2492.469970
610.017926	2493.881493
610.367171	2495.454333
610.716362	2494.768736
611.065500	2495.988695
611.414585	2493.621873
611.763616	2496.318891
612.112594	2494.080618
612.461518	2493.387460
612.810389	2496.734786
613.159207	2495.156905
613.507971	2496.817965
613.856682	2496.059271
614.205340	2495.824858
614.553945	2495.179590
614.902496	2491.996101
615.250994	2495.603047
615.599439	2496.202944
615.947830	2498.070692
616.296169	2494.567090
616.644454	2495.509786
616.992686	2494.713283
617.340864	2496.238232
617.688990	2493.001812
618.037063	2497.642194
618.385082	2491.489465
618.733048	2496.843171
619.080961	2495.182111
619.428821	2496.144971
619.776628	2493.079949
620.124382	2495.933242
620.472083	2494.980464
620.819731	2494.582213
621.167326	2492.545587
621.514868	2496.384426
621.862357	2496.533140
622.209793	2494.458705
622.557176	2494.025166
622.904506	2495.078767
623.251783	2495.315701
623.599007	2493.677326
623.946179	2493.412666
624.293297	2494.052892
624.640363	2491.907881
624.987376	2491.088694
625.334336	2489.193220
625.681243	2490.304794
626.028097	2486.660040
626.374899	2490.657675
626.721647	2491.978457
627.068343	2492.248159
627.414987	2490.544249
627.761577	2492.638848
628.108115	2494.161277
628.454600	2489.851090
628.801032	2494.514158
629.147412	2491.154229
629.493739	2491.126502
629.840014	2490.745895
630.186236	2493.732779
630.532405	2494.965341
630.878521	2492.028869
631.224585	2492.432161
631.570597	2489.984681
631.916556	2492.969044
632.262462	2491.297902
632.608316	2491.524753
632.954117	2491.297902
633.299866	2492.805207
633.645562	2494.345279
633.991206	2490.125833
634.336797	2494.136071
634.682336	2491.250011
635.027823	2489.954434
635.373257	2491.938128
635.718639	2490.145998
636.063968	2490.690443
636.409245	2490.889568
636.754470	2494.985506
637.099642	2490.027531
637.444762	2488.820174
637.789829	2490.503920
638.134845	2491.557521
638.479808	2489.727582
638.824719	2492.164980
639.169577	2489.740185
639.514383	2491.441574
639.859137	2491.681029
640.203839	2490.629949
640.548489	2492.646410
640.893086	2488.616008
641.237632	2489.969558
641.582125	2488.401759
641.926566	2488.056440
642.270955	2485.752632
642.615292	2484.951089
642.959576	2485.606439
643.303809	2485.697180
643.647990	2489.377222
643.992118	2486.765904
644.336195	2489.483086
