Dividing Wavelength (nm)	Counts (n)	Blue Motor Position (mm): 0.000000	Red Motor Position (mm): 19.000000	
326.493990	2055.527960
326.888308	2055.527960
327.282561	2055.527960
327.676750	2024.897909
328.070874	2029.447551
328.464933	2034.690351
328.858929	2046.562268
329.252859	2056.233722
329.646726	2067.122614
330.040528	2084.454101
330.434265	2099.885073
330.827938	2122.013218
331.221547	2142.243368
331.615091	2163.766574
332.008571	2183.306087
332.401986	2204.345342
332.795338	2225.462736
333.188625	2242.438821
333.581847	2261.118817
333.975006	2278.422578
334.368100	2297.977213
334.761129	2313.740901
335.154095	2329.340752
335.546996	2343.571929
335.939833	2362.922398
336.332606	2372.125025
336.725315	2384.831253
337.117960	2396.042779
337.510540	2403.564181
337.903056	2413.762435
338.295508	2420.608322
338.687896	2429.979827
339.080220	2433.979982
339.472480	2439.830241
339.864676	2442.950716
340.256807	2444.853751
340.648875	2447.734771
341.040879	2447.707044
341.432818	2451.107303
341.824694	2450.293156
342.216506	2450.701490
342.608253	2451.072014
342.999937	2449.476489
343.391557	2448.848866
343.783113	2449.398351
344.174605	2447.623865
344.566033	2445.927517
344.957397	2445.151179
345.348697	2442.698658
345.739934	2439.016095
346.131106	2436.724891
346.522215	2434.297575
346.913260	2435.396547
347.304241	2434.902513
347.695159	2430.131061
348.086012	2429.992430
348.476802	2426.745927
348.867528	2425.440268
349.258191	2420.943558
349.648789	2420.875503
350.039324	2419.776531
350.429796	2420.436923
350.820203	2420.923394
351.210548	2423.055802
351.600828	2418.327200
351.991045	2420.124371
352.381198	2418.801068
352.771288	2420.255441
353.161314	2421.873651
353.551276	2420.053795
353.941175	2419.910122
354.331010	2421.119999
354.720782	2416.535069
355.110490	2420.764597
355.500135	2418.806109
355.889717	2421.601429
356.279235	2421.450194
356.668689	2422.617222
357.058080	2420.358785
357.447408	2423.643096
357.836672	2422.360123
358.225873	2424.545463
358.615010	2422.312232
359.004084	2426.667789
359.393095	2423.950607
359.782043	2426.516554
360.170927	2423.426327
360.559748	2424.711821
360.948505	2426.871955
361.337199	2428.306164
361.725830	2425.984712
362.114398	2429.092584
362.502903	2430.030238
362.891344	2429.677358
363.279722	2429.221133
363.668037	2431.739189
364.056289	2431.267842
364.444478	2430.093253
364.832603	2432.276072
365.220665	2432.235743
365.608665	2432.197934
365.996601	2432.996957
366.384474	2432.417225
366.772284	2435.681372
367.160031	2434.892431
367.547715	2435.454520
367.935336	2436.344283
368.322893	2433.722883
368.710388	2431.288006
369.097820	2435.048707
369.485189	2431.275403
369.872495	2436.087185
370.259738	2438.126331
370.646918	2440.349480
371.034035	2440.276383
371.421090	2440.934254
371.808081	2441.871909
372.195010	2442.887701
372.581875	2441.957608
372.968678	2443.482557
373.355418	2447.669236
373.742096	2446.769390
374.128710	2450.729216
374.515262	2454.764660
374.901751	2454.613425
375.288177	2458.636266
375.674540	2460.965279
376.060841	2465.051134
376.447079	2470.848461
376.833254	2474.732670
377.219367	2480.693834
377.605417	2484.840183
377.991404	2489.752788
378.377329	2499.691423
378.763191	2505.254336
379.148991	2513.105933
379.534727	2519.215812
379.920402	2532.474046
380.306013	2539.511497
380.691563	2553.021789
381.077049	2561.420352
381.462474	2572.926785
381.847835	2588.050247
382.233134	2601.177411
382.618371	2614.213835
383.003545	2629.765795
383.388657	2644.271715
383.773706	2663.813748
384.158693	2676.666170
384.543618	2695.986392
384.928480	2710.489791
385.313280	2731.216495
385.698017	2752.580905
386.082692	2777.199380
386.467305	2785.597942
386.851856	2812.905873
387.236344	2841.650532
387.620770	2858.261134
388.005133	2877.077241
388.389435	2915.422778
388.773674	2923.193716
389.157851	2959.374077
389.541965	2987.160917
389.926018	2997.971672
390.310008	3031.727238
390.693936	3057.845456
391.077802	3086.083479
391.461606	3116.491719
391.845348	3134.506282
392.229027	3164.967455
392.612645	3204.674103
392.996200	3235.767940
393.379694	3270.907303
393.763125	3314.553613
394.146494	3341.022191
394.529801	3375.027294
394.913047	3420.717792
395.296230	3428.864297
395.679351	3455.736167
396.062410	3502.674351
396.445408	3479.457317
396.828343	3526.045140
397.211217	3554.842731
397.594028	3534.095863
397.976778	3578.773089
398.359466	3614.146865
398.742092	3622.857979
399.124656	3634.548415
399.507158	3697.502344
399.889598	3701.389074
400.271977	3767.944907
400.654294	3757.499637
401.036549	3815.067093
401.418742	3810.683810
401.800874	3882.197618
402.182944	3910.521341
402.564952	3998.043333
402.946898	3990.214422
403.328783	3981.692351
403.710606	4035.544477
404.092367	4105.303964
404.474067	4168.033562
404.855705	4156.204494
405.237282	4123.154690
405.618797	4223.440884
406.000250	4297.893685
406.381642	4381.072723
406.762972	4381.539030
407.144240	4347.135676
407.525447	4419.146038
407.906593	4429.177934
408.287677	4514.504504
408.668700	4540.005181
409.049661	4583.253239
409.430560	4620.131800
409.811399	4599.977267
410.192176	4651.432325
410.572891	4732.005087
410.953545	4837.859235
411.334138	4732.393255
411.714669	4838.267568
412.095139	4751.272377
412.475547	4859.480744
412.855894	4861.179613
413.236180	4963.383966
413.616405	4883.920258
413.996568	4986.139734
414.376670	4988.078058
414.756711	4973.952745
415.136691	5038.086304
415.516609	5120.627637
415.896466	5147.544878
416.276262	5215.386205
416.655997	5318.288758
417.035670	5399.612652
417.415283	5526.367424
417.794834	5585.895890
418.174324	5538.698087
418.553753	5526.024626
418.933121	5670.410834
419.312428	5667.391183
419.691674	5578.631587
420.070859	5776.164159
420.449983	5638.233149
420.829045	5799.303055
421.208047	5707.503644
421.586988	5835.387635
421.965867	5872.208222
422.344686	5925.326860
422.723444	6045.490324
423.102141	5673.594323
423.480777	5997.125494
423.859352	5795.590246
424.237866	6083.760243
424.616319	6048.641045
424.994712	6158.356717
425.373044	6046.475870
425.751314	6270.850066
426.129524	5996.117263
426.507673	6175.277350
426.885762	6169.590929
427.263789	6152.425800
427.641756	6175.153842
428.019662	6195.031112
428.397508	6175.121075
428.775292	6108.477021
429.153016	6186.292272
429.530679	6089.008085
429.908282	6070.239869
430.285824	5971.050126
430.663305	6115.600171
431.040726	5985.253577
431.418086	5929.024547
431.795385	5954.885666
432.172624	6022.323702
432.549802	5893.141614
432.926920	5915.441158
433.303977	5817.834337
433.680974	5780.781856
434.057910	5839.763356
434.434786	5805.594415
434.811601	5714.127720
435.188355	5839.060115
435.565050	5715.445982
435.941683	5647.723121
436.318257	5762.716881
436.694770	5670.678015
437.071222	5712.441454
437.447614	5532.981418
437.823946	5446.926402
438.200218	5447.511175
438.576429	5323.357638
438.952580	5327.849307
439.328670	5262.589049
439.704700	5221.906938
440.080670	5108.501141
440.456580	5158.050642
440.832429	5073.170214
441.208218	4906.562600
441.583947	4879.726018
441.959616	4857.960836
442.335224	4801.159635
442.710773	4765.508595
443.086261	4757.992235
443.461689	4598.079273
443.837057	4590.038632
444.212365	4588.173406
444.587612	4515.789998
444.962800	4422.591666
445.337927	4392.185947
445.712995	4211.546281
446.088002	4325.617510
446.462949	4276.856950
446.837837	4207.621743
447.212664	4153.472189
447.587431	4271.588944
447.962139	4425.520577
448.336786	4559.761462
448.711374	4452.437818
449.085901	4143.775529
449.460369	4053.279256
449.834776	3947.014254
450.209124	4036.212430
450.583412	3948.708081
450.957640	3939.066875
451.331808	3817.542299
451.705917	3678.003161
452.079965	3601.428034
452.453954	3577.492636
452.827883	3516.247658
453.201752	3462.677836
453.575562	3418.287956
453.949311	3412.447779
454.323001	3368.541850
454.696632	3316.799447
455.070202	3329.049451
455.443713	3291.520581
455.817164	3261.792897
456.190556	3246.387130
456.563888	3197.319059
456.937160	3174.880884
457.310373	3098.842640
457.683526	3066.334759
458.056619	3031.545756
458.429653	3002.198679
458.802628	2979.213538
459.175542	2952.192954
459.548398	2947.527366
459.921194	2945.793209
460.293930	2933.288627
460.666607	2940.958742
461.039224	2949.866461
461.411782	2933.303750
461.784280	2893.092987
462.156719	2866.150540
462.529099	2837.078206
462.901419	2797.638738
463.273680	2764.173039
463.645882	2750.471182
464.018024	2731.592061
464.390106	2722.487737
464.762130	2731.914695
465.134094	2748.459762
465.505999	2777.312806
465.877845	2793.005918
466.249631	2802.558905
466.621358	2779.898918
466.993026	2751.340782
467.364634	2732.406208
467.736184	2708.823690
468.107674	2688.706966
468.479105	2679.958043
468.850477	2668.358348
469.221790	2658.023983
469.593043	2646.525111
469.964238	2634.038173
470.335373	2633.067751
470.706449	2632.742596
471.077467	2634.648152
471.448425	2650.038795
471.819324	2663.055054
472.190164	2656.529281
472.560945	2638.091260
472.931667	2623.739095
473.302330	2616.731892
473.672934	2610.649739
474.043479	2608.214862
474.413965	2602.538523
474.784393	2601.104315
475.154761	2604.008019
475.525070	2600.927874
475.895321	2599.274376
476.265513	2601.353852
476.635645	2600.086002
477.005719	2599.728080
477.375734	2598.727411
477.745691	2600.151537
478.115588	2602.989706
478.485427	2603.879470
478.855207	2615.088475
479.224928	2622.332613
479.594591	2627.895527
479.964194	2623.658437
480.333739	2622.914867
480.703226	2623.234980
481.072653	2623.723972
481.442022	2624.064250
481.811333	2623.822274
482.180584	2615.368259
482.549777	2613.860954
482.918912	2612.272991
483.287988	2613.301386
483.657005	2610.352311
484.025964	2607.032712
484.394864	2605.880808
484.763706	2604.260077
485.132489	2601.447113
485.501213	2601.729418
485.869879	2600.670775
486.238487	2598.936618
486.607036	2601.845364
486.975527	2594.172728
487.343959	2597.535178
487.712333	2598.074581
488.080648	2597.086515
488.448905	2598.903851
488.817104	2597.683892
489.185244	2600.277565
489.553326	2604.930550
489.921350	2610.619492
490.289315	2620.898405
490.657222	2623.865124
491.025070	2622.907305
491.392861	2626.395783
491.760593	2621.873868
492.128267	2619.018055
492.495883	2613.802981
492.863440	2609.797784
493.230939	2604.723863
493.598380	2603.541713
493.965763	2600.907710
494.333088	2598.981989
494.700354	2597.696495
495.067563	2597.227667
495.434713	2594.999477
495.801805	2596.773963
496.168839	2594.883531
496.535815	2594.901175
496.902733	2594.840681
497.269593	2594.581062
497.636395	2595.884200
498.003139	2597.570466
498.369825	2597.003336
498.736453	2595.846391
499.103023	2595.168356
499.469535	2595.581731
499.835989	2596.456371
500.202385	2592.632656
500.568723	2590.054105
500.935003	2595.818665
501.301226	2590.540577
501.667390	2596.831937
502.033497	2600.854777
502.399546	2597.953593
502.765537	2596.090887
503.131470	2598.508120
503.497345	2597.983840
503.863163	2593.910588
504.228923	2598.871083
504.594625	2599.307143
504.960269	2599.418049
505.325856	2601.200097
505.691385	2599.324787
506.056856	2598.737493
506.422270	2600.879983
506.787625	2596.111052
507.152924	2599.786053
507.518164	2603.377875
507.883347	2597.177256
508.248472	2600.292689
508.613540	2603.299737
508.978550	2601.686568
509.343503	2600.237236
509.708398	2601.021136
510.073236	2604.592793
510.438016	2602.886362
510.802738	2604.360900
511.167403	2604.514655
511.532010	2606.957094
511.896561	2609.016406
512.261053	2609.180243
512.625488	2605.704367
512.989866	2609.107146
513.354186	2609.049173
513.718449	2604.761672
514.082655	2609.759976
514.446803	2609.757455
514.810894	2613.281222
515.174927	2612.724174
515.538904	2611.118567
515.902822	2613.664349
516.266684	2610.261571
516.630488	2611.920110
516.994235	2609.954060
517.357925	2609.518000
517.721558	2612.845162
518.085133	2612.358691
518.448651	2610.125459
518.812112	2606.889039
519.175516	2611.995728
519.538863	2609.197887
519.902152	2613.664349
520.265385	2615.574947
520.628560	2613.745008
520.991678	2612.835080
521.354739	2613.056890
521.717743	2613.697117
522.080690	2613.548403
522.443580	2614.501181
522.806413	2613.485388
523.169189	2615.915225
523.531908	2611.484050
523.894569	2609.528083
524.257174	2612.066304
524.619722	2612.799792
524.982213	2612.371293
525.344647	2613.366921
525.707025	2611.032867
526.069345	2612.159565
526.431608	2612.197374
526.793815	2610.493464
527.155964	2609.775099
527.518057	2609.013885
527.880093	2607.980448
528.242072	2609.397013
528.603995	2607.899790
528.965860	2606.137907
529.327669	2607.181426
529.689421	2605.759820
530.051117	2604.963318
530.412755	2607.171343
530.774337	2604.426435
531.135862	2602.851074
531.497331	2607.136055
531.858743	2603.322422
532.220098	2605.447269
532.581396	2601.764706
532.942638	2601.396702
533.303824	2602.929212
533.664953	2599.473501
534.026025	2600.403594
534.387040	2599.370158
534.747999	2600.917792
535.108902	2600.035590
535.469748	2600.476691
535.830537	2599.594489
536.191270	2598.261104
536.551947	2596.133737
536.912567	2595.581731
537.273131	2595.465784
537.633638	2591.931935
537.994089	2595.347317
538.354483	2595.992585
538.714821	2599.932246
539.075103	2596.673140
539.435328	2595.770774
539.795497	2593.472008
540.155609	2595.029724
540.515665	2594.412183
540.875665	2597.278079
541.235609	2597.310846
541.595496	2594.956627
541.955328	2596.960486
542.315102	2597.086515
542.674821	2594.825558
543.034483	2592.695670
543.394090	2590.898499
543.753640	2593.681216
544.113134	2595.009560
544.472571	2594.921339
544.831953	2597.262955
545.191278	2592.703232
545.550548	2593.963520
545.909761	2595.233891
546.268918	2595.813624
546.628019	2594.994436
546.987064	2592.100814
547.346053	2590.921184
547.704986	2595.591813
548.063863	2596.330342
548.422684	2596.988212
548.781449	2593.340938
549.140158	2591.957141
549.498811	2593.255238
549.857408	2593.230032
550.215949	2595.934611
550.574434	2594.223140
550.932864	2594.424786
551.291237	2594.563417
551.649555	2595.130547
552.007817	2594.006370
552.366022	2595.528798
552.724173	2592.587285
553.082267	2593.540063
553.440305	2594.777667
553.798288	2594.301277
554.156215	2595.659868
554.514086	2593.933273
554.871902	2589.169383
555.229661	2594.044179
555.587365	2588.635021
555.945014	2591.979826
556.302606	2593.434199
556.660143	2595.259097
557.017625	2594.805393
557.375050	2593.484611
557.732421	2590.744743
558.089735	2595.095259
558.446994	2590.442274
558.804197	2594.202975
559.161345	2593.159456
559.518437	2592.362954
559.875474	2593.744230
560.232455	2592.904878
560.589381	2593.020824
560.946251	2594.825557
561.303065	2594.691967
561.659825	2594.379415
562.016528	2595.405290
562.373177	2590.853128
562.729770	2594.268510
563.086307	2592.607450
563.442789	2593.386308
563.799216	2591.548807
564.155587	2592.307501
564.511904	2591.581575
564.868164	2590.091914
565.224370	2591.758015
565.580520	2592.920001
565.936615	2592.738520
566.292654	2593.918150
566.648638	2594.157605
567.004567	2589.917994
567.360441	2591.742892
567.716260	2592.065526
568.072023	2593.847574
568.427732	2595.072574
568.783385	2590.036461
569.138982	2589.905391
569.494525	2594.069384
569.850013	2591.233735
570.205445	2592.667944
570.560823	2591.263982
570.916145	2591.652151
571.271412	2588.796337
571.626625	2590.596029
571.981782	2589.245000
572.336884	2586.434557
572.691931	2587.578899
573.046923	2586.263158
573.401860	2584.718044
573.756743	2591.339600
574.111570	2589.915474
574.466342	2589.512181
574.821059	2589.169383
575.175722	2587.883889
575.530330	2586.535380
575.884882	2586.684094
576.239380	2586.951275
576.593823	2588.478745
576.948211	2585.834660
577.302544	2585.159145
577.656823	2583.407344
578.011047	2586.036306
578.365216	2587.974629
578.719330	2584.019844
579.073389	2581.917683
579.427394	2582.661253
579.781344	2585.156624
580.135239	2581.179154
580.489080	2583.805595
580.842866	2582.918352
581.196597	2584.788620
581.550273	2581.988259
581.903895	2580.664956
582.257463	2583.969433
582.610975	2582.504977
582.964434	2581.186716
583.317837	2581.728640
583.671186	2582.573033
584.024481	2579.669328
584.377721	2580.150759
584.730906	2580.690162
585.084037	2582.091603
585.437113	2579.447518
585.790135	2582.240317
586.143103	2581.148907
586.496016	2580.175964
586.848874	2578.000707
587.201679	2580.526325
587.554428	2581.068249
587.907124	2577.110943
588.259765	2576.745459
588.612352	2578.585480
588.964884	2576.286714
589.317362	2578.814853
589.669786	2577.113463
590.022155	2575.971642
590.374470	2574.161868
590.726731	2575.719584
591.078937	2571.162381
591.431090	2578.890470
591.783188	2575.318813
592.135232	2575.359142
592.487222	2575.664132
592.839157	2573.360324
593.191038	2574.988617
593.542866	2571.202711
593.894639	2571.467371
594.246358	2577.630182
594.598022	2572.349573
594.949633	2572.957032
595.301190	2572.868812
595.652692	2571.913513
596.004141	2570.776733
596.355535	2569.886969
596.706876	2568.782957
597.058162	2568.546022
597.409395	2568.871177
597.760573	2572.437793
598.111698	2570.141548
598.462768	2569.322360
598.813785	2569.254305
599.164748	2568.180539
599.515657	2567.976372
599.866511	2566.267421
600.217312	2568.704819
600.568060	2565.400342
600.918753	2569.549212
601.269392	2568.619119
601.619978	2566.393450
601.970510	2565.806155
602.320988	2567.018553
602.671412	2566.534602
603.021783	2567.447051
603.372100	2568.626681
603.722363	2566.040569
604.072572	2568.152812
604.422728	2566.466547
604.772830	2567.174829
605.122878	2566.559808
605.472872	2567.328584
605.822813	2567.381516
606.172701	2565.904458
606.522534	2563.630897
606.872314	2565.049982
607.222041	2565.493604
607.571714	2564.215671
607.921333	2562.206772
608.270899	2563.880435
608.620411	2559.227450
608.969870	2566.486711
609.319276	2564.888665
609.668627	2566.262380
610.017926	2566.136351
610.367171	2565.281875
610.716362	2567.653738
611.065500	2565.831361
611.414585	2567.071485
611.763616	2566.632905
612.112594	2564.422359
612.461518	2565.070147
612.810389	2565.770867
613.159207	2569.561815
613.507971	2565.473439
613.856682	2567.252967
614.205340	2563.076371
614.553945	2569.120714
614.902496	2567.023594
615.250994	2567.278172
615.599439	2566.693398
615.947830	2566.547205
616.296169	2564.553429
616.644454	2568.553584
616.992686	2566.108625
617.340864	2566.605178
617.688990	2568.989644
618.037063	2569.687844
618.385082	2569.471074
618.733048	2570.149109
619.080961	2570.716239
619.428821	2565.849005
619.776628	2568.440158
620.124382	2567.958728
620.472083	2566.234653
620.819731	2569.453430
621.167326	2569.239181
621.514868	2565.271793
621.862357	2570.118862
622.209793	2565.133161
622.557176	2564.044272
622.904506	2564.291289
623.251783	2565.223902
623.599007	2565.501166
623.946179	2562.693243
624.293297	2566.184242
624.640363	2561.768191
624.987376	2560.699467
625.334336	2556.447253
625.681243	2557.599157
626.028097	2554.415668
626.374899	2559.066133
626.721647	2557.422717
627.068343	2558.604867
627.414987	2559.232491
627.761577	2556.883313
628.108115	2557.238714
628.454600	2553.798127
628.801032	2555.839794
629.147412	2558.753581
629.493739	2554.972716
629.840014	2552.802499
630.186236	2555.464228
630.532405	2554.191337
630.878521	2553.188147
631.224585	2553.586398
631.570597	2553.621687
631.916556	2555.746533
632.262462	2554.990360
632.608316	2555.428940
632.954117	2552.787376
633.299866	2554.675288
633.645562	2554.173693
633.991206	2552.056408
634.336797	2549.619010
634.682336	2549.881150
635.027823	2551.953065
635.373257	2549.553475
635.718639	2549.195553
636.063968	2551.388455
636.409245	2549.200595
636.754470	2548.330996
637.099642	2544.124153
637.444762	2546.506098
637.789829	2547.161448
638.134845	2545.238248
638.479808	2545.896118
638.824719	2543.471323
639.169577	2545.641540
639.514383	2542.200953
639.859137	2542.190870
640.203839	2543.819163
640.548489	2542.142979
640.893086	2542.498381
641.237632	2542.778165
641.582125	2544.381252
641.926566	2541.603576
642.270955	2542.962167
642.615292	2538.788091
642.959576	2542.692465
643.303809	2536.093595
643.647990	2544.729091
643.992118	2541.129707
644.336195	2541.858154
