Dividing Wavelength (nm)	Counts (n)	Blue Motor Position (mm): 0.000000	Red Motor Position (mm): 32.500000	
326.493990	2052.410007
326.888308	2052.410007
327.282561	2052.410007
327.676750	2027.138702
328.070874	2027.975534
328.464933	2034.254291
328.858929	2043.086392
329.252859	2051.696683
329.646726	2066.532799
330.040528	2083.171127
330.434265	2101.467995
330.827938	2120.732765
331.221547	2139.702627
331.615091	2162.735658
332.008571	2180.866168
332.401986	2200.952646
332.795338	2223.254710
333.188625	2242.045611
333.581847	2260.697881
333.975006	2276.360746
334.368100	2294.576955
334.761129	2310.683442
335.154095	2326.036276
335.546996	2346.437825
335.939833	2377.493853
336.332606	2391.533467
336.725315	2404.408574
337.117960	2411.193967
337.510540	2422.216450
337.903056	2432.848243
338.295508	2436.908893
338.687896	2444.543720
339.080220	2452.017231
339.472480	2455.972016
339.864676	2458.933694
340.256807	2463.150619
340.648875	2466.190435
341.040879	2467.609520
341.432818	2469.318471
341.824694	2469.983903
342.216506	2467.158336
342.608253	2468.978193
342.999937	2463.947121
343.391557	2468.479119
343.783113	2466.450054
344.174605	2463.190948
344.566033	2462.326390
344.957397	2459.314301
345.348697	2461.315639
345.739934	2460.108283
346.131106	2456.410596
346.522215	2455.276337
346.913260	2451.538321
347.304241	2452.889350
347.695159	2449.529421
348.086012	2450.522529
348.476802	2447.291149
348.867528	2442.154213
349.258191	2442.771755
349.648789	2439.071548
350.039324	2437.546599
350.429796	2443.197732
350.820203	2440.117587
351.210548	2440.248657
351.600828	2437.223965
351.991045	2438.028029
352.381198	2437.133224
352.771288	2437.750765
353.161314	2436.699685
353.551276	2438.741352
353.941175	2441.501384
354.331010	2440.679676
354.720782	2437.725560
355.110490	2438.632967
355.500135	2436.666917
355.889717	2441.428287
356.279235	2442.736467
356.668689	2440.137752
357.058080	2439.749583
357.447408	2440.316713
357.836672	2441.065324
358.225873	2444.130346
358.615010	2442.323092
359.004084	2443.515325
359.393095	2443.369131
359.782043	2445.171344
360.170927	2445.317537
360.559748	2444.725202
360.948505	2445.342743
361.337199	2448.012034
361.725830	2449.499174
362.114398	2446.461879
362.502903	2451.220728
362.891344	2451.440019
363.279722	2450.048660
363.668037	2447.364246
364.056289	2451.175358
364.444478	2451.802982
364.832603	2453.070832
365.220665	2451.404731
365.608665	2453.156532
365.996601	2453.373301
366.384474	2454.225256
366.772284	2456.186265
367.160031	2457.416307
367.547715	2454.825153
367.935336	2454.119392
368.322893	2456.211471
368.710388	2451.616459
369.097820	2456.130812
369.485189	2449.264761
369.872495	2458.598457
370.259738	2458.979064
370.646918	2460.370423
371.034035	2463.831175
371.421090	2460.103242
371.808081	2460.413273
372.195010	2464.665486
372.581875	2464.320167
372.968678	2466.797894
373.355418	2468.335446
373.742096	2467.329736
374.128710	2471.317288
374.515262	2473.442135
374.901751	2474.977166
375.288177	2481.024030
375.674540	2483.156438
376.060841	2488.389156
376.447079	2493.284116
376.833254	2499.182266
377.219367	2500.994561
377.605417	2506.270128
377.991404	2512.218690
378.377329	2523.168076
378.763191	2525.219826
379.148991	2535.261804
379.534727	2544.522404
379.920402	2553.288970
380.306013	2562.194169
380.691563	2575.956519
381.077049	2584.652509
381.462474	2595.178438
381.847835	2609.961622
382.233134	2620.895885
382.618371	2632.850981
383.003545	2649.408651
383.388657	2664.068326
383.773706	2685.430216
384.158693	2697.949921
384.543618	2713.459031
384.928480	2730.878738
385.313280	2750.705596
385.698017	2768.987341
386.082692	2792.179169
386.467305	2806.727939
386.851856	2832.470591
387.236344	2859.866742
387.620770	2876.643702
388.005133	2892.326731
388.389435	2926.420055
388.773674	2943.814556
389.157851	2978.038949
389.541965	3002.700274
389.926018	3017.609487
390.310008	3049.356153
390.693936	3071.310378
391.077802	3102.331118
391.461606	3131.378247
391.845348	3151.442039
392.229027	3179.254085
392.612645	3219.537945
392.996200	3248.643047
393.379694	3287.031433
393.763125	3329.324193
394.146494	3353.511650
394.529801	3393.372053
394.913047	3436.529371
395.296230	3441.333591
395.679351	3467.582879
396.062410	3519.647916
396.445408	3497.141684
396.828343	3541.309754
397.211217	3573.585741
397.594028	3543.016184
397.976778	3592.217846
398.359466	3627.274030
398.742092	3635.528919
399.124656	3647.617606
399.507158	3707.314950
399.889598	3715.705951
400.271977	3781.150210
400.654294	3766.936677
401.036549	3828.806758
401.418742	3828.214422
401.800874	3895.468456
402.182944	3922.088268
402.564952	4006.681351
402.946898	4001.105834
403.328783	3996.117613
403.710606	4045.233575
404.092367	4116.273515
404.474067	4184.414791
404.855705	4167.700846
405.237282	4136.972492
405.618797	4236.290785
406.000250	4315.822548
406.381642	4397.249786
406.762972	4393.879775
407.144240	4360.283005
407.525447	4427.088376
407.906593	4440.502886
408.287677	4526.741905
408.668700	4555.476482
409.049661	4594.270681
409.430560	4629.415085
409.811399	4614.858753
410.192176	4663.422709
410.572891	4745.772478
410.953545	4848.334753
411.334138	4749.820524
411.714669	4857.489488
412.095139	4770.007825
412.475547	4877.656624
412.855894	4886.667687
413.236180	4988.299869
413.616405	4915.185494
413.996568	5019.408829
414.376670	5021.354714
414.756711	5017.145351
415.136691	5086.360393
415.516609	5176.183673
415.896466	5208.469742
416.276262	5284.502945
416.655997	5400.033588
417.035670	5492.841231
417.415283	5630.769721
417.794834	5707.246545
418.174324	5668.820350
418.553753	5669.001831
418.933121	5831.720195
419.312428	5848.373647
419.691674	5768.700731
420.070859	5995.968549
420.449983	5874.872472
420.829045	6071.285908
421.208047	5998.907542
421.586988	6155.400081
421.965867	6228.312809
422.344686	6305.881044
422.723444	6472.841538
423.102141	6089.872643
423.480777	6489.729404
423.859352	6298.019364
424.237866	6665.784140
424.616319	6661.950343
424.994712	6823.481515
425.373044	6740.073104
425.751314	7055.609005
426.129524	6774.408403
426.507673	7043.694238
426.885762	7085.140085
427.263789	7126.328832
427.641756	7210.057356
428.019662	7292.870911
428.397508	7329.799884
428.775292	7309.665515
429.153016	7486.552042
429.530679	7417.392452
429.908282	7464.721325
430.285824	7410.753253
430.663305	7689.778598
431.040726	7576.607214
431.418086	7585.671209
431.795385	7711.143008
432.172624	7903.919251
432.549802	7784.917773
432.926920	7916.779235
433.303977	7862.478446
433.680974	7904.667862
434.057910	8109.941127
434.434786	8159.649424
434.811601	8109.333667
435.188355	8457.493396
435.565050	8337.889501
435.941683	8350.026078
436.318257	8683.468158
436.694770	8640.144482
437.071222	8869.985810
437.447614	8642.276890
437.823946	8611.881253
438.200218	8764.610571
438.576429	8642.186150
438.952580	8810.865678
439.328670	8808.582035
439.704700	8886.994663
440.080670	8781.281667
440.456580	9052.672184
440.832429	9028.303246
441.208218	8766.785829
441.583947	8881.310762
441.959616	9000.917178
442.335224	9032.699132
442.710773	9111.124363
443.086261	9291.653123
443.461689	9014.500567
443.837057	9189.257206
444.212365	9401.895596
444.587612	9373.350062
444.962800	9273.371379
445.337927	9410.972193
445.712995	8954.772976
446.088002	9618.801322
446.462949	9684.646353
446.837837	9666.881327
447.212664	9683.678452
447.587431	10511.267035
447.962139	11520.256498
448.336786	12466.312196
448.711374	12251.841347
449.085901	11041.563652
449.460369	10963.040119
449.834776	10741.446119
450.209124	11653.879842
450.583412	11470.215484
450.957640	11794.578446
451.331808	11381.163501
451.705917	10811.495473
452.079965	10689.655825
452.453954	10896.517053
452.827883	10839.569658
453.201752	10804.319390
453.575562	10811.886162
453.949311	11158.417598
454.323001	11225.868237
454.696632	11141.171811
455.070202	11723.677138
455.443713	11781.521858
455.817164	11953.223558
456.190556	12265.581012
456.563888	12139.171558
456.937160	12403.249882
457.310373	11890.176367
457.683526	11897.753221
458.056619	11917.650655
458.429653	11977.355561
458.802628	12125.552881
459.175542	12177.002897
459.548398	12720.519940
459.921194	13300.154330
460.293930	13572.094333
460.666607	14428.230970
461.039224	15227.642024
461.411782	15588.777683
461.784280	15266.494197
462.156719	15212.599221
462.529099	15135.724145
462.901419	14479.330626
463.273680	14087.801851
463.645882	14300.646928
464.018024	14178.741746
464.390106	14549.450556
464.762130	15590.065697
465.134094	17108.156246
465.505999	19396.751872
465.877845	21664.058705
466.249631	22939.573972
466.621358	22494.079645
466.993026	21695.699507
467.364634	20952.441867
467.736184	20150.200205
468.107674	19532.522748
468.479105	19383.304594
468.850477	19114.049005
469.221790	18688.411783
469.593043	18014.452364
469.964238	17620.314792
470.335373	17683.409873
470.706449	18383.086739
471.077467	19230.396316
471.448425	21691.691790
471.819324	23571.880858
472.190164	23499.898222
472.560945	21763.321545
472.931667	20170.808442
473.302330	19839.027422
473.672934	19284.591240
474.043479	19706.049346
474.413965	19483.759667
474.784393	19298.678744
475.154761	19970.387289
475.525070	20100.980900
475.895321	19929.400187
476.265513	20456.329314
476.635645	21042.187008
477.005719	21108.059765
477.375734	21462.697377
477.745691	22097.955858
478.115588	22733.945307
478.485427	23922.979579
478.855207	25711.941406
479.224928	27518.814453
479.594591	28969.645927
479.964194	28610.685526
480.333739	29092.229144
480.703226	29307.408276
481.072653	29736.786034
481.442022	30255.185528
481.811333	30673.500474
482.180584	30233.725336
482.549777	30025.583656
482.918912	29774.312383
483.287988	29707.423833
483.657005	29555.123014
484.025964	29200.326606
484.394864	29380.363854
484.763706	29309.981785
485.132489	28768.818961
485.501213	28854.054790
485.869879	29017.310037
486.238487	28931.708724
486.607036	29196.228148
486.975527	28879.195024
487.343959	29211.588544
487.712333	29565.739684
488.080648	29511.635500
488.448905	29936.216601
488.817104	29804.425716
489.185244	30605.467583
489.553326	31532.621474
489.921350	33385.474885
490.289315	35894.192494
490.657222	36773.677235
491.025070	37359.434106
491.392861	37080.559996
491.760593	36309.056770
492.128267	35287.078775
492.495883	34305.919002
492.863440	33394.201123
493.230939	32383.878275
493.598380	31800.992341
493.965763	31601.352566
494.333088	31089.345255
494.700354	30873.195702
495.067563	30797.500256
495.434713	30645.300260
495.801805	30884.044265
496.168839	30687.461950
496.535815	30493.261580
496.902733	30582.661402
497.269593	30357.140344
497.636395	30457.071137
498.003139	30684.308708
498.369825	30391.876415
498.736453	30740.593191
499.103023	30530.727436
499.469535	30567.371583
499.835989	30610.347419
500.202385	30428.507959
500.568723	30401.479813
500.935003	30638.131739
501.301226	30420.610992
501.667390	31065.664435
502.033497	31192.484742
502.399546	30940.873192
502.765537	30485.967031
503.131470	30852.214419
503.497345	31185.333865
503.863163	30095.713667
504.228923	30747.207185
504.594625	31034.051359
504.960269	30444.790886
505.325856	30969.305300
505.691385	30560.578628
506.056856	30770.449424
506.422270	31119.831633
506.787625	30573.022716
507.152924	30881.264068
507.518164	30938.758428
507.883347	30439.961461
508.248472	30456.393102
508.613540	30975.311834
508.978550	31046.986960
509.343503	30787.357454
509.708398	30988.111324
510.073236	31382.737888
510.438016	31329.591524
510.802738	30906.129560
511.167403	31252.393814
511.532010	31341.584429
511.896561	31663.026042
512.261053	32175.340863
512.625488	31833.517865
512.989866	31615.372015
513.354186	31501.686434
513.718449	31332.906082
514.082655	31917.475762
514.446803	31506.024347
514.810894	31864.117669
515.174927	31697.973841
515.538904	31545.413402
515.902822	31904.414132
516.266684	31486.560452
516.630488	31592.734713
516.994235	31426.890834
517.357925	31704.076158
517.721558	31738.545047
518.085133	31854.768849
518.448651	31829.963852
518.812112	31550.411706
519.175516	31493.832316
519.538863	31644.169606
519.902152	31502.011588
520.265385	31730.653121
520.628560	31554.106872
520.991678	31305.585549
521.354739	31283.706942
521.717743	31357.690915
522.080690	31076.694479
522.443580	31386.226367
522.806413	31175.760714
523.169189	31073.153069
523.531908	31019.401766
523.894569	30700.659691
524.257174	30627.169750
524.619722	30664.219710
524.982213	30567.837890
525.344647	30358.388030
525.707025	30221.671937
526.069345	30309.766101
526.431608	30036.651509
526.793815	30076.030482
527.155964	29534.214828
527.518057	29474.096548
527.880093	29153.234668
528.242072	29349.358237
528.603995	28939.351113
528.965860	28657.651436
529.327669	28569.985771
529.689421	28375.361944
530.051117	28122.921124
530.412755	28070.246108
530.774337	27869.756898
531.135862	27597.799251
531.497331	27460.853787
531.858743	27219.919400
532.220098	27232.567655
532.581396	26828.977919
532.942638	26460.454450
533.303824	26377.557716
533.664953	26178.177561
534.026025	25763.961073
534.387040	25869.522834
534.747999	25664.078171
535.108902	25617.253413
535.469748	25006.348746
535.830537	24922.645428
536.191270	24830.679658
536.551947	24455.680827
536.912567	24366.086920
537.273131	24197.311610
537.633638	23788.257263
537.994089	23651.868846
538.354483	23297.632006
538.714821	23403.125712
539.075103	23310.703718
539.435328	23010.208099
539.795497	22660.125170
540.155609	22490.593687
540.515665	22555.012071
540.875665	21990.657419
541.235609	21888.160679
541.595496	21733.273748
541.955328	21764.770877
542.315102	21280.295827
542.674821	21013.155003
543.034483	20754.541290
543.394090	20528.690036
543.753640	20303.826848
544.113134	20545.285514
544.472571	19943.240675
544.831953	20197.196362
545.191278	19661.757768
545.550548	19317.978802
545.909761	19368.987717
546.268918	19207.844714
546.628019	19140.159662
546.987064	18707.258137
547.346053	18231.683245
547.704986	18365.341877
548.063863	18017.351027
548.422684	17866.716309
548.781449	17508.383532
549.140158	17486.855285
549.498811	17186.427721
549.857408	16781.187007
550.215949	16871.776542
550.574434	16611.741224
550.932864	16397.282978
551.291237	16430.410920
551.649555	16147.750903
552.007817	16003.281516
552.366022	15721.538990
552.724173	15544.367638
553.082267	15471.694364
553.440305	15394.511778
553.798288	14977.517614
554.156215	14907.808539
554.514086	14774.923723
554.871902	14483.978570
555.229661	14344.469679
555.587365	14079.446139
555.945014	13936.773923
556.302606	13761.480401
556.660143	13601.348149
557.017625	13493.011232
557.375050	13237.969177
557.732421	13162.639215
558.089735	13006.320596
558.446994	12791.575004
558.804197	12729.972104
559.161345	12521.381761
559.518437	12205.155221
559.875474	12090.728590
560.232455	11977.443781
560.589381	11820.000985
560.946251	11630.413271
561.303065	11602.439908
561.659825	11371.756708
562.016528	11185.208810
562.373177	10942.570514
562.729770	10911.864846
563.086307	10667.535242
563.442789	10631.364963
563.799216	10449.119690
564.155587	10286.923086
564.511904	10136.999170
564.868164	10003.403552
565.224370	9919.672507
565.580520	9735.166277
565.936615	9625.133012
566.292654	9444.687430
566.648638	9358.277012
567.004567	9222.745591
567.360441	9108.107232
567.716260	8929.521837
568.072023	8861.665385
568.427732	8724.881237
568.783385	8543.659318
569.138982	8473.063000
569.494525	8376.749235
569.850013	8209.524080
570.205445	8108.224614
570.560823	7962.908313
570.916145	7835.664549
571.271412	7747.527535
571.626625	7603.680731
571.981782	7495.449678
572.336884	7348.782348
572.691931	7280.512522
573.046923	7143.826677
573.401860	7020.056268
573.756743	6926.023625
574.111570	6843.928435
574.466342	6743.281798
574.821059	6662.179715
575.175722	6521.072778
575.530330	6440.159738
575.884882	6318.877138
576.239380	6215.805707
576.593823	6144.478421
576.948211	6052.757147
577.302544	5933.493530
577.656823	5850.916909
578.011047	5794.186284
578.365216	5705.928283
578.719330	5607.368684
579.073389	5531.549731
579.427394	5464.756963
579.781344	5387.997834
580.135239	5301.267302
580.489080	5235.223146
580.842866	5141.954238
581.196597	5114.152274
581.550273	5049.809507
581.903895	4979.021625
582.257463	4945.099701
582.610975	4859.052246
582.964434	4819.509435
583.317837	4738.319132
583.671186	4680.267725
584.024481	4642.080984
584.377721	4565.992329
584.730906	4523.918859
585.084037	4477.953618
585.437113	4417.658897
585.790135	4374.415880
586.143103	4309.145540
586.496016	4265.607615
586.848874	4227.851893
587.201679	4184.981921
587.554428	4124.334320
587.907124	4092.335596
588.259765	4050.002506
588.612352	4015.813401
588.964884	3959.042447
589.317362	3936.994960
589.669786	3901.835433
590.022155	3860.629041
590.374470	3839.357893
590.726731	3795.605718
591.078937	3742.187132
591.431090	3725.190882
591.783188	3681.010209
592.135232	3648.908142
592.487222	3628.564565
592.839157	3605.087912
593.191038	3570.268662
593.542866	3541.670196
593.894639	3505.043693
594.246358	3488.715396
594.598022	3465.967189
594.949633	3436.852005
595.301190	3413.067841
595.652692	3395.262486
596.004141	3382.515928
596.355535	3343.298272
596.706876	3322.690035
597.058162	3302.580872
597.409395	3294.971251
597.760573	3285.718213
598.111698	3262.685181
598.462768	3247.564240
598.813785	3230.129409
599.164748	3208.281048
599.515657	3201.989688
599.866511	3178.802901
600.217312	3179.054959
600.568060	3155.164931
600.918753	3158.300529
601.269392	3145.231337
601.619978	3133.079636
601.970510	3126.379942
602.320988	3118.220835
602.671412	3110.497787
603.021783	3100.677620
603.372100	3085.637337
603.722363	3076.412026
604.072572	3070.687795
604.422728	3062.364850
604.772830	3052.199364
605.122878	3044.294834
605.472872	3036.836447
605.822813	3035.732435
606.172701	3023.109385
606.522534	3020.331710
606.872314	3019.202491
607.222041	3009.163033
607.571714	3004.656242
607.921333	2990.248624
608.270899	2992.270127
608.620411	2989.550424
608.969870	2985.056236
609.319276	2980.405771
609.668627	2974.437045
610.017926	2972.350007
610.367171	2970.467136
610.716362	2965.123513
611.065500	2957.642441
611.414585	2954.330403
611.763616	2951.963581
612.112594	2946.602314
612.461518	2944.028805
612.810389	2945.367231
613.159207	2940.631067
613.507971	2933.873401
613.856682	2935.158895
614.205340	2926.631783
614.553945	2931.607402
614.902496	2920.968047
615.250994	2920.378232
615.599439	2914.858168
615.947830	2913.454207
616.296169	2911.036974
616.644454	2905.151427
616.992686	2906.746952
617.340864	2907.959349
617.688990	2897.758574
618.037063	2901.851991
618.385082	2894.985940
618.733048	2893.367729
619.080961	2892.921587
619.428821	2888.755074
619.776628	2884.538148
620.124382	2883.154352
620.472083	2878.208980
620.819731	2878.909700
621.167326	2869.160109
621.514868	2868.164481
621.862357	2861.328676
622.209793	2858.669467
622.557176	2849.275277
622.904506	2846.651357
623.251783	2840.607013
623.599007	2836.841271
623.946179	2835.386898
624.293297	2829.607216
624.640363	2823.114209
624.987376	2816.202787
625.334336	2809.135090
625.681243	2805.457568
626.028097	2800.736527
626.374899	2803.209213
626.721647	2798.135292
627.068343	2797.653862
627.414987	2789.484672
627.761577	2786.696914
628.108115	2786.759928
628.454600	2780.299690
628.801032	2779.909000
629.147412	2777.643002
629.493739	2776.977569
629.840014	2770.744183
630.186236	2773.602517
630.532405	2768.876435
630.878521	2769.292330
631.224585	2765.488780
631.570597	2759.192379
631.916556	2761.367637
632.262462	2759.078953
632.608316	2755.356061
632.954117	2754.496544
633.299866	2751.368508
633.645562	2750.196440
633.991206	2745.954309
634.336797	2741.140007
634.682336	2738.937022
635.027823	2736.497104
635.373257	2735.264542
635.718639	2735.022567
636.063968	2731.811352
636.409245	2723.979919
636.754470	2720.506564
637.099642	2721.396328
637.444762	2716.587067
637.789829	2715.505739
638.134845	2711.808053
638.479808	2711.843341
638.824719	2712.057590
639.169577	2704.069882
639.514383	2702.970910
