Dividing Wavelength (nm)	Counts (n)	Blue Motor Position (mm): 0.000000	Red Motor Position (mm): 21.500000	
326.493990	2052.089893
326.888308	2052.089893
327.282561	2052.089893
327.676750	2025.318846
328.070874	2028.262880
328.464933	2032.953673
328.858929	2042.415919
329.252859	2052.067208
329.646726	2066.542881
330.040528	2081.031158
330.434265	2098.123190
330.827938	2123.626387
331.221547	2138.389406
331.615091	2158.687612
332.008571	2179.905828
332.401986	2200.443489
332.795338	2223.111038
333.188625	2241.163409
333.581847	2257.920205
333.975006	2277.868051
334.368100	2294.007305
334.761129	2311.636220
335.154095	2327.740186
335.546996	2343.985304
335.939833	2357.609022
336.332606	2371.331043
336.725315	2383.523073
337.117960	2391.145298
337.510540	2403.821279
337.903056	2414.606828
338.295508	2420.767118
338.687896	2426.745927
339.080220	2432.180290
339.472480	2438.796805
339.864676	2442.519697
340.256807	2446.063628
340.648875	2446.744184
341.040879	2447.008844
341.432818	2450.870368
341.824694	2451.293825
342.216506	2448.697631
342.608253	2448.175872
342.999937	2448.606890
343.391557	2448.027158
343.783113	2447.606221
344.174605	2444.263936
344.566033	2443.565736
344.957397	2442.585232
345.348697	2441.400561
345.739934	2437.360076
346.131106	2435.441917
346.522215	2437.160950
346.913260	2434.075764
347.304241	2431.406473
347.695159	2428.500248
348.086012	2430.877152
348.476802	2428.459919
348.867528	2425.551173
349.258191	2417.739905
349.648789	2422.130750
350.039324	2418.309556
350.429796	2421.636717
350.820203	2420.293250
351.210548	2419.766449
351.600828	2423.212078
351.991045	2419.683270
352.381198	2418.775862
352.771288	2420.643610
353.161314	2417.818043
353.551276	2420.555390
353.941175	2419.985739
354.331010	2419.456418
354.720782	2419.179155
355.110490	2419.259813
355.500135	2418.133115
355.889717	2419.020358
356.279235	2418.271747
356.668689	2421.455236
357.058080	2417.603794
357.447408	2421.230904
357.836672	2423.539753
358.225873	2422.680236
358.615010	2424.600916
359.004084	2423.998498
359.393095	2424.182500
359.782043	2423.902716
360.170927	2426.632501
360.559748	2426.529157
360.948505	2426.692994
361.337199	2427.383633
361.725830	2428.580907
362.114398	2431.177101
362.502903	2426.793818
362.891344	2428.238108
363.279722	2428.994281
363.668037	2432.321443
364.056289	2431.214909
364.444478	2435.651125
364.832603	2432.265990
365.220665	2433.037287
365.608665	2434.458892
365.996601	2431.676175
366.384474	2431.900506
366.772284	2432.139961
367.160031	2434.733635
367.547715	2431.887903
367.935336	2434.731114
368.322893	2434.416042
368.710388	2429.430341
369.097820	2433.680034
369.485189	2430.438572
369.872495	2435.885538
370.259738	2439.631116
370.646918	2438.448965
371.034035	2438.587597
371.421090	2441.466096
371.808081	2442.333174
372.195010	2439.552978
372.581875	2442.582711
372.968678	2444.463062
373.355418	2444.284101
373.742096	2447.492795
374.128710	2447.220573
374.515262	2451.069494
374.901751	2455.009156
375.288177	2460.128447
375.674540	2461.184569
376.060841	2466.835702
376.447079	2467.670013
376.833254	2474.878863
377.219367	2479.504122
377.605417	2484.842704
377.991404	2491.373519
378.377329	2499.835096
378.763191	2505.561846
379.148991	2512.576612
379.534727	2521.837212
379.920402	2529.313243
380.306013	2540.708771
380.691563	2553.054557
381.077049	2559.971020
381.462474	2572.215982
381.847835	2589.728951
382.233134	2602.566249
382.618371	2612.532610
383.003545	2629.748151
383.388657	2643.248361
383.773706	2663.092863
384.158693	2675.176509
384.543618	2692.697039
384.928480	2708.717826
385.313280	2729.258007
385.698017	2748.527818
386.082692	2773.615120
386.467305	2786.885957
386.851856	2811.270018
387.236344	2840.569205
387.620770	2858.500589
388.005133	2873.273690
388.389435	2911.838517
388.773674	2924.038109
389.157851	2956.992132
389.541965	2982.414671
389.926018	2996.446723
390.310008	3031.986857
390.693936	3052.627862
391.077802	3079.698858
391.461606	3112.637757
391.845348	3131.463946
392.229027	3159.268430
392.612645	3200.827702
392.996200	3231.994636
393.379694	3266.760954
393.763125	3312.431287
394.146494	3337.173270
394.529801	3371.949670
394.913047	3416.321906
395.296230	3423.603853
395.679351	3444.154116
396.062410	3494.684122
396.445408	3474.738797
396.828343	3516.494674
397.211217	3551.071948
397.594028	3523.524563
397.976778	3572.166657
398.359466	3605.788632
398.742092	3614.494705
399.124656	3634.465236
399.507158	3690.802651
399.889598	3692.360367
400.271977	3760.859566
400.654294	3750.754573
401.036549	3811.087102
401.418742	3805.718273
401.800874	3878.421794
402.182944	3905.293664
402.564952	3988.863392
402.946898	3986.050428
403.328783	3982.372907
403.710606	4031.889640
404.092367	4101.276082
404.474067	4164.847553
404.855705	4151.039832
405.237282	4120.936582
405.618797	4214.528124
406.000250	4294.899239
406.381642	4379.913258
406.762972	4379.451992
407.144240	4348.632898
407.525447	4409.028442
407.906593	4427.393365
408.287677	4511.888145
408.668700	4531.470507
409.049661	4574.108586
409.430560	4613.651397
409.811399	4598.124643
410.192176	4646.028208
410.572891	4726.250609
410.953545	4830.267257
411.334138	4730.064242
411.714669	4840.294112
412.095139	4751.605093
412.475547	4863.649778
412.855894	4868.544738
413.236180	4970.035768
413.616405	4896.664295
413.996568	5001.585830
414.376670	5003.808978
414.756711	4997.983925
415.136691	5064.849790
415.516609	5151.338346
415.896466	5190.989541
416.276262	5264.315645
416.655997	5380.471391
417.035670	5472.956399
417.415283	5614.839674
417.794834	5692.412950
418.174324	5645.961238
418.553753	5647.854191
418.933121	5809.687832
419.312428	5822.232744
419.691674	5747.989150
420.070859	5978.775694
420.449983	5850.097722
420.829045	6045.422268
421.208047	5972.476772
421.586988	6131.210104
421.965867	6203.296083
422.344686	6282.361540
422.723444	6441.674605
423.102141	6054.130862
423.480777	6442.823988
423.859352	6253.132930
424.237866	6618.818230
424.616319	6604.639985
424.994712	6765.825838
425.373044	6666.492422
425.751314	6980.059753
426.129524	6692.691299
426.507673	6946.727644
426.885762	6980.001780
427.263789	7002.361818
427.641756	7080.318221
428.019662	7148.131822
428.397508	7172.173085
428.775292	7130.462578
429.153016	7283.665764
429.530679	7204.824639
429.908282	7238.807057
430.285824	7162.148751
430.663305	7409.886174
431.040726	7277.228211
431.418086	7257.192145
431.795385	7360.182918
432.172624	7512.793768
432.549802	7379.782924
432.926920	7475.451421
433.303977	7397.986531
433.680974	7400.368476
434.057910	7559.225316
434.434786	7573.509425
434.811601	7500.977304
435.188355	7776.708254
435.565050	7633.196687
435.941683	7604.772141
436.318257	7869.581432
436.694770	7785.200078
437.071222	7945.685211
437.447614	7707.720064
437.823946	7635.296327
438.200218	7722.599030
438.576429	7576.874395
438.952580	7671.514497
439.328670	7625.639997
439.704700	7643.692369
440.080670	7507.550968
440.456580	7682.685694
440.832429	7602.105370
441.208218	7343.910073
441.583947	7379.992132
441.959616	7423.071312
442.335224	7395.750779
442.710773	7400.307982
443.086261	7475.433777
443.461689	7206.982252
443.837057	7271.088085
444.212365	7371.061728
444.587612	7296.772764
444.962800	7157.442834
445.337927	7187.057092
445.712995	6811.178579
446.088002	7195.869029
446.462949	7164.124883
446.837837	7093.021929
447.212664	7031.237547
447.587431	7471.859599
447.962139	8019.626335
448.336786	8505.888473
448.711374	8301.555384
449.085901	7490.668144
449.460369	7348.051381
449.834776	7129.661035
450.209124	7537.601286
450.583412	7353.347113
450.957640	7440.062521
451.331808	7134.916438
451.705917	6745.595688
452.079965	6591.853098
452.453954	6602.111847
452.827883	6488.295196
453.201752	6386.640328
453.575562	6299.488861
453.949311	6363.418253
454.323001	6304.585467
454.696632	6175.322721
455.070202	6328.717471
455.443713	6260.208190
455.817164	6230.803139
456.190556	6256.928919
456.563888	6109.296208
456.937160	6107.738492
457.310373	5828.445966
457.683526	5733.405092
458.056619	5639.536287
458.429653	5563.745060
458.802628	5515.221433
459.175542	5433.398465
459.548398	5497.007744
459.921194	5564.022323
460.293930	5548.384664
460.666607	5678.637997
461.039224	5788.066323
461.411782	5765.943220
461.784280	5574.802831
462.156719	5450.765240
462.529099	5320.186753
462.901419	5069.749791
463.273680	4880.202407
463.645882	4820.557995
464.018024	4699.487124
464.390106	4669.567876
464.762130	4769.259213
465.134094	4945.326553
465.505999	5221.213779
465.877845	5472.316173
466.249631	5530.584350
466.621358	5332.799720
466.993026	5089.753090
467.364634	4865.968709
467.736184	4648.173219
468.107674	4474.394563
468.479105	4363.942882
468.850477	4244.880911
469.221790	4115.129173
469.593043	3969.230619
469.964238	3857.382538
470.335373	3789.357208
470.706449	3770.578910
471.077467	3768.443982
471.448425	3874.091443
471.819324	3935.815330
472.190164	3868.611708
472.560945	3696.058053
472.931667	3538.219527
473.302330	3456.565437
473.672934	3372.509238
474.043479	3342.297603
474.413965	3287.059160
474.784393	3232.801221
475.154761	3218.867472
475.525070	3182.934127
475.895321	3136.734472
476.265513	3119.874333
476.635645	3105.393619
477.005719	3071.595203
477.375734	3052.360681
477.745691	3040.294679
478.115588	3024.329345
478.485427	3025.627442
478.855207	3042.558157
479.224928	3052.748849
479.594591	3056.922925
479.964194	3023.560569
480.333739	3006.115656
480.703226	2984.720999
481.072653	2971.598875
481.442022	2961.292236
481.811333	2946.385544
482.180584	2919.662388
482.549777	2899.568349
482.918912	2876.817621
483.287988	2868.973586
483.657005	2851.760566
484.025964	2833.539316
484.394864	2824.634117
484.763706	2813.939309
485.132489	2796.688481
485.501213	2787.896709
485.869879	2783.747839
486.238487	2776.521345
486.607036	2769.181425
486.975527	2757.561565
487.343959	2757.760691
487.712333	2751.461769
488.080648	2748.847931
488.448905	2745.581263
488.817104	2739.667990
489.185244	2740.252764
489.553326	2743.635378
489.921350	2754.332706
490.289315	2768.357196
490.657222	2772.367434
491.025070	2771.989348
491.392861	2764.639345
491.760593	2751.907911
492.128267	2740.552712
492.495883	2730.397308
492.863440	2717.713765
493.230939	2708.743032
493.598380	2701.934953
493.965763	2694.925229
494.333088	2689.392562
494.700354	2684.336285
495.067563	2679.607683
495.434713	2674.269101
495.801805	2675.607527
496.168839	2674.874039
496.535815	2670.122752
496.902733	2664.610250
497.269593	2660.998263
497.636395	2659.279230
498.003139	2658.880979
498.369825	2657.958448
498.736453	2655.687408
499.103023	2654.895947
499.469535	2653.575164
499.835989	2650.404279
500.202385	2646.676345
500.568723	2644.677528
500.935003	2645.844555
501.301226	2640.384985
501.667390	2645.925213
502.033497	2652.541728
502.399546	2646.820018
502.765537	2643.656694
503.131470	2644.334729
503.497345	2646.676345
503.863163	2638.628143
504.228923	2641.539410
504.594625	2643.311375
504.960269	2637.100674
505.325856	2641.219296
505.691385	2637.148565
506.056856	2640.367341
506.422270	2641.972949
506.787625	2636.042031
507.152924	2637.720736
507.518164	2637.957670
507.883347	2636.004223
508.248472	2636.314254
508.613540	2638.282824
508.978550	2640.427835
509.343503	2637.839203
509.708398	2638.668472
510.073236	2638.391209
510.438016	2639.575880
510.802738	2637.758544
511.167403	2640.173257
511.532010	2638.789460
511.896561	2641.884729
512.261053	2642.993782
512.625488	2640.417753
512.989866	2642.361118
513.354186	2640.357259
513.718449	2639.757362
514.082655	2645.189205
514.446803	2640.896662
514.810894	2646.220121
515.174927	2644.765748
515.538904	2643.558392
515.902822	2647.077117
516.266684	2643.591159
516.630488	2642.852630
516.994235	2641.874646
517.357925	2644.727939
517.721558	2647.208187
518.085133	2643.954122
518.448651	2646.457055
518.812112	2645.786582
519.175516	2645.106026
519.538863	2643.460089
519.902152	2645.267343
520.265385	2648.609628
520.628560	2648.203815
520.991678	2647.006541
521.354739	2648.944865
521.717743	2648.531490
522.080690	2649.196922
522.443580	2647.795482
522.806413	2650.527787
523.169189	2650.235400
523.531908	2652.040133
523.894569	2648.390338
524.257174	2648.395379
524.619722	2648.481078
524.982213	2649.816984
525.344647	2646.215080
525.707025	2648.304638
526.069345	2649.486789
526.431608	2650.245482
526.793815	2648.561737
527.155964	2648.024854
527.518057	2646.935965
527.880093	2645.466468
528.242072	2650.028713
528.603995	2645.526962
528.965860	2644.070069
529.327669	2645.342960
529.689421	2644.856489
530.051117	2644.813639
530.412755	2642.940850
530.774337	2642.426653
531.135862	2639.885911
531.497331	2643.056797
531.858743	2641.534368
532.220098	2645.905049
532.581396	2639.119656
532.942638	2639.407002
533.303824	2639.631333
533.664953	2638.413894
534.026025	2636.329377
534.387040	2634.408697
534.747999	2635.076650
535.108902	2636.654532
535.469748	2634.121352
535.830537	2632.379633
536.191270	2632.225878
536.551947	2630.693367
536.912567	2627.414097
537.273131	2632.452730
537.633638	2626.552059
537.994089	2630.617750
538.354483	2627.023407
538.714821	2630.857205
539.075103	2630.683285
539.435328	2627.978706
539.795497	2628.261010
540.155609	2629.294447
540.515665	2629.964920
540.875665	2626.647841
541.235609	2623.484517
541.595496	2625.316977
541.955328	2628.132461
542.315102	2624.651544
542.674821	2623.996194
543.034483	2623.590381
543.394090	2625.962244
543.753640	2625.377470
544.113134	2627.719086
544.472571	2625.201030
544.831953	2626.083232
545.191278	2626.274796
545.550548	2622.229270
545.909761	2624.669188
546.268918	2624.681791
546.628019	2626.647841
546.987064	2623.663478
547.346053	2620.792541
547.704986	2623.058540
548.063863	2621.528549
548.422684	2620.643827
548.781449	2620.200205
549.140158	2622.173817
549.498811	2620.492592
549.857408	2617.944289
550.215949	2623.686163
550.574434	2619.998559
550.932864	2622.181379
551.291237	2623.204733
551.649555	2623.184568
552.007817	2622.408231
552.366022	2621.445370
552.724173	2620.719444
553.082267	2620.343878
553.440305	2625.531226
553.798288	2622.894702
554.156215	2621.788169
554.514086	2619.582664
554.871902	2616.487396
555.229661	2619.839763
555.587365	2616.278188
555.945014	2622.869496
556.302606	2619.819598
556.660143	2619.751543
557.017625	2621.314300
557.375050	2622.120885
557.732421	2621.503344
558.089735	2624.848149
558.446994	2622.438478
558.804197	2622.204064
559.161345	2622.819085
559.518437	2621.354630
559.875474	2621.899074
560.232455	2622.675412
560.589381	2624.177676
560.946251	2623.494599
561.303065	2622.516616
561.659825	2621.825977
562.016528	2623.827316
562.373177	2620.099382
562.729770	2620.734568
563.086307	2621.876389
563.442789	2623.892851
563.799216	2623.668519
564.155587	2621.198354
564.511904	2622.645165
564.868164	2621.417644
565.224370	2621.387397
565.580520	2620.132150
565.936615	2620.013683
566.292654	2622.453601
566.648638	2625.160701
567.004567	2620.863117
567.360441	2622.660288
567.716260	2622.980402
568.072023	2626.554580
568.427732	2621.692387
568.783385	2620.777418
569.138982	2625.556431
569.494525	2621.543673
569.850013	2621.011831
570.205445	2623.439147
570.560823	2620.858076
570.916145	2620.301028
571.271412	2620.258179
571.626625	2620.391769
571.981782	2620.873199
572.336884	2617.833384
572.691931	2617.445215
573.046923	2619.572582
573.401860	2613.598814
573.756743	2619.769187
574.111570	2618.639968
574.466342	2621.331944
574.821059	2620.711882
575.175722	2618.229114
575.530330	2617.556120
575.884882	2616.661315
576.239380	2616.631068
576.593823	2618.627365
576.948211	2614.599483
577.302544	2615.695934
577.656823	2615.317848
578.011047	2615.259875
578.365216	2614.433125
578.719330	2615.048146
579.073389	2614.080245
579.427394	2615.907663
579.781344	2612.404061
580.135239	2611.242075
580.489080	2613.432456
580.842866	2612.577981
581.196597	2613.379524
581.550273	2614.196191
581.903895	2611.479009
582.257463	2614.241562
582.610975	2609.805346
582.964434	2609.676797
583.317837	2610.138062
583.671186	2611.189143
584.024481	2611.857096
584.377721	2610.075048
584.730906	2612.043618
585.084037	2613.986983
585.437113	2607.388113
585.790135	2610.440532
586.143103	2607.766199
586.496016	2607.393154
586.848874	2607.708226
587.201679	2610.589246
587.554428	2606.405088
587.907124	2607.214193
588.259765	2609.896087
588.612352	2605.946343
588.964884	2603.675303
589.317362	2605.018771
589.669786	2605.606065
590.022155	2603.952567
590.374470	2604.839810
590.726731	2605.144799
591.078937	2600.312853
591.431090	2605.452310
591.783188	2601.832761
592.135232	2602.634305
592.487222	2603.713112
592.839157	2603.002309
593.191038	2604.416353
593.542866	2601.699171
593.894639	2599.158429
594.246358	2599.521392
594.598022	2601.502566
594.949633	2596.809252
595.301190	2598.145157
595.652692	2598.740013
596.004141	2601.379057
596.355535	2595.216247
596.706876	2597.681371
597.058162	2595.647266
597.409395	2597.250352
597.760573	2600.418718
598.111698	2596.468974
598.462768	2595.934611
598.813785	2595.085177
599.164748	2591.740371
599.515657	2593.678695
599.866511	2596.307657
600.217312	2596.037955
600.568060	2591.400093
600.918753	2598.424941
601.269392	2594.709611
601.619978	2594.190372
601.970510	2594.812955
602.320988	2593.421596
602.671412	2596.330342
603.021783	2595.639704
603.372100	2593.784559
603.722363	2593.529981
604.072572	2592.005032
604.422728	2593.008222
604.772830	2593.325814
605.122878	2592.698191
605.472872	2591.823550
605.822813	2591.707604
606.172701	2590.996801
606.522534	2593.184662
606.872314	2593.260279
607.222041	2591.493355
607.571714	2590.379260
607.921333	2585.358271
608.270899	2589.418920
608.620411	2587.387335
608.969870	2592.627614
609.319276	2591.846236
609.668627	2590.792634
610.017926	2592.360433
610.367171	2589.875144
610.716362	2593.789600
611.065500	2592.650300
611.414585	2592.325145
611.763616	2592.211719
612.112594	2595.180959
612.461518	2595.087698
612.810389	2597.522575
613.159207	2599.183635
613.507971	2591.944538
613.856682	2596.610126
614.205340	2593.477049
614.553945	2594.938983
614.902496	2595.974941
615.250994	2594.250866
615.599439	2594.099631
615.947830	2595.793459
616.296169	2594.296236
616.644454	2597.056268
616.992686	2595.440578
617.340864	2597.331011
617.688990	2596.037955
618.037063	2596.012749
618.385082	2594.407142
618.733048	2597.895620
619.080961	2596.930239
619.428821	2595.019642
619.776628	2596.950404
620.124382	2598.845878
620.472083	2596.534509
620.819731	2596.239601
621.167326	2594.129878
621.514868	2594.192893
621.862357	2595.291864
622.209793	2592.781370
622.557176	2589.807089
622.904506	2588.393045
623.251783	2587.747777
623.599007	2587.760380
623.946179	2587.437747
624.293297	2589.643251
624.640363	2584.967581
624.987376	2586.590833
625.334336	2581.015317
625.681243	2582.142014
626.028097	2578.156982
626.374899	2585.343147
626.721647	2585.723754
627.068343	2581.486664
627.414987	2580.387693
627.761577	2578.706468
628.108115	2581.678228
628.454600	2580.097827
628.801032	2580.196129
629.147412	2581.310224
629.493739	2579.215625
629.840014	2577.035326
630.186236	2578.605645
630.532405	2577.756211
630.878521	2577.978021
631.224585	2576.039698
631.570597	2577.942733
631.916556	2579.205542
632.262462	2578.182188
632.608316	2577.320151
632.954117	2575.709502
633.299866	2576.969791
633.645562	2578.126735
633.991206	2572.493246
634.336797	2572.074830
634.682336	2571.298493
635.027823	2572.667166
635.373257	2572.299162
635.718639	2569.899572
636.063968	2570.023081
636.409245	2568.772874
636.754470	2569.723132
637.099642	2566.456464
637.444762	2565.191135
637.789829	2566.010322
638.134845	2565.143244
638.479808	2565.488563
638.824719	2566.552246
639.169577	2563.366237
639.514383	2561.211144
639.859137	2564.394632
640.203839	2563.177194
640.548489	2564.124931
640.893086	2562.078222
641.237632	2559.958417
641.582125	2561.092677
641.926566	2561.133006
642.270955	2557.687377
642.615292	2556.336348
642.959576	2557.752912
643.303809	2558.206616
643.647990	2560.389436
643.992118	2558.372974
644.336195	2560.744837
