Dividing Wavelength (nm)	Counts (n)	Blue Motor Position (mm): 0.000000	Red Motor Position (mm): 22.500000	
326.493990	2051.512681
326.888308	2051.512681
327.282561	2051.512681
327.676750	2025.976716
328.070874	2027.035359
328.464933	2034.062727
328.858929	2041.566485
329.252859	2049.055119
329.646726	2065.721173
330.040528	2082.072156
330.434265	2099.779209
330.827938	2118.756632
331.221547	2138.399488
331.615091	2159.804228
332.008571	2181.203926
332.401986	2200.453572
332.795338	2219.705738
333.188625	2240.898749
333.581847	2256.854001
333.975006	2276.315375
334.368100	2294.932356
334.761129	2309.768472
335.154095	2325.363282
335.546996	2342.067145
335.939833	2359.711183
336.332606	2373.125694
336.725315	2384.286808
337.117960	2394.737120
337.510540	2403.917061
337.903056	2413.865778
338.295508	2420.726789
338.687896	2426.302305
339.080220	2432.240784
339.472480	2438.111208
339.864676	2440.152875
340.256807	2444.082455
340.648875	2445.763679
341.040879	2446.383741
341.432818	2446.938268
341.824694	2451.954216
342.216506	2449.315172
342.608253	2449.957919
342.999937	2448.914401
343.391557	2447.886005
343.783113	2446.247630
344.174605	2445.257043
344.566033	2444.803340
344.957397	2441.176229
345.348697	2440.951898
345.739934	2441.007351
346.131106	2438.078440
346.522215	2435.938471
346.913260	2433.498552
347.304241	2429.909251
347.695159	2430.118458
348.086012	2427.882707
348.476802	2429.884045
348.867528	2423.479259
349.258191	2421.377098
349.648789	2421.936666
350.039324	2420.694021
350.429796	2425.188210
350.820203	2419.055646
351.210548	2421.452715
351.600828	2421.588826
351.991045	2417.568506
352.381198	2417.949113
352.771288	2420.230235
353.161314	2417.865934
353.551276	2420.550348
353.941175	2419.975657
354.331010	2418.085224
354.720782	2420.779721
355.110490	2418.294432
355.500135	2420.285688
355.889717	2417.039185
356.279235	2421.147725
356.668689	2421.825760
357.058080	2420.076480
357.447408	2419.844587
357.836672	2420.351223
358.225873	2421.389701
358.615010	2422.796182
359.004084	2426.599733
359.393095	2421.994639
359.782043	2424.434557
360.170927	2425.581420
360.559748	2426.322470
360.948505	2423.358271
361.337199	2428.296081
361.725830	2426.534198
362.114398	2430.728438
362.502903	2428.301122
362.891344	2429.949580
363.279722	2429.379929
363.668037	2433.296906
364.056289	2430.030238
364.444478	2430.627615
364.832603	2430.173911
365.220665	2433.286824
365.608665	2432.823037
365.996601	2432.560897
366.384474	2432.036618
366.772284	2431.053592
367.160031	2435.227668
367.547715	2433.599375
367.935336	2435.880497
368.322893	2432.709612
368.710388	2432.654159
369.097820	2435.368820
369.485189	2433.916968
369.872495	2437.128183
370.259738	2436.399736
370.646918	2438.698502
371.034035	2440.241095
371.421090	2441.695468
371.808081	2441.120777
372.195010	2442.388627
372.581875	2447.207970
372.968678	2444.226127
373.355418	2444.321909
373.742096	2448.473300
374.128710	2451.505554
374.515262	2454.394135
374.901751	2456.599640
375.288177	2459.820937
375.674540	2463.485856
376.060841	2464.050465
376.447079	2470.324181
376.833254	2476.565129
377.219367	2479.166365
377.605417	2484.318424
377.991404	2490.952583
378.377329	2501.034890
378.763191	2503.041269
379.148991	2512.871519
379.534727	2520.216481
379.920402	2533.262987
380.306013	2540.799512
380.691563	2553.440205
381.077049	2564.256001
381.462474	2572.783112
381.847835	2588.408169
382.233134	2603.902155
382.618371	2612.668722
383.003545	2632.359468
383.388657	2644.604431
383.773706	2664.615291
384.158693	2675.660459
384.543618	2697.118131
384.928480	2711.321582
385.313280	2732.887638
385.698017	2750.274577
386.082692	2775.205604
386.467305	2789.789662
386.851856	2811.723722
387.236344	2841.920234
387.620770	2857.925897
388.005133	2877.223434
388.389435	2912.244330
388.773674	2925.684046
389.157851	2957.728141
389.541965	2982.013899
389.926018	2995.778770
390.310008	3031.349151
390.693936	3055.647513
391.077802	3084.934096
391.461606	3115.541462
391.845348	3130.294398
392.229027	3163.124913
392.612645	3203.827189
392.996200	3231.571179
393.379694	3270.468722
393.763125	3311.291986
394.146494	3339.444310
394.529801	3376.819424
394.913047	3418.983635
395.296230	3424.382711
395.679351	3447.791309
396.062410	3496.292250
396.445408	3481.884632
396.828343	3523.106147
397.211217	3555.278791
397.594028	3525.281405
397.976778	3576.502049
398.359466	3610.134107
398.742092	3617.537041
399.124656	3632.451295
399.507158	3696.216850
399.889598	3698.074515
400.271977	3762.629011
400.654294	3753.368411
401.036549	3813.244716
401.418742	3811.011485
401.800874	3878.540261
402.182944	3910.082761
402.564952	3993.281964
402.946898	3989.183506
403.328783	3983.623113
403.710606	4037.076988
404.092367	4102.836319
404.474067	4167.998274
404.855705	4151.412878
405.237282	4122.781644
405.618797	4221.205132
406.000250	4297.550886
406.381642	4385.461048
406.762972	4379.091550
407.144240	4350.009133
407.525447	4414.611520
407.906593	4433.084828
408.287677	4519.318806
408.668700	4542.145150
409.049661	4578.910285
409.430560	4621.608858
409.811399	4596.879478
410.192176	4647.409484
410.572891	4730.943924
410.953545	4840.765460
411.334138	4737.525150
411.714669	4846.328373
412.095139	4761.321917
412.475547	4873.701839
412.855894	4877.265935
413.236180	4979.916430
413.616405	4903.089245
413.996568	5007.985574
414.376670	5011.118652
414.756711	5004.550028
415.136691	5074.170883
415.516609	5160.472917
415.896466	5194.069686
416.276262	5272.031131
416.655997	5391.390530
417.035670	5479.101566
417.415283	5624.218741
417.794834	5695.914031
418.174324	5656.283000
418.553753	5657.303834
418.933121	5822.101674
419.312428	5837.141956
419.691674	5758.242857
420.070859	5987.748948
420.449983	5862.115832
420.829045	6061.075051
421.208047	5983.526982
421.586988	6141.582278
421.965867	6215.175563
422.344686	6299.408202
422.723444	6467.495395
423.102141	6079.054326
423.480777	6480.589792
423.859352	6282.477487
424.237866	6654.381050
424.616319	6648.293857
424.994712	6809.381407
425.373044	6722.171967
425.751314	7039.747015
426.129524	6757.286124
426.507673	7020.890579
426.885762	7056.455919
427.263789	7098.385716
427.641756	7186.953748
428.019662	7259.175839
428.397508	7300.004144
428.775292	7267.191273
429.153016	7433.060358
429.530679	7362.708536
429.908282	7405.465082
430.285824	7344.827563
430.663305	7615.875282
431.040726	7491.247877
431.418086	7489.612022
431.795385	7611.146680
432.172624	7789.724514
432.549802	7658.767940
432.926920	7786.445243
433.303977	7711.899181
433.680974	7736.318530
434.057910	7921.439781
434.434786	7961.378323
434.811601	7897.370792
435.188355	8210.887712
435.565050	8079.134635
435.941683	8073.808656
436.318257	8370.205817
436.694770	8304.093605
437.071222	8500.315478
437.447614	8268.707226
437.823946	8212.757980
438.200218	8323.570103
438.576429	8183.529370
438.952580	8310.442938
439.328670	8292.130947
439.704700	8325.800814
440.080670	8205.869243
440.456580	8414.588136
440.832429	8363.072585
441.208218	8087.429854
441.583947	8160.463570
441.959616	8226.026297
442.335224	8215.555820
442.710773	8247.995645
443.086261	8369.643729
443.461689	8077.027433
443.837057	8185.775204
444.212365	8320.573137
444.587612	8261.803366
444.962800	8120.640976
445.337927	8185.629010
445.712995	7756.888958
446.088002	8257.515864
446.462949	8252.058815
446.837837	8175.307248
447.212664	8130.889641
447.587431	8705.540851
447.962139	9420.273122
448.336786	10060.595443
448.711374	9836.402728
449.085901	8856.326803
449.460369	8710.813897
449.834776	8460.533212
450.209124	9027.942804
450.583412	8819.488572
450.957640	8957.502761
451.331808	8592.082122
451.705917	8107.856609
452.079965	7936.079292
452.453954	7981.003535
452.827883	7851.871858
453.201752	7747.953513
453.575562	7655.095459
453.949311	7778.049201
454.323001	7720.917805
454.696632	7566.088847
455.070202	7810.988101
455.443713	7737.684683
455.817164	7733.130000
456.190556	7795.421017
456.563888	7610.128367
456.937160	7640.035012
457.310373	7259.924450
457.683526	7160.321332
458.056619	7053.902575
458.429653	6969.823690
458.802628	6929.784326
459.175542	6835.272774
459.548398	6953.502955
459.921194	7073.250523
460.293930	7066.150058
460.666607	7291.474512
461.039224	7481.102555
461.411782	7486.068091
461.784280	7227.575366
462.156719	7062.071765
462.529099	6893.949284
462.901419	6532.740528
463.273680	6271.452483
463.645882	6201.612338
464.018024	6038.130239
464.390106	6018.895717
464.762130	6200.518408
465.134094	6504.747001
465.505999	6973.755790
465.877845	7422.035355
466.249631	7579.881444
466.621358	7286.148532
466.993026	6909.531490
467.364634	6568.144552
467.736184	6231.060238
468.107674	5956.319874
468.479105	5788.819976
468.850477	5604.056646
469.221790	5393.895984
469.593043	5158.748842
469.964238	4985.093695
470.335373	4878.591758
470.706449	4873.671592
471.077467	4884.663828
471.448425	5114.608499
471.819324	5261.588380
472.190164	5149.359693
472.560945	4829.279191
472.931667	4536.977968
473.302330	4400.309766
473.672934	4251.240327
474.043479	4205.733831
474.413965	4104.489817
474.784393	4008.097915
475.154761	3993.017303
475.525070	3932.389866
475.895321	3853.049667
476.265513	3822.591015
476.635645	3800.039413
477.005719	3739.613623
477.375734	3699.952345
477.745691	3676.339580
478.115588	3657.130263
478.485427	3663.857683
478.855207	3703.745813
479.224928	3745.778954
479.594591	3753.386055
479.964194	3672.041997
480.333739	3627.649596
480.703226	3578.326947
481.072653	3546.557595
481.442022	3516.860158
481.811333	3484.415292
482.180584	3418.008172
482.549777	3370.384392
482.918912	3321.749860
483.287988	3284.276443
483.657005	3239.430338
484.025964	3193.129861
484.394864	3167.528361
484.763706	3136.283289
485.132489	3095.374326
485.501213	3068.401632
485.869879	3046.812891
486.238487	3021.465969
486.607036	3003.267404
486.975527	2980.690596
487.343959	2963.976651
487.712333	2952.258489
488.080648	2936.426745
488.448905	2925.351330
488.817104	2905.796694
489.185244	2901.899882
489.553326	2898.860067
489.921350	2913.202149
490.289315	2929.212854
490.657222	2929.086825
491.025070	2922.722368
491.392861	2908.448341
491.760593	2891.046278
492.128267	2866.485777
492.495883	2846.457272
492.863440	2825.808706
493.230939	2808.242806
493.598380	2795.670168
493.965763	2787.899229
494.333088	2774.131838
494.700354	2763.966351
495.067563	2760.225815
495.434713	2751.401275
495.801805	2752.432191
496.168839	2743.383320
496.535815	2734.543657
496.902733	2730.795559
497.269593	2727.188613
497.636395	2721.517315
498.003139	2718.275853
498.369825	2714.953733
498.736453	2713.769062
499.103023	2707.853268
499.469535	2707.497867
499.835989	2703.596013
500.202385	2696.878676
500.568723	2692.182841
500.935003	2695.036134
501.301226	2684.795030
501.667390	2694.998326
502.033497	2692.555887
502.399546	2689.689991
502.765537	2686.698066
503.131470	2684.648837
503.497345	2685.427695
503.863163	2674.826148
504.228923	2678.178516
504.594625	2677.876047
504.960269	2671.796415
505.325856	2672.061076
505.691385	2670.904131
506.056856	2666.767864
506.422270	2672.229954
506.787625	2668.882628
507.152924	2668.890190
507.518164	2670.077382
507.883347	2665.247956
508.248472	2664.350631
508.613540	2664.824499
508.978550	2664.915240
509.343503	2666.639315
509.708398	2665.744510
510.073236	2665.736948
510.438016	2666.619150
510.802738	2662.124961
511.167403	2663.118069
511.532010	2664.106135
511.896561	2665.379026
512.261053	2666.767864
512.625488	2666.775426
512.989866	2665.933553
513.354186	2664.459016
513.718449	2659.107831
514.082655	2664.459016
514.446803	2662.649241
514.810894	2667.027483
515.174927	2662.757626
515.538904	2662.389622
515.902822	2663.322235
516.266684	2660.279899
516.630488	2662.243428
516.994235	2659.027172
517.357925	2662.278717
517.721558	2665.477329
518.085133	2663.634787
518.448651	2664.038079
518.812112	2655.069867
519.175516	2663.324756
519.538863	2658.545742
519.902152	2661.630928
520.265385	2664.315343
520.628560	2666.440189
520.991678	2663.866680
521.354739	2664.385919
521.717743	2664.002791
522.080690	2661.938439
522.443580	2664.537153
522.806413	2666.684685
523.169189	2663.435661
523.531908	2665.638646
523.894569	2660.922646
524.257174	2663.657472
524.619722	2667.929850
524.982213	2663.176042
525.344647	2661.963644
525.707025	2663.657472
526.069345	2664.133861
526.431608	2665.726866
526.793815	2664.000271
527.155964	2661.338541
527.518057	2659.432985
527.880093	2659.407779
528.242072	2664.151505
528.603995	2661.885507
528.965860	2658.943993
529.327669	2659.813592
529.689421	2658.011380
530.051117	2660.148829
530.412755	2657.524908
530.774337	2660.685712
531.135862	2657.857625
531.497331	2657.809734
531.858743	2655.604229
532.220098	2656.960299
532.581396	2654.946358
532.942638	2655.619352
533.303824	2651.435195
533.664953	2655.253869
534.026025	2648.153403
534.387040	2649.869916
534.747999	2650.028713
535.108902	2651.276398
535.469748	2650.343785
535.830537	2648.077786
536.191270	2648.249185
536.551947	2645.358084
536.912567	2643.908752
537.273131	2643.291211
537.633638	2640.140489
537.994089	2646.681387
538.354483	2639.275932
538.714821	2643.674338
539.075103	2645.927734
539.435328	2643.981849
539.795497	2640.309368
540.155609	2641.126035
540.515665	2642.623258
540.875665	2636.901548
541.235609	2639.159985
541.595496	2639.906076
541.955328	2642.033443
542.315102	2640.664769
542.674821	2637.564460
543.034483	2636.757875
543.394090	2636.649490
543.753640	2636.447844
544.113134	2639.974131
544.472571	2637.960190
544.831953	2638.156795
545.191278	2636.601599
545.550548	2633.735703
545.909761	2637.728297
546.268918	2637.549336
546.628019	2637.819038
546.987064	2634.625467
547.346053	2631.257976
547.704986	2635.074130
548.063863	2634.559932
548.422684	2632.316619
548.781449	2633.458440
549.140158	2631.573048
549.498811	2633.866773
549.857408	2630.862246
550.215949	2631.867956
550.574434	2631.978861
550.932864	2633.647483
551.291237	2635.522792
551.649555	2634.176804
552.007817	2630.126237
552.366022	2631.320991
552.724173	2630.211937
553.082267	2632.419962
553.440305	2633.292082
553.798288	2634.562453
554.156215	2633.100518
554.514086	2630.161525
554.871902	2627.577934
555.229661	2631.809983
555.587365	2627.048613
555.945014	2629.758233
556.302606	2630.519447
556.660143	2630.834519
557.017625	2631.701598
557.375050	2629.453243
557.732421	2633.987761
558.089735	2633.455919
558.446994	2633.586989
558.804197	2633.803759
559.161345	2632.772843
559.518437	2631.673872
559.875474	2629.060033
560.232455	2633.183697
560.589381	2630.159005
560.946251	2629.349900
561.303065	2634.365848
561.659825	2630.015332
562.016528	2633.276958
562.373177	2633.458440
562.729770	2634.121352
563.086307	2632.455250
563.442789	2634.519603
563.799216	2633.743265
564.155587	2632.162863
564.511904	2631.356279
564.868164	2633.158491
565.224370	2634.731331
565.580520	2632.104890
565.936615	2635.777371
566.292654	2634.501959
566.648638	2632.699746
567.004567	2632.361989
567.360441	2632.634211
567.716260	2634.023049
568.072023	2632.956845
568.427732	2632.740076
568.783385	2633.138327
569.138982	2632.120014
569.494525	2635.633698
569.850013	2633.917185
570.205445	2628.810496
570.560823	2630.380816
570.916145	2631.441978
571.271412	2630.466515
571.626625	2630.353089
571.981782	2629.591875
572.336884	2628.893675
572.691931	2626.748664
573.046923	2626.922584
573.401860	2626.499127
573.756743	2631.096659
574.111570	2629.720424
574.466342	2628.271093
574.821059	2627.658592
575.175722	2627.255300
575.530330	2628.243366
575.884882	2625.851339
576.239380	2627.076339
576.593823	2629.382667
576.948211	2625.201030
577.302544	2626.965434
577.656823	2624.649024
578.011047	2626.952831
578.365216	2626.995681
578.719330	2623.839918
579.073389	2623.575258
579.427394	2625.087604
579.781344	2624.056688
580.135239	2623.683643
580.489080	2620.643827
580.842866	2622.617439
581.196597	2624.575927
581.550273	2621.105092
581.903895	2623.713890
582.257463	2624.139867
582.610975	2622.831688
582.964434	2622.398148
583.317837	2617.873713
583.671186	2623.736575
584.024481	2622.602315
584.377721	2620.356481
584.730906	2619.958230
585.084037	2618.219032
585.437113	2620.169958
585.790135	2621.180710
586.143103	2617.619135
586.496016	2619.260030
586.848874	2620.941255
587.201679	2621.589043
587.554428	2617.719958
587.907124	2618.781121
588.259765	2618.055194
588.612352	2617.127622
588.964884	2616.021089
589.317362	2615.927827
589.669786	2616.673918
590.022155	2615.121243
590.374470	2612.575460
590.726731	2614.735595
591.078937	2607.975407
591.431090	2616.326079
591.783188	2614.173506
592.135232	2610.775768
592.487222	2613.397168
592.839157	2615.302724
593.191038	2611.579832
593.542866	2611.421036
593.894639	2611.085799
594.246358	2611.738629
594.598022	2612.918259
594.949633	2610.634616
595.301190	2610.629575
595.652692	2611.274842
596.004141	2610.929523
596.355535	2607.584718
596.706876	2607.408277
597.058162	2603.675303
597.409395	2605.611106
597.760573	2608.461879
598.111698	2606.306785
598.462768	2607.413319
598.813785	2608.124121
599.164748	2606.432814
599.515657	2605.830396
599.866511	2602.513317
600.217312	2605.711929
600.568060	2605.081785
600.918753	2607.947681
601.269392	2605.782505
601.619978	2607.383072
601.970510	2603.582042
602.320988	2603.503904
602.671412	2606.546240
603.021783	2604.108842
603.372100	2601.920982
603.722363	2604.207145
604.072572	2602.883842
604.422728	2605.243102
604.772830	2602.883842
605.122878	2600.340580
605.472872	2602.490632
605.822813	2603.211517
606.172701	2604.252515
606.522534	2604.784357
606.872314	2603.705550
607.222041	2602.349480
607.571714	2602.193204
607.921333	2599.551639
608.270899	2602.301589
608.620411	2600.191866
608.969870	2601.437031
609.319276	2600.617843
609.668627	2600.680858
610.017926	2602.021805
610.367171	2601.825200
610.716362	2604.832248
611.065500	2605.535489
611.414585	2603.161105
611.763616	2604.018102
612.112594	2599.914602
612.461518	2603.834099
612.810389	2605.038935
613.159207	2603.352669
613.507971	2604.053390
613.856682	2606.115222
614.205340	2604.043307
614.553945	2605.409460
614.902496	2604.756631
615.250994	2607.239399
615.599439	2605.953905
615.947830	2607.433483
616.296169	2606.316868
616.644454	2604.144130
616.992686	2604.244953
617.340864	2606.644543
617.688990	2602.662031
618.037063	2608.260232
618.385082	2608.194697
618.733048	2609.709564
619.080961	2606.367279
619.428821	2607.443566
619.776628	2607.471292
620.124382	2605.664038
620.472083	2609.707044
620.819731	2607.743514
621.167326	2606.435335
621.514868	2606.954574
621.862357	2604.441558
622.209793	2603.090529
622.557176	2603.309819
622.904506	2604.829727
623.251783	2599.944849
623.599007	2600.973245
623.946179	2596.602564
624.293297	2598.503079
624.640363	2592.163828
624.987376	2593.497213
625.334336	2590.225505
625.681243	2593.650969
626.028097	2590.848087
626.374899	2593.643407
626.721647	2595.128027
627.068343	2594.248345
627.414987	2593.083839
627.761577	2593.051071
628.108115	2592.458736
628.454600	2589.655854
628.801032	2588.975298
629.147412	2588.572006
629.493739	2589.660895
629.840014	2587.369691
630.186236	2588.919846
630.532405	2586.863055
630.878521	2587.835998
631.224585	2586.860534
631.570597	2588.098138
631.916556	2587.397417
632.262462	2586.774835
632.608316	2586.575709
632.954117	2586.701738
633.299866	2585.738878
633.645562	2583.946747
633.991206	2584.554207
634.336797	2580.294432
634.682336	2580.216294
635.027823	2578.524987
635.373257	2579.437435
635.718639	2579.936510
636.063968	2581.741243
636.409245	2577.015161
636.754470	2577.506673
637.099642	2575.046590
637.444762	2575.628844
637.789829	2574.199677
638.134845	2574.265212
638.479808	2573.456106
638.824719	2573.970304
639.169577	2572.016857
639.514383	2569.254305
639.859137	2570.010478
640.203839	2572.576425
640.548489	2569.798749
640.893086	2570.350756
641.237632	2569.413101
641.582125	2571.311095
641.926566	2568.609037
642.270955	2565.670044
642.615292	2565.165929
642.959576	2567.555436
643.303809	2564.669375
643.647990	2570.771692
643.992118	2566.947977
644.336195	2569.052658
