Dividing Wavelength (nm)	Counts (n)	Blue Motor Position (mm): 0.000000	Red Motor Position (mm): 43.000000	
326.493990	2053.128371
326.888308	2053.128371
327.282561	2053.128371
327.676750	2028.918230
328.070874	2029.903775
328.464933	2035.204548
328.858929	2042.902390
329.252859	2053.549307
329.646726	2064.884342
330.040528	2083.471076
330.434265	2099.968252
330.827938	2123.182765
331.221547	2141.164561
331.615091	2162.405463
332.008571	2183.341375
332.401986	2204.229396
332.795338	2222.962323
333.188625	2243.739439
333.581847	2261.169228
333.975006	2279.347629
334.368100	2296.991668
334.761129	2314.020685
335.154095	2327.820844
335.546996	2363.575228
335.939833	2433.110383
336.332606	2444.841148
336.725315	2459.115175
337.117960	2467.294447
337.510540	2478.921869
337.903056	2485.543424
338.295508	2493.972234
338.687896	2502.234685
339.080220	2503.865498
339.472480	2510.844976
339.864676	2513.632734
340.256807	2515.497961
340.648875	2518.628517
341.040879	2516.997704
341.432818	2521.819567
341.824694	2523.757891
342.216506	2523.097500
342.608253	2522.669002
342.999937	2520.644979
343.391557	2524.004908
343.783113	2519.404855
344.174605	2517.123733
344.566033	2517.726151
344.957397	2517.814371
345.348697	2513.408402
345.739934	2512.006962
346.131106	2509.554440
346.522215	2508.611744
346.913260	2506.733915
347.304241	2504.558657
347.695159	2502.733759
348.086012	2505.216527
348.476802	2501.244098
348.867528	2497.269148
349.258191	2495.013232
349.648789	2495.570279
350.039324	2491.272696
350.429796	2493.211019
350.820203	2495.114055
351.210548	2495.852584
351.600828	2493.831081
351.991045	2493.677326
352.381198	2494.904847
352.771288	2493.205978
353.161314	2494.541884
353.551276	2491.865031
353.941175	2492.033910
354.331010	2494.420896
354.720782	2497.420383
355.110490	2495.066164
355.500135	2494.791421
355.889717	2493.813437
356.279235	2491.867552
356.668689	2495.981133
357.058080	2494.360403
357.447408	2495.058602
357.836672	2494.771257
358.225873	2497.107831
358.615010	2497.087667
359.004084	2494.667913
359.393095	2499.255363
359.782043	2499.855260
360.170927	2500.719818
360.559748	2500.583707
360.948505	2500.039262
361.337199	2504.505725
361.725830	2501.246619
362.114398	2503.195025
362.502903	2503.646208
362.891344	2502.983296
363.279722	2503.411794
363.668037	2504.084788
364.056289	2503.152175
364.444478	2506.655777
364.832603	2505.385406
365.220665	2506.723832
365.608665	2507.895901
365.996601	2507.782475
366.384474	2508.831035
366.772284	2509.108298
367.160031	2508.853720
367.547715	2512.574091
367.935336	2506.083606
368.322893	2506.285252
368.710388	2507.875736
369.097820	2511.006292
369.485189	2508.410098
369.872495	2512.243896
370.259738	2514.479648
370.646918	2511.220542
371.034035	2513.446211
371.421090	2515.825636
371.808081	2517.088445
372.195010	2517.451408
372.581875	2517.070801
372.968678	2521.133971
373.355418	2523.566327
373.742096	2522.570699
374.128710	2528.637728
374.515262	2530.913809
374.901751	2532.514375
375.288177	2535.234078
375.674540	2539.786240
376.060841	2544.903011
376.447079	2548.908208
376.833254	2551.360729
377.219367	2556.233004
377.605417	2565.097873
377.991404	2571.021229
378.377329	2577.272260
378.763191	2583.530852
379.148991	2592.672985
379.534727	2602.009202
379.920402	2610.218721
380.306013	2618.677777
380.691563	2630.153964
381.077049	2640.672331
381.462474	2647.863537
381.847835	2666.422545
382.233134	2677.014009
382.618371	2688.172603
383.003545	2704.465612
383.388657	2720.194012
383.773706	2737.848133
384.158693	2752.903539
384.543618	2769.108328
384.928480	2785.013169
385.313280	2805.281128
385.698017	2826.138902
386.082692	2845.164216
386.467305	2866.420242
386.851856	2888.992008
387.236344	2917.782038
387.620770	2931.415838
388.005133	2953.123047
388.389435	2987.176041
388.773674	3000.890500
389.157851	3034.809903
389.541965	3065.303843
389.926018	3071.723753
390.310008	3108.730863
390.693936	3134.150881
391.077802	3161.413441
391.461606	3192.343441
391.845348	3209.231306
392.229027	3238.422107
392.612645	3281.395423
392.996200	3310.475319
393.379694	3349.897142
393.763125	3392.681415
394.146494	3420.821136
394.529801	3454.294397
394.913047	3498.762415
395.296230	3501.212416
395.679351	3528.661499
396.062410	3578.906679
396.445408	3558.900860
396.828343	3603.212602
397.211217	3633.353661
397.594028	3605.488683
397.976778	3654.549193
398.359466	3687.483051
398.742092	3700.784135
399.124656	3713.460117
399.507158	3775.730969
399.889598	3780.774644
400.271977	3846.302082
400.654294	3835.098118
401.036549	3893.504926
401.418742	3894.939134
401.800874	3960.204433
402.182944	3988.281139
402.564952	4077.713729
402.946898	4069.426072
403.328783	4065.453643
403.710606	4116.560860
404.092367	4190.943085
404.474067	4250.378289
404.855705	4237.853543
405.237282	4205.317936
405.618797	4306.907268
406.000250	4381.904514
406.381642	4469.923060
406.762972	4467.029438
407.144240	4435.209674
407.525447	4496.920959
407.906593	4513.549205
408.287677	4599.631948
408.668700	4625.795537
409.049661	4666.351619
409.430560	4702.226991
409.811399	4684.618240
410.192176	4738.659410
410.572891	4819.547244
410.953545	4924.372997
411.334138	4825.750383
411.714669	4934.435140
412.095139	4849.534547
412.475547	4955.585301
412.855894	4965.854131
413.236180	5062.107402
413.616405	4991.737936
413.996568	5093.145786
414.376670	5099.248103
414.756711	5095.048822
415.136691	5165.110778
415.516609	5252.564715
415.896466	5283.358603
416.276262	5363.041602
416.655997	5474.814065
417.035670	5575.800979
417.415283	5715.740889
417.794834	5786.178411
418.174324	5748.626856
418.553753	5749.887145
418.933121	5914.092649
419.312428	5929.105205
419.691674	5853.747517
420.070859	6079.424851
420.449983	5959.836079
420.829045	6153.766747
421.208047	6082.361323
421.586988	6241.122381
421.965867	6309.107382
422.344686	6395.578294
422.723444	6565.939047
423.102141	6180.321025
423.480777	6574.907260
423.859352	6386.032869
424.237866	6755.360403
424.616319	6748.275061
424.994712	6911.865545
425.373044	6830.743297
425.751314	7146.097717
426.129524	6866.114553
426.507673	7133.928372
426.885762	7178.020824
427.263789	7217.939200
427.641756	7305.650236
428.019662	7391.876652
428.397508	7430.471726
428.775292	7404.779485
429.153016	7585.005777
429.530679	7511.301587
429.908282	7561.861839
430.285824	7506.567943
430.663305	7794.611912
431.040726	7679.154366
431.418086	7678.176382
431.795385	7812.029099
432.172624	8003.908017
432.549802	7887.490131
432.926920	8025.393415
433.303977	7959.518137
433.680974	8006.796598
434.057910	8211.404430
434.434786	8262.453674
434.811601	8219.460194
435.188355	8560.315291
435.565050	8442.584184
435.941683	8448.399155
436.318257	8794.665930
436.694770	8744.327488
437.071222	8972.064134
437.447614	8747.367304
437.823946	8718.594918
438.200218	8872.415646
438.576429	8746.328826
438.952580	8909.803363
439.328670	8925.589737
439.704700	8996.899378
440.080670	8890.846104
440.456580	9169.427828
440.832429	9145.162233
441.208218	8878.013847
441.583947	8994.499789
441.959616	9113.032439
442.335224	9144.015371
442.710773	9225.288853
443.086261	9413.076875
443.461689	9126.870407
443.837057	9294.622363
444.212365	9516.518832
444.587612	9498.227005
444.962800	9392.758505
445.337927	9527.649699
445.712995	9065.232219
446.088002	9739.320187
446.462949	9798.601636
446.837837	9784.879615
447.212664	9804.068768
447.587431	10642.722683
447.962139	11660.461068
448.336786	12611.794855
448.711374	12389.595917
449.085901	11166.833804
449.460369	11098.823598
449.834776	10860.918945
450.209124	11785.474122
450.583412	11614.455498
450.957640	11933.036257
451.331808	11517.872032
451.705917	10936.768146
452.079965	10819.195835
452.453954	11020.025322
452.827883	10961.011055
453.201752	10937.040368
453.575562	10944.748292
453.949311	11283.463419
454.323001	11356.108967
454.696632	11271.047057
455.070202	11873.427133
455.443713	11919.228537
455.817164	12095.230341
456.190556	12417.723035
456.563888	12286.375771
456.937160	12550.297819
457.310373	12026.874815
457.683526	12036.238758
458.056619	12061.447048
458.429653	12126.707305
458.802628	12266.616969
459.175542	12324.013026
459.548398	12882.550187
459.921194	13453.901961
460.293930	13731.092326
460.666607	14597.228091
461.039224	15413.045580
461.411782	15770.123110
461.784280	15443.209324
462.156719	15391.303083
462.529099	15288.350119
462.901419	14649.577953
463.273680	14248.677673
463.645882	14461.368995
464.018024	14343.973125
464.390106	14711.924424
464.762130	15780.651560
465.134094	17324.376376
465.505999	19639.339757
465.877845	21924.956061
466.249631	23204.446277
466.621358	22745.411411
466.993026	21938.030293
467.364634	21198.311543
467.736184	20382.471369
468.107674	19751.525594
468.479105	19616.639441
468.850477	19334.755762
469.221790	18898.091016
469.593043	18229.729798
469.964238	17832.673397
470.335373	17891.125576
470.706449	18611.844218
471.077467	19472.724581
471.448425	21968.433492
471.819324	23875.136508
472.190164	23798.994921
472.560945	22035.377495
472.931667	20436.149575
473.302330	20088.884651
473.672934	19526.944711
474.043479	19958.931267
474.413965	19738.373224
474.784393	19547.915911
475.154761	20236.287989
475.525070	20356.529591
475.895321	20197.433296
476.265513	20734.154864
476.635645	21333.265752
477.005719	21392.214484
477.375734	21759.507912
477.745691	22399.200088
478.115588	23042.337893
478.485427	24251.035186
478.855207	26077.112508
479.224928	27908.233505
479.594591	29361.189826
479.964194	29011.280817
480.333739	29483.478136
480.703226	29702.334789
481.072653	30127.682144
481.442022	30671.637768
481.811333	31083.013566
482.180584	30646.689098
482.549777	30434.151531
482.918912	30202.011437
483.287988	30134.926283
483.657005	29981.032458
484.025964	29597.259498
484.394864	29794.114036
484.763706	29735.147659
485.132489	29188.742035
485.501213	29262.942778
485.869879	29450.468660
486.238487	29360.005154
486.607036	29643.267589
486.975527	29324.066769
487.343959	29672.733133
487.712333	30042.733661
488.080648	30005.512302
488.448905	30443.160073
488.817104	30317.988223
489.185244	31163.609013
489.553326	32119.772225
489.921350	34038.619381
490.289315	36585.130520
490.657222	37517.010493
491.025070	38110.049311
491.392861	37854.316618
491.760593	37067.649601
492.128267	36049.694446
492.495883	35081.182928
492.863440	34160.701003
493.230939	33165.678057
493.598380	32590.994080
493.965763	32429.021807
494.333088	31923.893151
494.700354	31729.057596
495.067563	31675.833093
495.434713	31544.072455
495.801805	31845.876254
496.168839	31696.343028
496.535815	31528.759951
496.902733	31665.153409
497.269593	31476.210963
497.636395	31646.170944
498.003139	31905.520666
498.369825	31654.693015
498.736453	32080.978025
499.103023	31922.499272
499.469535	32010.595956
499.835989	32136.108084
500.202385	31998.522392
500.568723	32043.771789
500.935003	32350.674715
501.301226	32213.515001
501.667390	32961.634835
502.033497	33173.925385
502.399546	32971.689416
502.765537	32574.902717
503.131470	33058.041861
503.497345	33499.672143
503.863163	32423.446291
504.228923	33198.677450
504.594625	33595.138994
504.960269	33080.301076
505.325856	33742.227261
505.691385	33413.334822
506.056856	33745.161212
506.422270	34246.816514
506.787625	33761.512195
507.152924	34228.144080
507.518164	34397.403341
507.883347	33978.319619
508.248472	34123.038543
508.613540	34827.653219
508.978550	35043.601126
509.343503	34886.329729
509.708398	35242.338534
510.073236	35851.012491
510.438016	35933.374862
510.802738	35613.533815
511.167403	36176.234969
511.532010	36425.313340
511.896561	36952.343289
512.261053	37706.608289
512.625488	37503.389296
512.989866	37410.243896
513.354186	37472.522311
513.718449	37420.011132
514.082655	38324.290788
514.446803	38003.494442
514.810894	38656.560800
515.174927	38638.992378
515.538904	38670.638222
515.902822	39300.696753
516.266684	38986.713527
516.630488	39338.076909
516.994235	39351.685503
517.357925	39920.514180
517.721558	40196.255213
518.085133	40578.631773
518.448651	40751.959246
518.812112	40649.838072
519.175516	40807.452267
519.538863	41260.525969
519.902152	41325.176247
520.265385	41866.545758
520.628560	41892.457289
520.991678	41847.628828
521.354739	42084.031217
521.717743	42436.823766
522.080690	42340.988911
522.443580	43047.211715
522.806413	43053.984505
523.169189	43195.361144
523.531908	43414.726954
523.894569	43252.835339
524.257174	43445.583857
524.619722	43802.797498
524.982213	43957.523112
525.344647	44010.611503
525.707025	44117.095796
526.069345	44562.060802
526.431608	44470.379858
526.793815	44865.356782
527.155964	44402.954425
527.518057	44651.324513
527.880093	44515.203277
528.242072	45158.139436
528.603995	44875.814656
528.965860	44791.350123
529.327669	45013.370100
529.689421	45078.428711
530.051117	45030.799889
530.412755	45311.894628
530.774337	45355.026740
531.135862	45301.449357
531.497331	45465.773328
531.858743	45450.934692
532.220098	45866.983640
532.581396	45584.096771
532.942638	45350.426687
533.303824	45622.301155
533.664953	45671.424679
534.026025	45320.777141
534.387040	45900.643424
534.747999	45961.371684
535.108902	46287.988041
535.469748	45599.855418
535.830537	45893.883237
536.191270	46131.442570
536.551947	45869.960441
536.912567	46145.015877
537.273131	46279.604603
537.633638	45917.647236
537.994089	46092.368587
538.354483	45826.122567
538.714821	46488.159658
539.075103	46779.714790
539.435328	46642.058523
539.795497	46373.906947
540.155609	46511.301074
540.515665	47093.498891
540.875665	46390.872950
541.235609	46645.942732
541.595496	46816.026222
541.955328	47395.514418
542.315102	46817.583938
542.674821	46716.614668
543.034483	46602.553521
543.394090	46629.995042
543.753640	46605.434540
544.113134	47672.424999
544.472571	46763.507481
544.831953	47911.491638
545.191278	47151.633477
545.550548	46858.278652
545.909761	47486.955908
546.268918	47625.428842
546.628019	48025.071354
546.987064	47468.795151
547.346053	46783.359545
547.704986	47696.080613
548.063863	47335.524687
548.422684	47540.581182
548.781449	47112.035214
549.140158	47632.126015
549.498811	47381.384064
549.857408	46772.863862
550.215949	47623.447668
550.574434	47448.615412
550.932864	47421.617512
551.291237	48122.000140
551.649555	47838.440277
552.007817	48031.178712
552.366022	47743.263292
552.724173	47822.064089
553.082267	48188.036735
553.440305	48581.113144
553.798288	47810.020772
554.156215	48211.702431
554.514086	48412.163914
554.871902	47995.401643
555.229661	48167.776337
555.587365	47852.285806
555.945014	47971.945154
556.302606	48004.140483
556.660143	48078.464735
557.017625	48307.945620
557.375050	48008.982512
557.732421	48388.636849
558.089735	48482.286364
558.446994	48333.980659
558.804197	48818.334721
559.161345	48660.581893
559.518437	48014.230353
559.875474	48251.812372
560.232455	48488.696191
560.589381	48503.151700
560.946251	48359.614926
561.303065	49007.400675
561.659825	48685.568372
562.016528	48477.593050
562.373177	48059.850275
562.729770	48689.129947
563.086307	48203.102223
563.442789	48755.920195
563.799216	48593.557232
564.155587	48507.963481
564.511904	48474.850662
564.868164	48523.144916
565.224370	48848.732878
565.580520	48571.068645
565.936615	48748.837374
566.292654	48396.846368
566.648638	48761.956977
567.004567	48700.343994
567.360441	48791.820772
567.716260	48487.292230
568.072023	48878.364781
568.427732	48797.638263
568.783385	48317.717897
569.138982	48751.521788
569.494525	48895.792049
569.850013	48488.907920
570.205445	48620.850039
570.560823	48383.308349
570.916145	48260.704967
571.271412	48495.963014
571.626625	48120.255901
571.981782	48214.046568
572.336884	47809.466245
572.691931	48133.635123
573.046923	47791.426476
573.401860	47624.367679
573.756743	47639.912077
574.111570	47783.849622
574.466342	47688.816310
574.821059	47848.366309
575.175722	47326.085127
575.530330	47422.494673
575.884882	47074.886951
576.239380	46967.795199
576.593823	47057.542861
576.948211	47001.422216
577.302544	46532.080711
577.656823	46525.764145
578.011047	46797.807492
578.365216	46644.127917
578.719330	46337.363623
579.073389	46317.524162
579.427394	46357.613938
579.781344	46264.521470
580.135239	46020.690941
580.489080	46078.097080
580.842866	45584.008551
581.196597	46068.264310
581.550273	46045.417801
581.903895	45969.147663
582.257463	46415.418328
582.610975	45859.822681
582.964434	46172.137285
583.317837	45669.665316
583.671186	45650.934909
584.024481	45913.180773
584.377721	45448.308251
584.730906	45648.605896
585.084037	45811.362069
585.437113	45537.430810
585.790135	45664.331776
586.143103	45202.209202
586.496016	45366.041661
586.848874	45494.323903
587.201679	45500.007804
587.554428	44970.139685
587.907124	45255.017810
588.259765	45028.135640
588.612352	45180.698599
588.964884	44640.082740
589.317362	44930.274241
589.669786	44934.113079
590.022155	44805.654397
590.374470	45286.822449
590.726731	44856.895205
591.078937	44182.734140
591.431090	44538.314447
591.783188	44044.760279
592.135232	43860.065005
592.487222	44115.112102
592.839157	44280.252740
593.191038	43919.611115
593.542866	43711.630751
593.894639	43091.425155
594.246358	43405.483998
594.598022	43389.155701
594.949633	42929.737707
595.301190	42918.110286
595.652692	42875.424316
596.004141	43394.882452
596.355535	42250.207813
596.706876	42250.585899
597.058162	41964.734832
597.409395	42470.564209
597.760573	42704.506515
598.111698	42298.242447
598.462768	42216.787483
598.813785	42220.797721
599.164748	41823.143944
599.515657	42103.323713
599.866511	41586.620567
600.217312	42286.914974
600.568060	41229.399365
600.918753	42060.277300
601.269392	41963.106539
601.619978	41668.289780
601.970510	41886.332287
602.320988	41997.169616
602.671412	42282.433389
603.021783	42122.656538
603.372100	41687.390712
603.722363	41788.768316
604.072572	41812.570124
604.422728	41827.917917
604.772830	41577.206212
605.122878	41759.438883
605.472872	41630.110602
605.822813	41865.819832
606.172701	41594.273039
606.522534	41911.679208
606.872314	42105.471245
607.222041	41947.378139
607.571714	42272.086420
607.921333	41749.928746
608.270899	41951.917698
608.620411	42320.305057
608.969870	42088.316198
609.319276	42084.689088
609.668627	42102.537293
610.017926	42495.414577
610.367171	42616.271199
610.716362	42673.518542
611.065500	42559.956470
611.414585	42758.099022
611.763616	42908.627875
612.112594	42804.916217
612.461518	42912.025613
612.810389	43292.020228
613.159207	43075.462341
613.507971	43013.849359
613.856682	43527.245508
614.205340	43338.139224
614.553945	44022.052402
614.902496	43341.509236
615.250994	43762.080098
615.599439	43833.503166
615.947830	43915.469807
616.296169	43899.133948
616.644454	43904.482612
616.992686	44043.928489
617.340864	44473.946474
617.688990	43956.552690
618.037063	44618.398217
618.385082	44428.233291
618.733048	44747.671045
619.080961	44587.120378
619.428821	44593.910812
619.776628	44621.233866
620.124382	44454.366632
620.472083	44537.643973
620.819731	44660.295246
621.167326	44217.137494
621.514868	44196.390625
621.862357	43624.746464
622.209793	43746.681894
622.557176	43294.382009
622.904506	43041.164851
623.251783	42677.102803
623.599007	42324.852178
623.946179	42245.186823
624.293297	41965.095275
624.640363	41409.126582
624.987376	41237.480334
625.334336	41025.928313
625.681243	40600.167583
626.028097	40473.100259
626.374899	40288.503287
626.721647	40237.912788
627.068343	39966.590326
627.414987	39664.322742
627.761577	39386.353518
628.108115	39688.628665
628.454600	38914.725850
628.801032	39121.418199
629.147412	38963.478849
629.493739	38844.999130
629.840014	38362.107003
630.186236	38767.193962
630.532405	38166.507714
630.878521	38380.187102
631.224585	38120.151783
631.570597	37751.492203
631.916556	37894.766836
632.262462	37770.935933
632.608316	37680.502674
632.954117	37508.725357
633.299866	37436.384799
633.645562	37341.011210
633.991206	36812.310118
634.336797	36387.706332
634.682336	36243.209219
635.027823	36010.060895
635.373257	35878.201954
635.718639	35519.644846
636.063968	35419.472077
636.409245	34739.939662
636.754470	34678.435065
