Dividing Wavelength (nm)	Counts (n)	Blue Motor Position (mm): 0.000000	Red Motor Position (mm): 39.000000	
326.493990	2052.785573
326.888308	2052.785573
327.282561	2052.785573
327.676750	2028.497293
328.070874	2028.401511
328.464933	2033.911492
328.858929	2043.910621
329.252859	2055.780018
329.646726	2066.739486
330.040528	2085.472414
330.434265	2098.783581
330.827938	2121.718310
331.221547	2139.720271
331.615091	2162.405463
332.008571	2181.748370
332.401986	2203.339632
332.795338	2224.202447
333.188625	2241.521331
333.581847	2263.435227
333.975006	2276.688421
334.368100	2296.361523
334.761129	2316.831129
335.154095	2329.244970
335.546996	2357.140195
335.939833	2400.791546
336.332606	2417.394586
336.725315	2429.730290
337.117960	2439.764706
337.510540	2447.205449
337.903056	2458.177521
338.295508	2464.620115
338.687896	2474.911631
339.080220	2475.093112
339.472480	2484.996459
339.864676	2486.382777
340.256807	2488.426964
340.648875	2492.648931
341.040879	2491.166832
341.432818	2491.244969
341.824694	2494.120948
342.216506	2494.499034
342.608253	2494.002481
342.999937	2492.439723
343.391557	2493.541215
343.783113	2492.207830
344.174605	2490.529126
344.566033	2486.186172
344.957397	2487.612818
345.348697	2487.333034
345.739934	2484.820019
346.131106	2481.298773
346.522215	2479.012610
346.913260	2480.502271
347.304241	2473.598410
347.695159	2476.726446
348.086012	2476.325675
348.476802	2472.587659
348.867528	2471.218986
349.258191	2467.090281
349.648789	2467.266721
350.039324	2462.850670
350.429796	2470.014150
350.820203	2465.351083
351.210548	2467.377627
351.600828	2465.474591
351.991045	2466.525672
352.381198	2465.214972
352.771288	2465.048613
353.161314	2465.940898
353.551276	2466.215641
353.941175	2463.445527
354.331010	2464.267235
354.720782	2465.222533
355.110490	2467.712863
355.500135	2463.059878
355.889717	2466.255970
356.279235	2466.472739
356.668689	2468.660600
357.058080	2466.916361
357.447408	2467.612040
357.836672	2467.745631
358.225873	2467.985086
358.615010	2468.148923
359.004084	2467.175980
359.393095	2470.966928
359.782043	2469.817545
360.170927	2469.925930
360.559748	2471.027422
360.948505	2471.692854
361.337199	2473.374079
361.725830	2475.544296
362.114398	2472.668317
362.502903	2477.349029
362.891344	2475.730818
363.279722	2475.443473
363.668037	2475.884574
364.056289	2479.287352
364.444478	2475.125880
364.832603	2480.010758
365.220665	2481.392034
365.608665	2477.953967
365.996601	2479.400778
366.384474	2479.620069
366.772284	2481.497898
367.160031	2480.199801
367.547715	2482.949751
367.935336	2482.216263
368.322893	2481.331540
368.710388	2478.752990
369.097820	2481.346664
369.485189	2479.557054
369.872495	2483.700883
370.259738	2484.366315
370.646918	2487.025524
371.034035	2487.569968
371.421090	2489.523415
371.808081	2488.552993
372.195010	2491.996101
372.581875	2491.078611
372.968678	2494.594816
373.355418	2494.209168
373.742096	2497.657317
374.128710	2500.936588
374.515262	2500.543378
374.901751	2503.565549
375.288177	2507.167454
375.674540	2508.883967
376.060841	2516.002076
376.447079	2517.932838
376.833254	2523.185720
377.219367	2531.281813
377.605417	2534.608975
377.991404	2541.200283
378.377329	2546.133052
378.763191	2552.845349
379.148991	2562.098387
379.534727	2572.518452
379.920402	2578.772003
380.306013	2589.534867
380.691563	2607.012547
381.077049	2612.066304
381.462474	2624.281019
381.847835	2639.583442
382.233134	2651.183137
382.618371	2660.796617
383.003545	2676.577949
383.388657	2694.905064
383.773706	2713.547251
384.158693	2724.287429
384.543618	2746.218969
384.928480	2757.826226
385.313280	2782.661470
385.698017	2799.388019
386.082692	2826.005311
386.467305	2838.409070
386.851856	2865.855632
387.236344	2890.136350
387.620770	2907.961870
388.005133	2927.342586
388.389435	2962.958338
388.773674	2979.284114
389.157851	3009.072293
389.541965	3036.647404
389.926018	3050.550906
390.310008	3084.878643
390.693936	3109.436624
391.077802	3137.465440
391.461606	3168.760923
391.845348	3187.461083
392.229027	3216.140207
392.612645	3257.649068
392.996200	3288.944551
393.379694	3323.589881
393.763125	3371.193497
394.146494	3396.885737
394.529801	3432.342693
394.913047	3477.813901
395.296230	3484.596773
395.679351	3506.130062
396.062410	3559.563772
396.445408	3536.319012
396.828343	3577.976586
397.211217	3612.178295
397.594028	3584.857761
397.976778	3635.138230
398.359466	3666.269875
398.742092	3679.570960
399.124656	3692.262065
399.507158	3753.421343
399.889598	3758.107096
400.271977	3821.786951
400.654294	3810.973676
401.036549	3874.875342
401.418742	3873.657903
401.800874	3941.781536
402.182944	3970.233808
402.564952	4059.429464
402.946898	4048.646436
403.328783	4047.784398
403.710606	4098.316925
404.092367	4168.958613
404.474067	4229.722161
404.855705	4214.359245
405.237282	4184.813042
405.618797	4283.876757
406.000250	4365.046895
406.381642	4447.134524
406.762972	4448.969504
407.144240	4415.632353
407.525447	4477.711642
407.906593	4498.261906
408.287677	4582.272735
408.668700	4607.228967
409.049661	4649.287314
409.430560	4687.844579
409.811399	4668.529398
410.192176	4718.414136
410.572891	4801.688956
410.953545	4909.887241
411.334138	4807.902178
411.714669	4917.627933
412.095139	4825.674766
412.475547	4939.957724
412.855894	4948.993992
413.236180	5047.344383
413.616405	4974.766891
413.996568	5083.179425
414.376670	5082.261935
414.756711	5078.241615
415.136691	5147.350793
415.516609	5236.223815
415.896466	5272.348723
416.276262	5351.522565
416.655997	5469.460359
417.035670	5559.651643
417.415283	5706.165217
417.794834	5777.605929
418.174324	5735.603035
418.553753	5737.057408
418.933121	5907.662657
419.312428	5917.737403
419.691674	5833.988714
420.070859	6072.304221
420.449983	5946.832423
420.829045	6148.990254
421.208047	6069.040074
421.586988	6229.419343
421.965867	6301.250744
422.344686	6388.871039
422.723444	6556.522172
423.102141	6168.219735
423.480777	6563.005096
423.859352	6375.466611
424.237866	6747.970071
424.616319	6745.462097
424.994712	6907.562920
425.373044	6820.708880
425.751314	7143.867006
426.129524	6857.088367
426.507673	7127.052238
426.885762	7175.588467
427.263789	7214.284364
427.641756	7304.649567
428.019662	7387.029583
428.397508	7429.448372
428.775292	7399.942498
429.153016	7582.459994
429.530679	7513.222266
429.908282	7562.688588
430.285824	7507.228334
430.663305	7791.330121
431.040726	7673.258736
431.418086	7679.537493
431.795385	7814.597567
432.172624	8006.872216
432.549802	7882.471662
432.926920	8022.696397
433.303977	7965.191956
433.680974	8005.427925
434.057910	8211.744708
434.434786	8262.060464
434.811601	8221.645534
435.188355	8557.865290
435.565050	8446.720450
435.941683	8463.540260
436.318257	8795.739696
436.694770	8748.365452
437.071222	8978.547058
437.447614	8755.970033
437.823946	8720.354281
438.200218	8877.096357
438.576429	8752.756297
438.952580	8924.518491
439.328670	8927.442361
439.704700	9004.284669
440.080670	8898.450685
440.456580	9170.357920
440.832429	9149.575764
441.208218	8882.961740
441.583947	8994.910643
441.959616	9121.209191
442.335224	9146.291452
442.710773	9237.122962
443.086261	9421.364532
443.461689	9129.373340
443.837057	9303.018404
444.212365	9527.932004
444.587612	9499.572993
444.962800	9400.620184
445.337927	9527.465697
445.712995	9066.545439
446.088002	9748.732022
446.462949	9807.048089
446.837837	9789.948496
447.212664	9812.961363
447.587431	10654.680300
447.962139	11671.163438
448.336786	12632.395530
448.711374	12408.132239
449.085901	11181.369972
449.460369	11106.158477
449.834776	10868.989832
450.209124	11802.414920
450.583412	11616.502207
450.957640	11936.484406
451.331808	11520.165757
451.705917	10950.152409
452.079965	10827.256640
452.453954	11022.364417
452.827883	10971.272323
453.201752	10939.117323
453.575562	10942.038672
453.949311	11295.463886
454.323001	11363.784123
454.696632	11274.626277
455.070202	11875.463759
455.443713	11934.956937
455.817164	12104.750560
456.190556	12417.791090
456.563888	12287.351234
456.937160	12557.441134
457.310373	12032.624251
457.683526	12049.519678
458.056619	12063.680279
458.429653	12132.701237
458.802628	12275.459152
459.175542	12329.588542
459.548398	12889.348183
459.921194	13462.023260
460.293930	13749.663936
460.666607	14612.270894
461.039224	15426.684422
461.411782	15787.676407
461.784280	15450.304748
462.156719	15404.909158
462.529099	15312.610672
462.901419	14660.262679
463.273680	14260.778963
463.645882	14477.286438
464.018024	14357.077604
464.390106	14729.802876
464.762130	15800.793490
465.134094	17354.953494
465.505999	19662.861781
465.877845	21963.646917
466.249631	23256.904524
466.621358	22786.464047
466.993026	21982.102581
467.364634	21224.707024
467.736184	20418.029147
468.107674	19795.968407
468.479105	19650.576489
468.850477	19373.882678
469.221790	18938.498384
469.593043	18264.034850
469.964238	17871.079428
470.335373	17929.607224
470.706449	18659.490684
471.077467	19510.583646
471.448425	22027.503212
471.819324	23933.422329
472.190164	23853.333518
472.560945	22082.688723
472.931667	20484.882409
473.302330	20141.181581
473.672934	19571.132945
474.043479	20013.847076
474.413965	19794.957655
474.784393	19602.231823
475.154761	20294.490631
475.525070	20411.200904
475.895321	20249.205946
476.265513	20784.579005
476.635645	21384.982949
477.005719	21452.965429
477.375734	21830.263027
477.745691	22466.232311
478.115588	23114.607875
478.485427	24329.324305
478.855207	26161.251887
479.224928	27992.962698
479.594591	29460.450145
479.964194	29114.334604
480.333739	29575.852239
480.703226	29806.517795
481.072653	30238.814381
481.442022	30771.805495
481.811333	31203.666021
482.180584	30760.525913
482.549777	30532.572498
482.918912	30286.904468
483.287988	30243.119526
483.657005	30092.106722
484.025964	29708.832836
484.394864	29911.840101
484.763706	29835.259933
485.132489	29274.179510
485.501213	29375.138698
485.869879	29554.785257
486.238487	29471.777618
486.607036	29747.122920
486.975527	29428.673232
487.343959	29782.920153
487.712333	30142.745112
488.080648	30101.405130
488.448905	30547.559848
488.817104	30417.422462
489.185244	31270.151279
489.553326	32215.584395
489.921350	34130.776714
490.289315	36685.351179
490.657222	37633.226733
491.025070	38230.787466
491.392861	37957.264541
491.760593	37178.207146
492.128267	36166.046798
492.495883	35168.238614
492.863440	34254.317751
493.230939	33263.927625
493.598380	32683.932793
493.965763	32503.046110
494.333088	31996.702536
494.700354	31804.758082
495.067563	31770.357249
495.434713	31641.046611
495.801805	31933.322629
496.168839	31773.192898
496.535815	31606.822218
496.902733	31735.913565
497.269593	31552.047561
497.636395	31705.336446
498.003139	31990.632987
498.369825	31735.043966
498.736453	32153.840342
499.103023	31986.887409
499.469535	32086.374580
499.835989	32187.434592
500.202385	32069.350604
500.568723	32121.645013
500.935003	32408.922727
501.301226	32259.545777
501.667390	33033.188972
502.033497	33240.093050
502.399546	33039.374468
502.765537	32625.105048
503.131470	33120.549648
503.497345	33545.040008
503.863163	32471.876656
504.228923	33260.688684
504.594625	33663.988553
504.960269	33147.847496
505.325856	33814.053621
505.691385	33466.793738
506.056856	33802.746313
506.422270	34287.097854
506.787625	33811.575894
507.152924	34276.085453
507.518164	34447.507369
507.883347	34018.941237
508.248472	34174.102911
508.613540	34887.141355
508.978550	35107.154953
509.343503	34925.842293
509.708398	35298.010517
510.073236	35904.388228
510.438016	35984.792111
510.802738	35661.770096
511.167403	36217.310291
511.532010	36471.510474
511.896561	37013.953751
512.261053	37773.325440
512.625488	37545.740029
512.989866	37474.821077
513.354186	37506.197218
513.718449	37480.222673
514.082655	38371.723004
514.446803	38056.666012
514.810894	38696.383394
515.174927	38703.993016
515.538904	38716.530366
515.902822	39357.071976
516.266684	39043.247547
516.630488	39397.267617
516.994235	39409.925954
517.357925	39992.181744
517.721558	40245.633315
518.085133	40627.420060
518.448651	40820.123207
518.812112	40704.917718
519.175516	40880.690150
519.538863	41317.972438
519.902152	41377.412683
520.265385	41924.995416
520.628560	41954.811321
520.991678	41897.221179
521.354739	42125.149389
521.717743	42500.609486
522.080690	42393.210224
522.443580	43100.625261
522.806413	43102.452679
523.169189	43240.267743
523.531908	43469.161333
523.894569	43310.347343
524.257174	43519.303170
524.619722	43867.525913
524.982213	44034.299885
525.344647	44074.412346
525.707025	44172.379610
526.069345	44624.203105
526.431608	44535.980393
526.793815	44932.767091
527.155964	44467.612264
527.518057	44714.711982
527.880093	44578.227782
528.242072	45217.269650
528.603995	44938.413183
528.965860	44837.907699
529.327669	45056.592953
529.689421	45140.258463
530.051117	45108.370644
530.412755	45366.167690
530.774337	45424.113233
531.135862	45366.525612
531.497331	45521.213418
531.858743	45502.354461
532.220098	45921.486074
532.581396	45643.758827
532.942638	45386.614610
533.303824	45660.172824
533.664953	45724.046763
534.026025	45371.783536
534.387040	45953.550333
534.747999	46024.504574
535.108902	46362.818929
535.469748	45655.383728
535.830537	45928.601663
536.191270	46189.614965
536.551947	45918.484067
536.912567	46178.990733
537.273131	46319.845613
537.633638	45958.175592
537.994089	46133.005328
538.354483	45879.362193
538.714821	46527.931841
539.075103	46827.331009
539.435328	46680.756940
539.795497	46429.054649
540.155609	46574.202072
540.515665	47158.910383
540.875665	46434.299970
541.235609	46700.336782
541.595496	46859.150772
541.955328	47422.446782
542.315102	46851.503342
542.674821	46743.025273
543.034483	46646.935839
543.394090	46654.968918
543.753640	46629.236348
544.113134	47705.063949
544.472571	46790.853220
544.831953	47936.876368
545.191278	47180.766305
545.550548	46875.736168
545.909761	47522.604427
546.268918	47638.528280
546.628019	48050.675375
546.987064	47472.765059
547.346053	46784.536654
547.704986	47711.783807
548.063863	47342.179010
548.422684	47548.989826
548.781449	47084.152592
549.140158	47628.045201
549.498811	47383.138385
549.857408	46762.438756
550.215949	47603.144421
550.574434	47435.062270
550.932864	47382.828354
551.291237	48086.336497
551.649555	47819.296495
552.007817	47998.217128
552.366022	47705.290801
552.724173	47768.426212
553.082267	48146.328748
553.440305	48504.575826
553.798288	47727.648318
554.156215	48118.836816
554.514086	48316.351744
554.871902	47894.346673
555.229661	48074.666226
555.587365	47734.746263
555.945014	47833.941047
556.302606	47852.404273
556.660143	47946.366340
557.017625	48158.608999
557.375050	47838.994804
557.732421	48208.037512
558.089735	48288.201941
558.446994	48125.818814
558.804197	48587.689329
559.161345	48430.937171
559.518437	47759.510931
559.875474	47993.402826
560.232455	48213.408862
560.589381	48223.934791
560.946251	48037.696924
561.303065	48670.142442
561.659825	48318.330397
562.016528	48100.978528
562.373177	47667.091458
562.729770	48291.675296
563.086307	47783.121175
563.442789	48325.904731
563.799216	48131.054052
564.155587	48026.066982
564.511904	47950.686609
564.868164	47971.239393
565.224370	48275.475548
565.580520	47977.901278
565.936615	48153.761930
566.292654	47764.773896
566.648638	48112.331207
567.004567	48002.184516
567.360441	48052.124706
567.716260	47736.424967
568.072023	48081.524716
568.427732	47969.061614
568.783385	47477.342427
569.138982	47852.134572
569.494525	47966.397365
569.850013	47534.209163
570.205445	47623.727452
570.560823	47358.713995
570.916145	47192.623099
571.271412	47394.463337
571.626625	46994.236051
571.981782	47032.430353
572.336884	46595.692510
572.691931	46866.069756
573.046923	46486.301992
573.401860	46259.651716
573.756743	46232.121974
574.111570	46334.084352
574.466342	46221.933802
574.821059	46330.603435
575.175722	45762.682167
575.530330	45803.049206
575.884882	45422.850424
576.239380	45262.715652
576.593823	45301.247711
576.948211	45196.351382
577.302544	44695.845463
577.656823	44621.206139
578.011047	44841.509604
578.365216	44614.435870
578.719330	44271.859219
579.073389	44210.054673
579.427394	44178.809601
579.781344	44035.345925
580.135239	43725.677926
580.489080	43733.779060
580.842866	43177.840614
581.196597	43591.666413
581.550273	43518.730999
581.903895	43385.470618
582.257463	43750.792955
582.610975	43123.272644
582.964434	43372.875295
583.317837	42806.398317
583.671186	42728.540216
584.024481	42922.531378
584.377721	42391.133268
584.730906	42514.303780
585.084037	42597.278652
585.437113	42266.369752
585.790135	42321.051148
586.143103	41805.880513
586.496016	41896.364183
586.848874	41935.060080
587.201679	41895.986097
587.554428	41316.634011
587.907124	41483.203817
588.259765	41197.017513
588.612352	41273.136415
588.964884	40703.675074
589.317362	40876.954655
589.669786	40805.766001
590.022155	40606.935332
590.374470	40975.370581
590.726731	40490.081386
591.078937	39798.533380
591.431090	40051.755579
591.783188	39495.859983
592.135232	39255.762428
592.487222	39412.116335
592.839157	39471.511210
593.191038	39060.977285
593.542866	38798.610433
593.894639	38154.968513
594.246358	38341.655042
594.598022	38268.240719
594.949633	37774.489947
595.301190	37680.570730
595.652692	37537.719553
596.004141	37909.192098
596.355535	36817.484862
596.706876	36740.347647
597.058162	36400.614207
597.409395	36766.475947
597.760573	36880.229583
598.111698	36433.041429
598.462768	36259.731601
598.813785	36200.588784
599.164748	35751.227892
599.515657	35900.188947
599.866511	35381.746603
600.217312	35869.566457
600.568060	34881.528030
600.918753	35499.780179
601.269392	35327.213921
601.619978	34982.169625
601.970510	35071.851752
602.320988	35089.193322
602.671412	35215.542281
603.021783	34995.022047
603.372100	34539.130340
603.722363	34521.224162
604.072572	34450.751352
604.422728	34348.236967
604.772830	34061.148297
605.122878	34116.671566
605.472872	33901.744492
605.822813	34005.645193
606.172701	33674.219575
606.522534	33832.148842
606.872314	33904.539812
607.222041	33670.095911
607.571714	33814.822397
607.921333	33285.314720
608.270899	33350.116232
608.620411	33529.102400
608.969870	33263.151287
609.319276	33150.531910
609.668627	33058.455235
610.017926	33263.965434
610.367171	33263.239508
610.716362	33185.908207
611.065500	32991.854031
611.414585	33029.100597
611.763616	33038.630898
612.112594	32856.017620
612.461518	32828.729855
612.810389	33005.031608
613.159207	32712.871536
613.507971	32573.118149
613.856682	32834.128930
614.205340	32584.296908
614.553945	32993.111799
614.902496	32359.791642
615.250994	32559.239852
615.599439	32494.486231
615.947830	32448.432770
616.296169	32310.864723
616.644454	32203.941850
616.992686	32175.976049
617.340864	32366.778681
617.688990	31882.875803
618.037063	32246.544641
618.385082	31971.968114
618.733048	32084.035485
619.080961	31866.618081
619.428821	31758.618922
619.776628	31654.506492
620.124382	31414.741653
620.472083	31365.948325
620.819731	31336.202997
621.167326	30897.998178
621.514868	30784.443668
621.862357	30272.093558
622.209793	30231.229965
622.557176	29805.156683
622.904506	29526.085968
623.251783	29169.205043
623.599007	28818.076075
623.946179	28649.827565
624.293297	28345.785494
624.640363	27858.300876
624.987376	27628.867883
625.334336	27382.463844
625.681243	26998.416141
626.028097	26804.311554
626.374899	26583.055311
626.721647	26433.028052
627.068343	26158.388511
627.414987	25856.897264
627.761577	25581.952734
628.108115	25668.244685
628.454600	25072.960033
628.801032	25094.531130
629.147412	24898.987293
629.493739	24721.185797
629.840014	24330.468647
630.186236	24471.779751
630.532405	24008.074256
630.878521	24038.086765
631.224585	23792.267501
631.570597	23464.302635
631.916556	23456.955153
632.262462	23273.681484
632.608316	23119.018884
632.954117	22922.592845
633.299866	22796.132980
633.645562	22642.201348
633.991206	22228.536866
634.336797	21892.110423
634.682336	21718.203218
635.027823	21486.476499
635.373257	21310.759520
635.718639	21015.055518
636.063968	20870.243332
636.409245	20397.252032
636.754470	20254.088304
