Dividing Wavelength (nm)	Counts (n)	Blue Motor Position (mm): 0.000000	Red Motor Position (mm): 15.500000	
326.493990	2053.025027
326.888308	2053.025027
327.282561	2053.025027
327.676750	2026.785822
328.070874	2030.007119
328.464933	2033.959383
328.858929	2042.957843
329.252859	2053.130892
329.646726	2064.836451
330.040528	2083.317321
330.434265	2098.047572
330.827938	2123.898609
331.221547	2140.577267
331.615091	2159.632828
332.008571	2180.336847
332.401986	2202.540609
332.795338	2221.578527
333.188625	2241.246588
333.581847	2259.911461
333.975006	2278.840993
334.368100	2295.401184
334.761129	2311.641261
335.154095	2328.297233
335.546996	2342.104953
335.939833	2356.389063
336.332606	2368.666793
336.725315	2382.981149
337.117960	2391.508261
337.510540	2403.995199
337.903056	2411.471230
338.295508	2419.310225
338.687896	2424.880700
339.080220	2431.923192
339.472480	2434.584921
339.864676	2438.307813
340.256807	2442.844851
340.648875	2444.810901
341.040879	2443.676642
341.432818	2447.681838
341.824694	2450.724175
342.216506	2446.449276
342.608253	2445.897270
342.999937	2447.008844
343.391557	2445.304934
343.783113	2443.046498
344.174605	2443.394337
344.566033	2442.638164
344.957397	2441.808894
345.348697	2437.712957
345.739934	2436.518203
346.131106	2434.015270
346.522215	2431.416556
346.913260	2429.150557
347.304241	2429.745413
347.695159	2430.294899
348.086012	2428.802717
348.476802	2425.341965
348.867528	2420.809968
349.258191	2418.722930
349.648789	2421.765267
350.039324	2415.375604
350.429796	2419.930287
350.820203	2419.506830
351.210548	2419.723599
351.600828	2416.870306
351.991045	2416.406520
352.381198	2413.591036
352.771288	2416.532549
353.161314	2418.977508
353.551276	2417.578588
353.941175	2418.246541
354.331010	2417.858372
354.720782	2416.890471
355.110490	2416.598084
355.500135	2414.770666
355.889717	2416.910635
356.279235	2417.487848
356.668689	2415.720923
357.058080	2419.741243
357.447408	2419.776531
357.836672	2417.976839
358.225873	2421.606470
358.615010	2420.595719
359.004084	2420.053795
359.393095	2420.116809
359.782043	2423.305339
360.170927	2421.528332
360.559748	2423.191913
360.948505	2424.535381
361.337199	2425.304157
361.725830	2424.472366
362.114398	2422.667633
362.502903	2424.104362
362.891344	2425.536050
363.279722	2425.609146
363.668037	2428.933787
364.056289	2425.644434
364.444478	2429.669796
364.832603	2430.574683
365.220665	2431.371185
365.608665	2428.437234
365.996601	2431.550146
366.384474	2430.231884
366.772284	2429.942018
367.160031	2431.219951
367.547715	2431.101483
367.935336	2432.666762
368.322893	2430.594847
368.710388	2427.776842
369.097820	2429.382450
369.485189	2428.943870
369.872495	2435.845209
370.259738	2433.748089
370.646918	2436.180446
371.034035	2435.497370
371.421090	2437.120621
371.808081	2434.622729
372.195010	2442.565067
372.581875	2438.822011
372.968678	2441.806374
373.355418	2442.502053
373.742096	2444.057249
374.128710	2447.628906
374.515262	2448.843824
374.901751	2455.808178
375.288177	2455.810699
375.674540	2457.887654
376.060841	2464.063068
376.447079	2467.294448
376.833254	2471.173615
377.219367	2477.376755
377.605417	2481.898670
377.991404	2484.515029
378.377329	2496.719662
378.763191	2499.424242
379.148991	2511.560819
379.534727	2518.484844
379.920402	2524.282171
380.306013	2535.135775
380.691563	2547.753783
381.077049	2559.955896
381.462474	2572.551219
381.847835	2583.498085
382.233134	2599.523913
382.618371	2610.763165
383.003545	2627.509878
383.388657	2641.070582
383.773706	2661.794766
384.158693	2674.427897
384.543618	2693.652337
384.928480	2703.964018
385.313280	2726.329097
385.698017	2746.254257
386.082692	2770.955911
386.467305	2785.285391
386.851856	2809.979483
387.236344	2839.024091
387.620770	2851.861389
388.005133	2873.530789
388.389435	2908.060172
388.773674	2919.667429
389.157851	2953.788479
389.541965	2983.387614
389.926018	2995.312463
390.310008	3026.050899
390.693936	3053.386555
391.077802	3079.343457
391.461606	3115.087758
391.845348	3131.153915
392.229027	3161.499141
392.612645	3199.827033
392.996200	3228.649831
393.379694	3270.559463
393.763125	3309.656132
394.146494	3335.497086
394.529801	3373.867829
394.913047	3417.816608
395.296230	3420.054880
395.679351	3449.366669
396.062410	3494.056498
396.445408	3475.777274
396.828343	3520.724202
397.211217	3552.226373
397.594028	3525.538504
397.976778	3574.064651
398.359466	3605.481122
398.742092	3616.828759
399.124656	3629.189668
399.507158	3690.280891
399.889598	3692.307435
400.271977	3757.960902
400.654294	3742.179570
401.036549	3801.798776
401.418742	3799.497489
401.800874	3867.003580
402.182944	3890.649112
402.564952	3972.177173
402.946898	3965.744661
403.328783	3954.192857
403.710606	4000.072398
404.092367	4063.318714
404.474067	4119.971201
404.855705	4097.432202
405.237282	4061.118250
405.618797	4149.530007
406.000250	4209.998647
406.381642	4278.618833
406.762972	4267.835805
407.144240	4230.495978
407.525447	4273.189510
407.906593	4278.142444
408.287677	4338.364068
408.668700	4344.446220
409.049661	4366.748285
409.430560	4380.301427
409.811399	4342.714584
410.192176	4367.746433
410.572891	4415.934823
410.953545	4487.302438
411.334138	4376.260942
411.714669	4445.460861
412.095139	4345.235161
412.475547	4414.692178
412.855894	4390.860123
413.236180	4440.253349
413.616405	4357.051625
413.996568	4409.479625
414.376670	4379.958628
414.756711	4345.197352
415.136691	4364.978840
415.516609	4392.180906
415.896466	4386.686048
416.276262	4403.107607
416.655997	4446.401036
417.035670	4466.618583
417.415283	4522.759393
417.794834	4525.655536
418.174324	4456.090134
418.553753	4417.684103
418.933121	4469.933142
419.312428	4433.727575
419.691674	4346.069472
420.070859	4427.151390
420.449983	4311.877846
420.829045	4367.915312
421.208047	4280.373155
421.586988	4314.862209
421.965867	4300.089107
422.344686	4290.276501
422.723444	4312.366838
423.102141	4085.736725
423.480777	4209.134089
423.859352	4080.372937
424.237866	4180.689378
424.616319	4118.852065
424.994712	4136.642297
425.373044	4052.029050
425.751314	4104.744396
426.129524	3953.653453
426.507673	3987.565295
426.885762	3949.943164
427.263789	3909.679468
427.641756	3882.479923
428.019662	3852.601004
428.397508	3809.884787
428.775292	3749.519490
429.153016	3740.271493
429.530679	3674.255063
429.908282	3633.704022
430.285824	3572.935433
430.663305	3585.245930
431.040726	3517.601207
431.418086	3465.321921
431.795385	3445.099333
432.172624	3428.584513
432.549802	3366.172508
432.926920	3344.286338
433.303977	3293.153915
433.680974	3257.865838
434.057910	3245.779671
434.434786	3212.364383
434.811601	3166.799914
435.188355	3167.636746
435.565050	3120.474231
435.941683	3087.537852
436.318257	3081.972418
436.694770	3043.394988
437.071222	3029.783873
437.447614	2978.104484
437.823946	2947.262705
438.200218	2928.910385
438.576429	2892.246073
438.952580	2875.748897
439.328670	2851.241327
439.704700	2831.051506
440.080670	2802.944553
440.456580	2792.693367
440.832429	2771.076899
441.208218	2739.791498
441.583947	2728.988305
441.959616	2714.426932
442.335224	2701.128369
442.710773	2686.325020
443.086261	2675.947805
443.461689	2655.533653
443.837057	2646.444452
444.212365	2641.998155
444.587612	2625.659775
444.962800	2611.932713
445.337927	2605.049018
445.712995	2584.231573
446.088002	2595.329673
446.462949	2585.708631
446.837837	2579.560944
447.212664	2573.146075
447.587431	2578.605645
447.962139	2584.609659
448.336786	2594.444950
448.711374	2584.594536
449.085901	2565.448233
449.460369	2560.510423
449.834776	2554.544218
450.209124	2557.243756
450.583412	2552.520194
450.957640	2553.752757
451.331808	2545.999462
451.705917	2539.009902
452.079965	2536.264994
452.453954	2534.775333
452.827883	2532.756351
453.201752	2532.060672
453.575562	2527.959693
453.949311	2530.381967
454.323001	2529.749303
454.696632	2526.124713
455.070202	2530.671834
455.443713	2527.591689
455.817164	2528.673016
456.190556	2530.686957
456.563888	2530.654190
456.937160	2529.792152
457.310373	2524.201513
457.683526	2524.234280
458.056619	2522.079187
458.429653	2522.953827
458.802628	2522.416944
459.175542	2521.781759
459.548398	2524.335103
459.921194	2526.147398
460.293930	2526.459950
460.666607	2528.816689
461.039224	2532.668131
461.411782	2534.697195
461.784280	2534.132586
462.156719	2529.469518
462.529099	2529.678726
462.901419	2523.974661
463.273680	2522.389218
463.645882	2517.728671
464.018024	2521.018024
464.390106	2517.905112
464.762130	2526.517923
465.134094	2532.806762
465.505999	2543.531817
465.877845	2550.932231
466.249631	2556.348951
466.621358	2552.177396
466.993026	2549.803012
467.364634	2548.751932
467.736184	2540.882691
468.107674	2537.590817
468.479105	2538.770447
468.850477	2536.320447
469.221790	2532.295085
469.593043	2527.760567
469.964238	2527.626977
470.335373	2528.186545
470.706449	2531.362472
471.077467	2531.743079
471.448425	2541.681714
471.819324	2550.050029
472.190164	2547.569781
472.560945	2539.796322
472.931667	2533.101670
473.302330	2530.102183
473.672934	2526.659075
474.043479	2531.364992
474.413965	2530.034128
474.784393	2527.483304
475.154761	2532.937832
475.525070	2532.181659
475.895321	2530.414735
476.265513	2533.328522
476.635645	2531.707791
477.005719	2533.381454
477.375734	2534.301464
477.745691	2534.026722
478.115588	2537.169881
478.485427	2544.245140
478.855207	2547.116078
479.224928	2553.215874
479.594591	2555.456667
479.964194	2557.609239
480.333739	2556.507747
480.703226	2555.290308
481.072653	2560.956565
481.442022	2559.192162
481.811333	2557.382387
482.180584	2552.439536
482.549777	2554.178734
482.918912	2550.927190
483.287988	2555.285267
483.657005	2557.876420
484.025964	2552.747046
484.394864	2553.750236
484.763706	2556.666543
485.132489	2550.901984
485.501213	2551.317879
485.869879	2552.593291
486.238487	2551.688404
486.607036	2552.767211
486.975527	2549.823177
487.343959	2552.689073
487.712333	2552.926007
488.080648	2551.854762
488.448905	2554.881975
488.817104	2555.612942
489.185244	2555.557490
489.553326	2558.241904
489.921350	2564.036710
490.289315	2573.007444
490.657222	2576.984914
491.025070	2575.875860
491.392861	2575.578432
491.760593	2573.587176
492.128267	2569.944943
492.495883	2566.892524
492.863440	2566.083419
493.230939	2563.018397
493.598380	2560.102090
493.965763	2562.599982
494.333088	2557.200906
494.700354	2556.094372
495.067563	2557.163097
495.434713	2558.816596
495.801805	2557.546225
496.168839	2556.187634
496.535815	2556.227963
496.902733	2559.091338
497.269593	2557.581513
497.636395	2556.588406
498.003139	2557.059753
498.369825	2558.504044
498.736453	2558.582182
499.103023	2558.211657
499.469535	2557.946997
499.835989	2557.684857
500.202385	2555.953220
500.568723	2553.616645
500.935003	2554.995401
501.301226	2555.537325
501.667390	2560.855742
502.033497	2560.623849
502.399546	2560.588561
502.765537	2559.872717
503.131470	2559.950855
503.497345	2562.652914
503.863163	2557.649568
504.228923	2561.649724
504.594625	2560.747358
504.960269	2561.932029
505.325856	2559.083777
505.691385	2560.399518
506.056856	2560.326421
506.422270	2561.334652
506.787625	2559.189641
507.152924	2560.071843
507.518164	2561.352296
507.883347	2560.805331
508.248472	2558.244425
508.613540	2559.847512
508.978550	2564.084601
509.343503	2562.703325
509.708398	2564.868501
510.073236	2562.642831
510.438016	2563.361196
510.802738	2565.599468
511.167403	2561.982440
511.532010	2562.985630
511.896561	2564.354303
512.261053	2568.488049
512.625488	2562.932698
512.989866	2563.288099
513.354186	2564.586196
513.718449	2565.614592
514.082655	2565.914540
514.446803	2565.682647
514.810894	2566.209448
515.174927	2565.082750
515.538904	2564.916392
515.902822	2565.677606
516.266684	2566.096022
516.630488	2564.992009
516.994235	2562.436144
517.357925	2563.867832
517.721558	2565.503686
518.085133	2567.953687
518.448651	2562.405897
518.812112	2562.085784
519.175516	2562.504200
519.538863	2560.137378
519.902152	2563.341031
520.265385	2563.787173
520.628560	2565.012174
520.991678	2564.664334
521.354739	2562.640311
521.717743	2565.619633
522.080690	2561.894220
522.443580	2563.252811
522.806413	2562.151319
523.169189	2566.133830
523.531908	2562.605023
523.894569	2560.833057
524.257174	2564.450085
524.619722	2564.656772
524.982213	2562.116031
525.344647	2561.858932
525.707025	2561.110321
526.069345	2562.542008
526.431608	2561.828685
526.793815	2559.913047
527.155964	2562.105948
527.518057	2560.296174
527.880093	2558.592264
528.242072	2560.838098
528.603995	2559.751730
528.965860	2558.937583
529.327669	2562.320198
529.689421	2557.687377
530.051117	2560.772563
530.412755	2560.369271
530.774337	2557.750392
531.135862	2555.910370
531.497331	2559.255176
531.858743	2557.294167
532.220098	2556.832902
532.581396	2556.268292
532.942638	2556.875751
533.303824	2556.117058
533.664953	2556.986657
534.026025	2553.694783
534.387040	2557.619322
534.747999	2557.606719
535.108902	2560.202913
535.469748	2554.786193
535.830537	2557.064795
536.191270	2553.699824
536.551947	2552.104299
536.912567	2546.869061
537.273131	2554.145967
537.633638	2550.231511
537.994089	2553.389793
538.354483	2553.798127
538.714821	2555.746533
539.075103	2556.971533
539.435328	2554.866852
539.795497	2554.007335
540.155609	2553.964485
540.515665	2554.254351
540.875665	2554.035061
541.235609	2552.144628
541.595496	2556.280895
541.955328	2553.944320
542.315102	2555.018086
542.674821	2553.591440
543.034483	2554.352654
543.394090	2554.766028
543.753640	2553.437684
544.113134	2552.326110
544.472571	2553.374670
544.831953	2554.657644
545.191278	2555.565051
545.550548	2550.528939
545.909761	2555.549928
546.268918	2556.575803
546.628019	2554.191337
546.987064	2555.781821
547.346053	2552.300904
547.704986	2552.295863
548.063863	2553.220915
548.422684	2550.322251
548.781449	2551.764021
549.140158	2551.872406
549.498811	2551.171686
549.857408	2548.136911
550.215949	2554.544218
550.574434	2550.725544
550.932864	2551.151521
551.291237	2553.596481
551.649555	2553.992211
552.007817	2550.833928
552.366022	2551.373332
552.724173	2551.539690
553.082267	2550.695297
553.440305	2555.761656
553.798288	2550.198743
554.156215	2553.871224
554.514086	2550.176058
554.871902	2548.489792
555.229661	2549.482899
555.587365	2546.851417
555.945014	2549.780327
556.302606	2552.948692
556.660143	2553.120092
557.017625	2551.345606
557.375050	2552.152190
557.732421	2552.656306
558.089735	2551.827036
558.446994	2551.905174
558.804197	2552.114382
559.161345	2553.425082
559.518437	2549.482899
559.875474	2548.439380
560.232455	2548.736808
560.589381	2552.696635
560.946251	2553.568754
561.303065	2549.651778
561.659825	2551.867365
562.016528	2548.086500
562.373177	2547.778989
562.729770	2549.765204
563.086307	2551.068342
563.442789	2552.852911
563.799216	2548.414175
564.155587	2548.401572
564.511904	2551.809392
564.868164	2549.581202
565.224370	2552.104299
565.580520	2549.755122
565.936615	2551.915256
566.292654	2549.644216
566.648638	2550.065152
567.004567	2550.526418
567.360441	2547.428629
567.716260	2548.202446
568.072023	2550.914587
568.427732	2551.088507
568.783385	2550.705379
569.138982	2551.532128
569.494525	2553.140256
569.850013	2549.858465
570.205445	2549.979453
570.560823	2548.368804
570.916145	2548.215049
571.271412	2546.884184
571.626625	2551.015410
571.981782	2545.928886
572.336884	2546.145655
572.691931	2543.592311
573.046923	2547.826880
573.401860	2541.197763
573.756743	2548.983825
574.111570	2544.109029
574.466342	2545.376879
574.821059	2547.534493
575.175722	2547.312682
575.530330	2548.144473
575.884882	2545.182795
576.239380	2546.417878
576.593823	2546.475851
576.948211	2546.324616
577.302544	2544.260264
577.656823	2544.451828
578.011047	2548.106664
578.365216	2545.205480
578.719330	2547.073228
579.073389	2545.001313
579.427394	2544.275387
579.781344	2540.497043
580.135239	2544.706406
580.489080	2545.195398
580.842866	2544.172044
581.196597	2546.027188
581.550273	2546.405275
581.903895	2544.968546
582.257463	2547.113557
582.610975	2542.105171
582.964434	2543.728422
583.317837	2542.727753
583.671186	2539.922351
584.024481	2543.884698
584.377721	2542.909235
584.730906	2541.757331
585.084037	2542.415202
585.437113	2541.197763
585.790135	2546.541386
586.143103	2539.801363
586.496016	2543.569626
586.848874	2545.515511
587.201679	2543.420912
587.554428	2538.651980
587.907124	2542.694986
588.259765	2544.005686
588.612352	2538.735159
588.964884	2540.549975
589.317362	2541.038967
589.669786	2541.220448
590.022155	2538.525951
590.374470	2539.052752
590.726731	2540.000489
591.078937	2532.907585
591.431090	2539.682896
591.783188	2538.513348
592.135232	2539.380427
592.487222	2537.812628
592.839157	2540.930582
593.191038	2538.354552
593.542866	2539.627443
593.894639	2537.694161
594.246358	2539.408153
594.598022	2539.876981
594.949633	2535.493697
595.301190	2536.196938
595.652692	2536.317926
596.004141	2538.815818
596.355535	2534.281300
596.706876	2537.986548
597.058162	2537.245498
597.409395	2535.987730
597.760573	2533.777184
598.111698	2534.591331
598.462768	2536.108718
598.813785	2532.456402
599.164748	2533.250384
599.515657	2532.690816
599.866511	2532.610157
600.217312	2535.655014
600.568060	2534.074613
600.918753	2537.311033
601.269392	2533.033614
601.619978	2535.579397
601.970510	2533.941022
602.320988	2535.344983
602.671412	2532.083357
603.021783	2535.261804
603.372100	2532.695857
603.722363	2532.458923
604.072572	2533.915816
604.422728	2534.964376
604.772830	2534.780374
605.122878	2534.719880
605.472872	2535.569315
605.822813	2532.607637
606.172701	2532.690816
606.522534	2535.231557
606.872314	2535.312216
607.222041	2533.578059
607.571714	2533.540250
607.921333	2529.010773
608.270899	2530.288706
608.620411	2529.754344
608.969870	2536.506969
609.319276	2534.961856
609.668627	2532.985723
610.017926	2534.871115
610.367171	2534.795497
610.716362	2536.234747
611.065500	2536.121321
611.414585	2535.400436
611.763616	2534.722401
612.112594	2533.426824
612.461518	2534.588810
612.810389	2535.022349
613.159207	2536.512010
613.507971	2533.709129
613.856682	2535.218954
614.205340	2537.011085
614.553945	2534.034283
614.902496	2533.230219
615.250994	2536.428831
615.599439	2536.854809
615.947830	2535.818852
616.296169	2534.470343
616.644454	2538.034439
616.992686	2535.962525
617.340864	2538.125180
617.688990	2533.121834
618.037063	2535.297092
618.385082	2537.754655
618.733048	2538.997299
619.080961	2534.314067
619.428821	2536.824562
619.776628	2537.164840
620.124382	2537.177443
620.472083	2538.339429
620.819731	2536.436393
621.167326	2534.130065
621.514868	2535.821372
621.862357	2534.828265
622.209793	2535.365148
622.557176	2534.634181
622.904506	2534.437576
623.251783	2534.004036
623.599007	2529.003212
623.946179	2532.012781
624.293297	2533.946063
624.640363	2530.203006
624.987376	2529.338448
625.334336	2526.538088
625.681243	2528.244518
626.028097	2527.546318
626.374899	2531.579241
626.721647	2531.244005
627.068343	2529.209899
627.414987	2529.018335
627.761577	2529.756864
628.108115	2527.561442
628.454600	2527.889117
628.801032	2526.018849
629.147412	2530.848274
629.493739	2526.404497
629.840014	2527.286699
630.186236	2526.538088
630.532405	2525.716379
630.878521	2525.940711
631.224585	2525.481966
631.570597	2526.419620
631.916556	2525.408869
632.262462	2525.451719
632.608316	2526.885927
632.954117	2525.640762
633.299866	2525.928108
633.645562	2525.786956
633.991206	2522.598426
634.336797	2525.083715
634.682336	2522.779907
635.027823	2524.942562
635.373257	2526.676719
635.718639	2520.798734
636.063968	2522.658920
636.409245	2521.532222
636.754470	2523.717562
637.099642	2521.859897
637.444762	2521.239835
637.789829	2522.558097
638.134845	2522.142201
638.479808	2520.526512
638.824719	2521.955679
639.169577	2520.453415
639.514383	2520.771007
639.859137	2519.367046
640.203839	2521.859897
640.548489	2520.309742
640.893086	2519.591377
641.237632	2518.499968
641.582125	2520.221522
641.926566	2519.853518
642.270955	2516.370080
642.615292	2514.673732
642.959576	2517.501819
643.303809	2514.467045
643.647990	2519.362005
643.992118	2517.332941
644.336195	2519.704803
