Dividing Wavelength (nm)	Counts (n)	Blue Motor Position (mm): 0.000000	Red Motor Position (mm): 12.500000	
326.493990	2052.919163
326.888308	2052.919163
327.282561	2052.919163
327.676750	2023.766170
328.070874	2028.885462
328.464933	2032.873015
328.858929	2041.798378
329.252859	2055.200285
329.646726	2064.279403
330.040528	2084.000397
330.434265	2096.613364
330.827938	2120.952055
331.221547	2141.323358
331.615091	2161.974444
332.008571	2181.448422
332.401986	2203.367358
332.795338	2221.419730
333.188625	2240.732391
333.581847	2257.907602
333.975006	2279.660181
334.368100	2296.719445
334.761129	2314.121508
335.154095	2327.780515
335.546996	2343.554285
335.939833	2355.562314
336.332606	2373.944881
336.725315	2381.735984
337.117960	2395.599158
337.510540	2400.849519
337.903056	2411.309913
338.295508	2420.026068
338.687896	2426.047727
339.080220	2431.681216
339.472480	2437.841506
339.864676	2437.433173
340.256807	2443.061621
340.648875	2446.318206
341.040879	2443.837959
341.432818	2447.712085
341.824694	2449.390790
342.216506	2447.974225
342.608253	2446.920624
342.999937	2445.614965
343.391557	2444.904163
343.783113	2443.076744
344.174605	2443.051539
344.566033	2443.172526
344.957397	2441.579522
345.348697	2436.016608
345.739934	2433.586772
346.131106	2436.697164
346.522215	2428.442275
346.913260	2428.835485
347.304241	2430.453695
347.695159	2428.717018
348.086012	2427.809610
348.476802	2426.435896
348.867528	2420.855338
349.258191	2417.356778
349.648789	2417.613876
350.039324	2412.522311
350.429796	2416.560275
350.820203	2417.618918
351.210548	2418.785945
351.600828	2420.499937
351.991045	2417.137487
352.381198	2415.128588
352.771288	2415.078176
353.161314	2417.432395
353.551276	2417.989442
353.941175	2415.138670
354.331010	2416.081366
354.720782	2418.450708
355.110490	2419.232087
355.500135	2417.981881
355.889717	2419.469021
356.279235	2418.203691
356.668689	2419.534556
357.058080	2418.412899
357.447408	2417.553382
357.836672	2419.050605
358.225873	2421.336768
358.615010	2420.575554
359.004084	2420.701583
359.393095	2420.323497
359.782043	2422.917170
360.170927	2423.012952
360.559748	2421.016655
360.948505	2424.621080
361.337199	2425.140319
361.725830	2426.622418
362.114398	2424.464804
362.502903	2423.262489
362.891344	2425.425144
363.279722	2426.955134
363.668037	2426.458581
364.056289	2429.059816
364.444478	2428.676688
364.832603	2428.404466
365.220665	2427.199630
365.608665	2428.553180
365.996601	2430.874632
366.384474	2429.634508
366.772284	2428.767429
367.160031	2426.808941
367.547715	2429.899168
367.935336	2427.562593
368.322893	2429.581576
368.710388	2425.725093
369.097820	2429.959662
369.485189	2429.145516
369.872495	2432.472677
370.259738	2433.485949
370.646918	2435.225147
371.034035	2432.722214
371.421090	2435.625919
371.808081	2438.622885
372.195010	2439.363935
372.581875	2437.292020
372.968678	2440.288986
373.355418	2443.038936
373.742096	2441.808894
374.128710	2443.782506
374.515262	2446.981118
374.901751	2451.891202
375.288177	2453.602674
375.674540	2459.848663
376.060841	2461.426544
376.447079	2466.480301
376.833254	2470.291413
377.219367	2476.618062
377.605417	2483.007724
377.991404	2484.081490
378.377329	2495.212357
378.763191	2499.809890
379.148991	2508.881446
379.534727	2516.475944
379.920402	2526.785104
380.306013	2532.947915
380.691563	2549.651778
381.077049	2557.072356
381.462474	2566.433779
381.847835	2583.137642
382.233134	2595.841350
382.618371	2604.910386
383.003545	2624.318828
383.388657	2637.572022
383.773706	2659.369971
384.158693	2671.012516
384.543618	2686.332582
384.928480	2701.148533
385.313280	2724.242059
385.698017	2744.946078
386.082692	2766.779315
386.467305	2781.338167
386.851856	2805.263484
387.236344	2834.413956
387.620770	2850.946420
388.005133	2867.267155
388.389435	2903.155130
388.773674	2916.615010
389.157851	2950.804116
389.541965	2976.876963
389.926018	2987.672594
390.310008	3025.239273
390.693936	3044.960267
391.077802	3074.985379
391.461606	3105.617950
391.845348	3122.964561
392.229027	3148.124960
392.612645	3189.182637
392.996200	3216.656926
393.379694	3250.679673
393.763125	3294.646096
394.146494	3313.363900
394.529801	3348.682224
394.913047	3387.902401
395.296230	3388.492216
395.679351	3405.826224
396.062410	3446.077317
396.445408	3424.125612
396.828343	3460.172383
397.211217	3483.908656
397.594028	3451.869602
397.976778	3487.455107
398.359466	3510.586442
398.742092	3506.992099
399.124656	3514.135414
399.507158	3556.009758
399.889598	3546.050959
400.271977	3592.666509
400.654294	3569.179773
401.036549	3604.568673
401.418742	3588.568051
401.800874	3631.130513
402.182944	3638.782984
402.564952	3690.061601
402.946898	3660.621262
403.328783	3639.319867
403.710606	3657.372239
404.092367	3689.653267
404.474067	3712.235116
404.855705	3675.694312
405.237282	3635.894403
405.618797	3675.482584
406.000250	3703.723128
406.381642	3735.888210
406.762972	3706.331925
407.144240	3654.718071
407.525447	3663.585461
407.906593	3647.282369
408.287677	3667.953621
408.668700	3651.010303
409.049661	3643.546874
409.430560	3628.657827
409.811399	3585.641661
410.192176	3579.335177
410.572891	3588.489913
410.953545	3605.513889
411.334138	3519.400899
411.714669	3533.241387
412.095139	3460.406796
412.475547	3475.946153
412.855894	3445.018674
413.236180	3445.913479
413.616405	3382.573902
413.996568	3384.310579
414.376670	3351.767410
414.756711	3312.882470
415.136691	3303.238743
415.516609	3295.850932
415.896466	3270.869494
416.276262	3257.954058
416.655997	3255.241917
417.035670	3242.477716
417.415283	3244.098447
417.794834	3225.904922
418.174324	3179.359949
418.553753	3147.341060
418.933121	3143.295534
419.312428	3115.302007
419.691674	3065.374419
420.070859	3069.535892
420.449983	3015.807274
420.829045	3021.057636
421.208047	2979.037098
421.586988	2969.411015
421.965867	2952.634055
422.344686	2930.122782
422.723444	2922.908891
423.102141	2851.652181
423.480777	2870.604399
423.859352	2827.931032
424.237866	2833.703153
424.616319	2812.701706
424.994712	2798.715025
425.373044	2770.371137
425.751314	2768.165632
426.129524	2725.280537
426.507673	2727.377657
426.885762	2707.918803
427.263789	2695.948583
427.641756	2683.532221
428.019662	2670.447906
428.397508	2654.593477
428.775292	2640.735346
429.153016	2631.769653
429.530679	2618.269443
429.908282	2608.300562
430.285824	2592.131061
430.663305	2588.299784
431.040726	2577.352918
431.418086	2567.144582
431.795385	2562.915054
432.172624	2560.026473
432.549802	2549.213197
432.926920	2542.006868
433.303977	2534.976979
433.680974	2529.978675
434.057910	2529.093953
434.434786	2522.991636
434.811601	2519.419978
435.188355	2520.148425
435.565050	2515.538290
435.941683	2511.591066
436.318257	2511.417147
436.694770	2510.108967
437.071222	2507.568226
437.447614	2504.634274
437.823946	2502.078409
438.200218	2501.138234
438.576429	2498.965497
438.952580	2501.385250
439.328670	2499.323418
439.704700	2499.215034
440.080670	2497.642194
440.456580	2496.969200
440.832429	2494.826709
441.208218	2494.925012
441.583947	2495.492142
441.959616	2494.390649
442.335224	2493.468118
442.710773	2493.049702
443.086261	2492.031389
443.461689	2490.151039
443.837057	2491.497027
444.212365	2492.543067
444.587612	2492.341420
444.962800	2487.678353
445.337927	2487.748929
445.712995	2484.036119
446.088002	2491.761688
446.462949	2487.055771
446.837837	2490.201451
447.212664	2491.491986
447.587431	2496.586072
447.962139	2499.209992
448.336786	2498.937770
448.711374	2500.432472
449.085901	2493.775629
449.460369	2490.219095
449.834776	2493.027017
450.209124	2496.825527
450.583412	2495.673623
450.957640	2493.700011
451.331808	2493.304281
451.705917	2489.997284
452.079965	2491.867552
452.453954	2492.933756
452.827883	2494.042810
453.201752	2494.073057
453.575562	2489.120123
453.949311	2493.826040
454.323001	2492.351503
454.696632	2492.716986
455.070202	2494.549446
455.443713	2495.464415
455.817164	2493.311842
456.190556	2499.162102
456.563888	2499.278048
456.937160	2499.393995
457.310373	2495.260248
457.683526	2490.594661
458.056619	2495.663541
458.429653	2493.400063
458.802628	2494.347800
459.175542	2494.133551
459.548398	2499.199910
459.921194	2497.064982
460.293930	2498.741165
460.666607	2503.777278
461.039224	2507.689213
461.411782	2506.141579
461.784280	2506.393637
462.156719	2504.651918
462.529099	2503.893224
462.901419	2504.346928
463.273680	2501.125631
463.645882	2498.030363
464.018024	2498.657986
464.390106	2497.180928
464.762130	2504.775426
465.134094	2509.720798
465.505999	2516.271778
465.877845	2523.730165
466.249631	2524.060360
466.621358	2522.079187
466.993026	2521.617921
467.364634	2521.103724
467.736184	2515.064421
468.107674	2513.912518
468.479105	2517.900070
468.850477	2512.178361
469.221790	2511.555778
469.593043	2509.239368
469.964238	2508.851199
470.335373	2511.021416
470.706449	2512.647188
471.077467	2512.006962
471.448425	2519.858559
471.819324	2523.616739
472.190164	2519.208250
472.560945	2519.954341
472.931667	2513.680625
473.302330	2511.228103
473.672934	2510.101405
474.043479	2512.823628
474.413965	2510.411436
474.784393	2510.958402
475.154761	2511.230624
475.525070	2513.446211
475.895321	2512.861437
476.265513	2510.295490
476.635645	2514.625841
477.005719	2514.978722
477.375734	2512.760614
477.745691	2514.698938
478.115588	2516.533918
478.485427	2521.060874
478.855207	2522.704290
479.224928	2526.354085
479.594591	2528.728469
479.964194	2527.654703
480.333739	2529.255269
480.703226	2531.244005
481.072653	2533.184849
481.442022	2530.719725
481.811333	2529.613191
482.180584	2528.804086
482.549777	2530.744930
482.918912	2524.488858
483.287988	2530.679395
483.657005	2530.412214
484.025964	2528.332738
484.394864	2531.569159
484.763706	2528.390712
485.132489	2529.111597
485.501213	2527.689991
485.869879	2528.867101
486.238487	2526.775022
486.607036	2528.902389
486.975527	2528.063037
487.343959	2527.745444
487.712333	2531.017153
488.080648	2527.962213
488.448905	2531.876669
488.817104	2530.301309
489.185244	2528.486493
489.553326	2531.851464
489.921350	2537.668955
490.289315	2541.901004
490.657222	2546.412837
491.025070	2544.020809
491.392861	2543.584749
491.760593	2542.107691
492.128267	2541.878319
492.495883	2536.575025
492.863440	2536.118800
493.230939	2534.281300
493.598380	2535.380271
493.965763	2533.731814
494.333088	2531.775846
494.700354	2529.920702
495.067563	2530.082019
495.434713	2531.740558
495.801805	2529.744261
496.168839	2530.815507
496.535815	2530.384488
496.902733	2529.771988
497.269593	2531.349869
497.636395	2527.382481
498.003139	2530.187883
498.369825	2528.587317
498.736453	2530.661751
499.103023	2528.415917
499.469535	2529.736700
499.835989	2525.764270
500.202385	2530.402132
500.568723	2528.262162
500.935003	2530.059333
501.301226	2524.730834
501.667390	2530.024045
502.033497	2532.653007
502.399546	2533.154602
502.765537	2530.891124
503.131470	2530.921371
503.497345	2532.660569
503.863163	2533.078985
504.228923	2533.726773
504.594625	2532.811803
504.960269	2532.900024
505.325856	2530.008922
505.691385	2531.307019
506.056856	2532.320291
506.422270	2532.746268
506.787625	2529.855167
507.152924	2531.065044
507.518164	2528.486493
507.883347	2531.891793
508.248472	2532.494211
508.613540	2531.140661
508.978550	2534.399767
509.343503	2531.899355
509.708398	2532.854653
510.073236	2529.225022
510.438016	2530.623943
510.802738	2528.259642
511.167403	2534.185518
511.532010	2528.299971
511.896561	2535.433203
512.261053	2532.058151
512.625488	2533.149561
512.989866	2529.557739
513.354186	2531.654859
513.718449	2531.806093
514.082655	2533.421783
514.446803	2531.299457
514.810894	2531.425486
515.174927	2528.995650
515.538904	2531.894313
515.902822	2530.734848
516.266684	2530.349200
516.630488	2533.570497
516.994235	2532.083357
517.357925	2529.958510
517.721558	2530.044210
518.085133	2531.165867
518.448651	2528.768798
518.812112	2526.013807
519.175516	2527.533715
519.538863	2526.132275
519.902152	2530.457585
520.265385	2530.472708
520.628560	2531.974972
520.991678	2532.310209
521.354739	2531.738038
521.717743	2531.806093
522.080690	2529.477080
522.443580	2533.681403
522.806413	2531.140661
523.169189	2533.139478
523.531908	2531.985054
523.894569	2531.536392
524.257174	2530.954138
524.619722	2531.821217
524.982213	2533.630991
525.344647	2532.345497
525.707025	2531.690147
526.069345	2531.052441
526.431608	2532.075795
526.793815	2529.708973
527.155964	2530.147554
527.518057	2530.820548
527.880093	2529.850126
528.242072	2529.570342
528.603995	2531.496062
528.965860	2531.357431
529.327669	2527.689991
529.689421	2528.695701
530.051117	2533.053779
530.412755	2531.891793
530.774337	2529.731658
531.135862	2527.485824
531.497331	2528.857018
531.858743	2528.978006
532.220098	2530.419776
532.581396	2524.955165
532.942638	2529.648479
533.303824	2528.859539
533.664953	2526.333921
534.026025	2526.452388
534.387040	2526.391894
534.747999	2526.974147
535.108902	2526.916174
535.469748	2529.973634
535.830537	2528.214271
536.191270	2530.394570
536.551947	2523.843591
536.912567	2522.149763
537.273131	2527.190917
537.633638	2521.108765
537.994089	2525.565145
538.354483	2526.064219
538.714821	2527.385001
539.075103	2525.373581
539.435328	2527.105217
539.795497	2526.336441
540.155609	2527.881555
540.515665	2525.315608
540.875665	2526.782583
541.235609	2526.568334
541.595496	2527.233767
541.955328	2530.472708
542.315102	2527.511030
542.674821	2526.021369
543.034483	2524.650175
543.394090	2525.650844
543.753640	2526.701925
544.113134	2524.589682
544.472571	2525.224867
544.831953	2526.349044
545.191278	2524.491379
545.550548	2523.871317
545.909761	2526.245701
546.268918	2524.521626
546.628019	2524.413241
546.987064	2524.035155
547.346053	2521.149094
547.704986	2524.761081
548.063863	2526.220495
548.422684	2523.672192
548.781449	2523.135309
549.140158	2526.265865
549.498811	2525.953314
549.857408	2523.672192
550.215949	2524.977850
550.574434	2525.534898
550.932864	2524.574558
551.291237	2524.735875
551.649555	2525.436595
552.007817	2526.696884
552.366022	2525.555063
552.724173	2523.682274
553.082267	2524.501461
553.440305	2527.395084
553.798288	2523.170597
554.156215	2523.541122
554.514086	2521.184382
554.871902	2520.831501
555.229661	2525.507172
555.587365	2523.248735
555.945014	2523.140350
556.302606	2525.499610
556.660143	2526.538088
557.017625	2524.186389
557.375050	2524.314939
557.732421	2523.548683
558.089735	2527.077491
558.446994	2524.372912
558.804197	2527.231246
559.161345	2524.120854
559.518437	2525.721421
559.875474	2525.134126
560.232455	2525.222346
560.589381	2525.239990
560.946251	2528.105886
561.303065	2524.398118
561.659825	2523.170597
562.016528	2525.005577
562.373177	2524.524147
562.729770	2524.040196
563.086307	2524.781245
563.442789	2523.210926
563.799216	2523.808303
564.155587	2524.440968
564.511904	2526.512882
564.868164	2523.740247
565.224370	2520.980215
565.580520	2524.745957
565.936615	2526.422141
566.292654	2524.108251
566.648638	2524.894671
567.004567	2523.795700
567.360441	2524.108251
567.716260	2520.249248
568.072023	2523.891482
568.427732	2526.396935
568.783385	2524.133457
569.138982	2522.711852
569.494525	2526.154960
569.850013	2524.060360
570.205445	2526.873324
570.560823	2523.951976
570.916145	2524.042716
571.271412	2523.200844
571.626625	2525.562624
571.981782	2526.684281
572.336884	2523.369722
572.691931	2520.498785
573.046923	2521.461646
573.401860	2518.326048
573.756743	2522.890813
574.111570	2525.277799
574.466342	2523.150432
574.821059	2524.614887
575.175722	2525.300484
575.530330	2523.130267
575.884882	2524.942562
576.239380	2523.939373
576.593823	2523.634383
576.948211	2521.716224
577.302544	2523.031965
577.656823	2522.409383
578.011047	2519.122550
578.365216	2520.632376
578.719330	2522.510206
579.073389	2523.155473
579.427394	2520.256810
579.781344	2521.333096
580.135239	2520.513909
580.489080	2519.924094
580.842866	2522.321162
581.196597	2519.949299
581.550273	2523.558766
581.903895	2519.523322
582.257463	2521.317973
582.610975	2521.474248
582.964434	2521.633045
583.317837	2520.143384
583.671186	2521.323014
584.024481	2520.551717
584.377721	2522.452232
584.730906	2520.345030
585.084037	2519.321676
585.437113	2521.383508
585.790135	2519.293949
586.143103	2519.654392
586.496016	2519.074659
586.848874	2518.983918
587.201679	2519.072139
587.554428	2520.176151
587.907124	2519.351923
588.259765	2518.333610
588.612352	2520.198837
588.964884	2517.703465
589.317362	2518.797396
589.669786	2518.701614
590.022155	2520.846625
590.374470	2518.200019
590.726731	2517.700945
591.078937	2516.009638
591.431090	2519.346882
591.783188	2517.524504
592.135232	2517.340502
592.487222	2517.532066
592.839157	2519.296470
593.191038	2517.597601
593.542866	2515.170286
593.894639	2518.999042
594.246358	2521.207067
594.598022	2515.775224
594.949633	2518.230266
595.301190	2515.911335
595.652692	2518.767149
596.004141	2515.155162
596.355535	2516.193640
596.706876	2515.429905
597.058162	2518.217663
597.409395	2516.589370
597.760573	2517.650533
598.111698	2515.024092
598.462768	2513.400841
598.813785	2515.659278
599.164748	2513.668022
599.515657	2514.134328
599.866511	2515.001407
600.217312	2514.482168
600.568060	2515.765142
600.918753	2518.555420
601.269392	2513.688186
601.619978	2514.134328
601.970510	2514.623320
602.320988	2513.862106
602.671412	2514.766993
603.021783	2512.800943
603.372100	2514.903104
603.722363	2515.999555
604.072572	2516.312107
604.422728	2513.917559
604.772830	2513.632734
605.122878	2515.523166
605.472872	2517.035513
605.822813	2516.128105
606.172701	2513.794051
606.522534	2514.441839
606.872314	2515.530728
607.222041	2514.222549
607.571714	2513.410923
607.921333	2511.273474
608.270899	2513.441170
608.620411	2511.790192
608.969870	2516.738084
609.319276	2515.402179
609.668627	2516.826305
610.017926	2517.035513
610.367171	2515.729854
610.716362	2513.683145
611.065500	2514.640964
611.414585	2517.615245
611.763616	2517.126253
612.112594	2515.528207
612.461518	2514.398989
612.810389	2517.816891
613.159207	2518.366377
613.507971	2514.109123
613.856682	2518.202540
614.205340	2516.591891
614.553945	2518.593229
614.902496	2517.093486
615.250994	2513.950326
615.599439	2516.990142
615.947830	2518.016017
616.296169	2516.133146
616.644454	2517.753877
616.992686	2514.814884
617.340864	2516.700276
617.688990	2515.460152
618.037063	2517.199350
618.385082	2516.133146
618.733048	2517.648013
619.080961	2515.934020
619.428821	2515.923938
619.776628	2519.230935
620.124382	2516.881757
620.472083	2512.737929
620.819731	2519.155318
621.167326	2514.736746
621.514868	2514.424195
621.862357	2516.624658
622.209793	2517.494258
622.557176	2514.517456
622.904506	2515.132477
623.251783	2515.495440
623.599007	2514.991325
623.946179	2515.737415
624.293297	2516.667508
624.640363	2515.737415
624.987376	2510.965963
625.334336	2510.817249
625.681243	2510.514780
626.028097	2509.156189
626.374899	2513.599966
626.721647	2512.460665
627.068343	2513.829339
627.414987	2514.890502
627.761577	2512.359842
628.108115	2511.422188
628.454600	2511.376817
628.801032	2511.596108
629.147412	2511.409585
629.493739	2510.847496
629.840014	2510.439163
630.186236	2510.749194
630.532405	2511.356653
630.878521	2509.625016
631.224585	2510.434122
631.570597	2509.304903
631.916556	2511.918741
632.262462	2508.014368
632.608316	2511.212980
632.954117	2507.835407
633.299866	2510.787002
633.645562	2511.951509
633.991206	2508.397495
634.336797	2509.728360
634.682336	2510.938237
635.027823	2510.020747
635.373257	2509.582167
635.718639	2509.594769
636.063968	2511.155007
636.409245	2509.075531
636.754470	2507.230468
637.099642	2507.837927
637.444762	2507.114522
637.789829	2508.594100
638.134845	2507.500170
638.479808	2505.350118
638.824719	2508.324399
639.169577	2508.362207
639.514383	2507.293483
639.859137	2505.256857
640.203839	2505.279542
640.548489	2505.604696
640.893086	2505.186280
641.237632	2507.679131
641.582125	2506.842299
641.926566	2505.589573
642.270955	2503.119407
642.615292	2500.820641
642.959576	2504.268790
643.303809	2498.841988
643.647990	2503.810045
643.992118	2502.713594
644.336195	2506.073523
