Dividing Wavelength (nm)	Counts (n)	Blue Motor Position (mm): 0.000000	Red Motor Position (mm): 30.000000	
326.493990	2051.588298
326.888308	2051.588298
327.282561	2051.588298
327.676750	2025.601150
328.070874	2026.574093
328.464933	2033.609023
328.858929	2041.435415
329.252859	2051.699204
329.646726	2063.288817
330.040528	2081.999059
330.434265	2097.477922
330.827938	2120.238732
331.221547	2140.776392
331.615091	2161.397232
332.008571	2178.708554
332.401986	2199.914168
332.795338	2221.144988
333.188625	2238.615106
333.581847	2259.596388
333.975006	2274.417381
334.368100	2294.370268
334.761129	2310.121353
335.154095	2324.564259
335.546996	2344.688545
335.939833	2369.100332
336.332606	2380.458052
336.725315	2393.756616
337.117960	2405.764644
337.510540	2414.737898
337.903056	2424.235432
338.295508	2431.653490
338.687896	2439.048862
339.080220	2442.464244
339.472480	2447.550768
339.864676	2449.710903
340.256807	2452.181068
340.648875	2459.722634
341.040879	2457.945628
341.432818	2459.336986
341.824694	2459.158025
342.216506	2457.925463
342.608253	2459.596606
342.999937	2456.836574
343.391557	2459.959569
343.783113	2458.860597
344.174605	2454.000925
344.566033	2453.718620
344.957397	2454.011007
345.348697	2453.436316
345.739934	2450.857765
346.131106	2449.829370
346.522215	2445.851900
346.913260	2443.132197
347.304241	2442.925510
347.695159	2439.671445
348.086012	2440.667073
348.476802	2437.720518
348.867528	2436.487956
349.258191	2431.371185
349.648789	2431.235074
350.039324	2429.591658
350.429796	2432.881011
350.820203	2430.935125
351.210548	2431.421597
351.600828	2429.637028
351.991045	2427.968406
352.381198	2429.478232
352.771288	2429.959662
353.161314	2428.197779
353.551276	2430.068047
353.941175	2429.306833
354.331010	2430.398242
354.720782	2432.061823
355.110490	2431.068716
355.500135	2434.995775
355.889717	2430.942687
356.279235	2433.168357
356.668689	2432.296237
357.058080	2433.806063
357.447408	2432.591144
357.836672	2431.872780
358.225873	2435.222627
358.615010	2432.381937
359.004084	2436.155240
359.393095	2434.824376
359.782043	2436.752617
360.170927	2434.133737
360.559748	2436.019129
360.948505	2436.845878
361.337199	2436.782864
361.725830	2439.588266
362.114398	2437.276897
362.502903	2440.893925
362.891344	2442.194542
363.279722	2441.453493
363.668037	2442.139090
364.056289	2438.728749
364.444478	2443.820315
364.832603	2444.952054
365.220665	2445.436004
365.608665	2444.243772
365.996601	2443.369131
366.384474	2445.125973
366.772284	2447.379369
367.160031	2444.296704
367.547715	2448.259051
367.935336	2448.846345
368.322893	2443.926179
368.710388	2442.660849
369.097820	2446.376180
369.485189	2443.369131
369.872495	2449.347940
370.259738	2448.226283
370.646918	2450.356171
371.034035	2450.819957
371.421090	2453.020420
371.808081	2453.552262
372.195010	2454.084104
372.581875	2454.005966
372.968678	2457.983436
373.355418	2459.488221
373.742096	2461.487038
374.128710	2462.689353
374.515262	2466.263532
374.901751	2465.706484
375.288177	2473.553040
375.674540	2474.042032
376.060841	2476.610500
376.447079	2483.181644
376.833254	2487.892602
377.219367	2491.754126
377.605417	2498.945332
377.991404	2503.721825
378.377329	2510.108967
378.763191	2517.259844
379.148991	2526.026410
379.534727	2532.232071
379.920402	2544.477033
380.306013	2554.781152
380.691563	2563.681309
381.077049	2573.718246
381.462474	2585.128898
381.847835	2598.659355
382.233134	2613.127467
382.618371	2624.512912
383.003545	2640.132928
383.388657	2655.684887
383.773706	2673.399502
384.158693	2688.916173
384.543618	2708.642208
384.928480	2719.011862
385.313280	2741.376941
385.698017	2760.692122
386.082692	2784.617438
386.467305	2798.460447
386.851856	2825.284426
387.236344	2852.904908
387.620770	2866.906713
388.005133	2888.402193
388.389435	2919.795978
388.773674	2934.823658
389.157851	2969.221971
389.541965	2994.518481
389.926018	3003.383350
390.310008	3039.495656
390.693936	3065.376940
391.077802	3093.551949
391.461606	3124.381125
391.845348	3141.793270
392.229027	3169.345697
392.612645	3213.428067
392.996200	3241.169536
393.379694	3279.527676
393.763125	3321.497802
394.146494	3345.879343
394.529801	3383.325033
394.913047	3426.121909
395.296230	3434.608692
395.679351	3458.594502
396.062410	3509.346318
396.445408	3490.366374
396.828343	3528.842980
397.211217	3561.068556
397.594028	3538.693395
397.976778	3585.780293
398.359466	3617.768934
398.742092	3630.286119
399.124656	3640.701143
399.507158	3702.614074
399.889598	3708.986093
400.271977	3772.998664
400.654294	3760.680605
401.036549	3819.868792
401.418742	3820.861899
401.800874	3885.698699
402.182944	3916.343874
402.564952	4000.185824
402.946898	3994.857324
403.328783	3988.767610
403.710606	4041.407339
404.092367	4112.422073
404.474067	4174.408101
404.855705	4156.907735
405.237282	4131.659116
405.618797	4226.967171
406.000250	4309.054799
406.381642	4390.696286
406.762972	4392.148138
407.144240	4356.111450
407.525447	4423.524280
407.906593	4441.632104
408.287677	4520.269063
408.668700	4548.781829
409.049661	4586.101491
409.430560	4623.703458
409.811399	4605.479687
410.192176	4659.566226
410.572891	4739.166046
410.953545	4844.972303
411.334138	4747.660390
411.714669	4852.657542
412.095139	4768.104789
412.475547	4880.809866
412.855894	4882.599475
413.236180	4983.641843
413.616405	4910.456892
413.996568	5012.923385
414.376670	5016.598386
414.756711	5008.167056
415.136691	5082.594651
415.516609	5169.967930
415.896466	5204.552766
416.276262	5283.633346
416.655997	5392.544954
417.035670	5487.074151
417.415283	5630.852900
417.794834	5702.674218
418.174324	5661.472868
418.553753	5664.220297
418.933121	5827.876315
419.312428	5841.530281
419.691674	5767.019506
420.070859	6000.520711
420.449983	5871.391555
420.829045	6073.781279
421.208047	5997.710268
421.586988	6153.895296
421.965867	6221.666048
422.344686	6308.923380
422.723444	6476.146015
423.102141	6089.565132
423.480777	6482.084494
423.859352	6299.952647
424.237866	6661.494118
424.616319	6657.743500
424.994712	6825.051834
425.373044	6735.344502
425.751314	7051.092132
426.129524	6770.367918
426.507673	7039.220214
426.885762	7085.336690
427.263789	7124.970241
427.641756	7209.482665
428.019662	7291.403935
428.397508	7329.116807
428.775292	7312.453273
429.153016	7483.045919
429.530679	7414.496309
429.908282	7459.690254
430.285824	7410.060094
430.663305	7690.010491
431.040726	7568.425422
431.418086	7577.870023
431.795385	7713.225004
432.172624	7900.334991
432.549802	7783.365098
432.926920	7919.123371
433.303977	7859.191614
433.680974	7899.354486
434.057910	8107.876774
434.434786	8162.598499
434.811601	8117.679298
435.188355	8453.964588
435.565050	8337.818924
435.941683	8347.361829
436.318257	8684.854476
436.694770	8636.998802
437.071222	8868.438175
437.447614	8641.498032
437.823946	8605.811704
438.200218	8757.003470
438.576429	8640.578022
438.952580	8803.432497
439.328670	8814.762490
439.704700	8892.968430
440.080670	8777.747818
440.456580	9056.004387
440.832429	9022.846197
441.208218	8761.911033
441.583947	8882.641626
441.959616	9003.851129
442.335224	9032.963793
442.710773	9116.054611
443.086261	9294.085480
443.461689	9004.561932
443.837057	9177.082820
444.212365	9393.658351
444.587612	9376.813335
444.962800	9277.747100
445.337927	9401.618333
445.712995	8947.465824
446.088002	9618.796281
446.462949	9675.300054
446.837837	9666.470473
447.212664	9685.430253
447.587431	10510.344504
447.962139	11513.919767
448.336786	12457.487656
448.711374	12251.392684
449.085901	11040.381501
449.460369	10961.487444
449.834776	10733.511343
450.209124	11648.523616
450.583412	11468.095679
450.957640	11786.734411
451.331808	11380.414890
451.705917	10802.910388
452.079965	10680.692654
452.453954	10886.109591
452.827883	10828.789151
453.201752	10796.097268
453.575562	10806.313167
453.949311	11146.094498
454.323001	11210.880886
454.696632	11134.464556
455.070202	11717.980634
455.443713	11775.595981
455.817164	11940.928183
456.190556	12263.698141
456.563888	12134.921866
456.937160	12389.401832
457.310373	11881.321580
457.683526	11888.732076
458.056619	11910.426682
458.429653	11979.412352
458.802628	12119.828651
459.175542	12161.869353
459.548398	12704.116026
459.921194	13283.470632
460.293930	13554.989698
460.666607	14412.200101
461.039224	15217.703389
461.411782	15571.108438
461.784280	15244.000568
462.156719	15204.094794
462.529099	15115.796464
462.901419	14466.490808
463.273680	14064.962904
463.645882	14276.300676
464.018024	14162.002595
464.390106	14519.221277
464.762130	15573.220682
465.134094	17077.606854
465.505999	19340.598459
465.877845	21618.343002
466.249631	22889.001117
466.621358	22447.824538
466.993026	21659.015031
467.364634	20902.690719
467.736184	20104.623133
468.107674	19480.331682
468.479105	19327.050358
468.850477	19050.550632
469.221790	18617.830588
469.593043	17931.878264
469.964238	17538.844704
470.335373	17593.160616
470.706449	18298.410478
471.077467	19123.337331
471.448425	21560.286553
471.819324	23411.176435
472.190164	23333.330937
472.560945	21594.926842
472.931667	20019.296563
473.302330	19663.854888
473.672934	19096.962014
474.043479	19506.459983
474.413965	19276.391803
474.784393	19064.645698
475.154761	19712.771724
475.525070	19816.417847
475.895321	19625.582448
476.265513	20131.885693
476.635645	20687.219201
477.005719	20718.242462
477.375734	21046.424098
477.745691	21636.534005
478.115588	22218.608313
478.485427	23334.659281
478.855207	25045.395003
479.224928	26741.907110
479.594591	28080.971162
479.964194	27711.678917
480.333739	28123.241237
480.703226	28291.613255
481.072653	28622.925448
481.442022	29068.649147
481.811333	29401.791279
482.180584	28925.702189
482.549777	28639.904054
482.918912	28331.937445
483.287988	28198.488020
483.657005	27993.519746
484.025964	27568.046361
484.394864	27672.221806
484.763706	27521.178754
485.132489	26929.576665
485.501213	26914.289366
485.869879	26988.023803
486.238487	26828.836767
486.607036	26975.693140
486.975527	26581.134632
487.343959	26806.464126
487.712333	27025.812292
488.080648	26884.400365
488.448905	27157.207446
488.817104	26932.981964
489.185244	27551.864258
489.553326	28245.201872
489.921350	29750.097201
490.289315	31810.749494
490.657222	32454.020889
491.025070	32827.126768
491.392861	32443.633592
491.760593	31610.557713
492.128267	30604.698807
492.495883	29603.979357
492.863440	28663.385748
493.230939	27651.895873
493.598380	27003.575762
493.965763	26693.869955
494.333088	26103.712157
494.700354	25778.124194
495.067563	25561.828448
495.434713	25272.146103
495.801805	25327.356820
496.168839	25006.194991
496.535815	24699.314751
496.902733	24597.425470
497.269593	24264.878195
497.636395	24187.877090
498.003139	24196.346229
498.369825	23797.817811
498.736453	23908.796293
499.103023	23564.828283
499.469535	23421.772940
499.835989	23285.591210
500.202385	22972.628818
500.568723	22780.699488
500.935003	22765.979319
501.301226	22449.777985
501.667390	22719.285631
502.033497	22643.539774
502.399546	22277.574690
502.765537	21771.641969
503.131470	21853.916121
503.497345	21879.099205
503.863163	20968.056841
504.228923	21212.436856
504.594625	21211.421063
504.960269	20642.786471
505.325856	20798.666510
505.691385	20355.894406
506.056856	20296.602875
506.422270	20331.903554
506.787625	19805.173554
507.152924	19803.323450
507.518164	19635.596700
507.883347	19156.014091
508.248472	18981.754005
508.613540	19091.338607
508.978550	18949.223439
509.343503	18605.933465
509.708398	18532.579636
510.073236	18561.099963
510.438016	18341.706428
510.802738	17907.733658
511.167403	17911.615346
511.532010	17767.715609
511.896561	17756.531810
512.261053	17828.728694
512.625488	17453.424873
512.989866	17153.675345
513.354186	16907.432623
513.718449	16651.291596
514.082655	16749.901607
514.446803	16373.811365
514.810894	16352.867892
515.174927	16103.066116
515.538904	15860.294229
515.902822	15837.293964
516.266684	15476.375075
516.630488	15358.656571
516.994235	15107.816317
517.357925	15066.085646
517.721558	14908.363066
518.085133	14791.935097
518.448651	14610.589670
518.812112	14347.360780
519.175516	14155.673426
519.538863	14061.976020
519.902152	13856.521274
520.265385	13783.467393
520.628560	13555.536663
520.991678	13322.030417
521.354739	13161.257939
521.717743	13027.511086
522.080690	12777.482458
522.443580	12735.003175
522.806413	12527.894931
523.169189	12340.220335
523.531908	12178.580778
523.894569	11935.415682
524.257174	11776.256372
524.619722	11663.831080
524.982213	11495.920328
525.344647	11306.809003
525.707025	11136.980091
526.069345	11038.208764
526.431608	10836.305511
526.793815	10720.434590
527.155964	10447.360328
527.518057	10318.541203
527.880093	10112.274831
528.242072	10052.673269
528.603995	9826.499382
528.965860	9650.631168
529.327669	9518.242906
529.689421	9365.480821
530.051117	9202.250780
530.412755	9083.745856
530.774337	8940.393085
531.135862	8781.818549
531.497331	8653.488417
531.858743	8501.989141
532.220098	8412.178464
532.581396	8234.092143
532.942638	8057.329124
533.303824	7957.587375
533.664953	7826.703898
534.026025	7655.350037
534.387040	7596.426511
534.747999	7469.714588
535.108902	7384.050261
535.469748	7195.478339
535.830537	7105.768486
536.191270	7011.060329
536.551947	6870.129832
536.912567	6781.647500
537.273131	6687.970258
537.633638	6547.838784
537.994089	6458.126410
538.354483	6333.912380
538.714821	6291.004599
539.075103	6215.929215
539.435328	6103.461073
539.795497	5989.919165
540.155609	5905.794910
540.515665	5859.411253
540.875665	5716.698708
541.235609	5646.203213
541.595496	5570.139763
541.955328	5523.962794
542.315102	5404.225308
542.674821	5315.926978
543.034483	5228.588987
543.394090	5149.765506
543.753640	5077.455195
544.113134	5069.207867
544.472571	4943.569711
544.831953	4933.021096
545.191278	4825.374818
545.550548	4739.269389
545.909761	4710.464236
546.268918	4649.463754
546.628019	4602.797793
546.987064	4523.644116
547.346053	4427.534518
547.704986	4413.739400
548.063863	4340.839274
548.422684	4295.282367
548.781449	4222.722519
549.140158	4190.174309
549.498811	4134.159528
549.857408	4063.767377
550.215949	4044.001012
550.574434	3993.004700
550.932864	3945.834624
551.291237	3926.708486
551.649555	3879.167885
552.007817	3840.381247
552.366022	3792.951551
552.724173	3759.591715
553.082267	3731.101634
553.440305	3705.023746
553.798288	3652.109274
554.156215	3626.903505
554.514086	3598.403342
554.871902	3556.644944
555.229661	3533.911861
555.587365	3494.835357
555.945014	3472.707212
556.302606	3447.209056
556.660143	3427.094852
557.017625	3406.317736
557.375050	3374.440000
557.732421	3361.665716
558.089735	3337.258970
558.446994	3314.853561
558.804197	3303.659679
559.161345	3282.678397
559.518437	3253.144797
559.875474	3237.497056
560.232455	3222.981053
560.589381	3208.654094
560.946251	3184.670804
561.303065	3183.947399
561.659825	3167.069616
562.016528	3144.956594
562.373177	3127.456229
562.729770	3123.483800
563.086307	3103.614092
563.442789	3101.295161
563.799216	3089.624890
564.155587	3077.342118
564.511904	3065.724779
564.868164	3054.135167
565.224370	3048.521842
565.580520	3035.036755
565.936615	3032.198586
566.292654	3020.291380
566.648638	3014.274763
567.004567	3006.145903
567.360441	3000.172135
567.716260	2988.453973
568.072023	2988.910198
568.427732	2980.841831
568.783385	2965.534367
569.138982	2966.300623
569.494525	2960.140333
569.850013	2954.705969
570.205445	2948.097016
570.560823	2939.426232
570.916145	2931.763678
571.271412	2930.526074
571.626625	2920.912594
571.981782	2916.355391
572.336884	2906.159657
572.691931	2906.512538
573.046923	2901.557084
573.401860	2888.331617
573.756743	2890.610218
574.111570	2886.393293
574.466342	2882.105792
574.821059	2879.643188
575.175722	2873.911396
575.530330	2869.570963
575.884882	2864.257587
576.239380	2856.239631
576.593823	2855.609487
576.948211	2852.436081
577.302544	2843.994669
577.656823	2840.019719
578.011047	2839.636591
578.365216	2836.485870
578.719330	2827.003460
579.073389	2826.461536
579.427394	2824.011535
579.781344	2821.858962
580.135239	2817.831080
580.489080	2813.662046
580.842866	2806.574184
581.196597	2808.681386
581.550273	2806.730459
581.903895	2804.741724
582.257463	2803.168884
582.610975	2797.031279
582.964434	2797.003553
583.317837	2793.305867
583.671186	2789.088942
584.024481	2787.705145
584.377721	2784.554424
584.730906	2783.770524
585.084037	2778.754576
585.437113	2780.178702
585.790135	2774.484719
586.143103	2771.568411
586.496016	2770.769388
586.848874	2768.442896
587.201679	2769.017587
587.554428	2764.399891
587.907124	2763.736979
588.259765	2758.242121
588.612352	2760.233377
588.964884	2753.478231
589.317362	2756.709610
589.669786	2753.163159
590.022155	2750.380442
590.374470	2747.418764
590.726731	2745.639237
591.078937	2738.170767
591.431090	2742.128073
591.783188	2738.982393
592.135232	2738.541292
592.487222	2735.672875
592.839157	2735.700602
593.191038	2731.150960
593.542866	2729.522668
593.894639	2726.999570
594.246358	2726.394632
594.598022	2725.940928
594.949633	2721.875237
595.301190	2721.217367
595.652692	2719.362222
596.004141	2722.371791
596.355535	2717.093703
596.706876	2711.555995
597.058162	2708.294369
597.409395	2712.576829
597.760573	2711.835779
598.111698	2710.754452
598.462768	2709.032898
598.813785	2705.834286
599.164748	2706.557691
599.515657	2704.521065
599.866511	2704.122814
600.217312	2702.434027
600.568060	2696.629139
600.918753	2704.090047
601.269392	2701.831610
601.619978	2697.632328
601.970510	2698.753985
602.320988	2697.458409
602.671412	2700.639377
603.021783	2697.637370
603.372100	2696.442616
603.722363	2695.149560
604.072572	2696.377081
604.422728	2694.106041
604.772830	2693.561597
605.122878	2691.184693
605.472872	2690.854497
605.822813	2692.066895
606.172701	2689.077490
606.522534	2689.528674
606.872314	2693.813654
607.222041	2691.119158
607.571714	2690.128571
607.921333	2684.711851
608.270899	2687.209743
608.620411	2686.342664
608.969870	2687.184537
609.319276	2686.718230
609.668627	2690.567151
610.017926	2687.330731
610.367171	2689.710155
610.716362	2687.839887
611.065500	2689.034641
611.414585	2687.176975
611.763616	2689.385001
612.112594	2686.589681
612.461518	2687.837367
612.810389	2688.608663
613.159207	2688.996832
613.507971	2686.549352
613.856682	2688.568334
614.205340	2686.093127
614.553945	2692.946576
614.902496	2685.664629
615.250994	2688.633869
615.599439	2692.180321
615.947830	2688.338961
616.296169	2689.274095
616.644454	2690.002542
616.992686	2688.273426
617.340864	2691.683767
617.688990	2684.721933
618.037063	2689.725279
618.385082	2690.957841
618.733048	2690.826771
619.080961	2691.071267
619.428821	2687.986081
619.776628	2687.040864
620.124382	2689.591688
620.472083	2689.284178
620.819731	2689.362316
621.167326	2686.529187
621.514868	2687.691173
621.862357	2681.893846
622.209793	2686.183868
622.557176	2682.009793
622.904506	2680.326047
623.251783	2679.070800
623.599007	2675.947805
623.946179	2678.717919
624.293297	2677.729853
624.640363	2672.189625
624.987376	2670.465550
625.334336	2666.445230
625.681243	2666.457833
626.028097	2662.666885
626.374899	2663.765857
626.721647	2666.951866
627.068343	2666.460354
627.414987	2665.429438
627.761577	2661.908192
628.108115	2663.218892
628.454600	2660.753767
628.801032	2660.032882
629.147412	2663.619663
629.493739	2659.735454
629.840014	2660.642862
630.186236	2661.083963
630.532405	2660.907523
630.878521	2658.628921
631.224585	2657.905516
631.570597	2655.815957
631.916556	2657.267810
632.262462	2654.785041
632.608316	2656.330155
632.954117	2654.880823
633.299866	2654.051553
633.645562	2654.343940
633.991206	2651.099958
634.336797	2650.578198
634.682336	2651.251192
635.027823	2647.911428
635.373257	2646.351191
635.718639	2648.062663
636.063968	2645.776499
636.409245	2642.421612
636.754470	2643.775161
637.099642	2642.900521
637.444762	2638.812145
637.789829	2639.593524
638.134845	2638.008081
638.479808	2636.531023
638.824719	2636.299130
639.169577	2634.859881
639.514383	2635.111938
639.859137	2632.314098
640.203839	2633.337452
640.548489	2632.367030
640.893086	2630.542132
641.237632	2630.101032
