Dividing Wavelength (nm)	Counts (n)	Blue Motor Position (mm): 0.000000	Red Motor Position (mm): 19.500000	
326.493990	2054.426468
326.888308	2054.426468
327.282561	2054.426468
327.676750	2028.308250
328.070874	2029.538292
328.464933	2035.701102
328.858929	2041.858872
329.252859	2053.151056
329.646726	2067.987172
330.040528	2083.944944
330.434265	2101.962028
330.827938	2120.228649
331.221547	2141.272946
331.615091	2160.943528
332.008571	2181.476148
332.401986	2201.489529
332.795338	2222.233877
333.188625	2241.796074
333.581847	2261.123858
333.975006	2276.184305
334.368100	2296.275824
334.761129	2312.362146
335.154095	2330.429641
335.546996	2345.694255
335.939833	2359.756554
336.332606	2371.545292
336.725315	2387.301418
337.117960	2395.281565
337.510540	2405.779768
337.903056	2415.307548
338.295508	2421.525812
338.687896	2427.484456
339.080220	2434.607606
339.472480	2436.868563
339.864676	2440.412495
340.256807	2444.268977
340.648875	2446.282918
341.040879	2446.663525
341.432818	2448.932045
341.824694	2449.650409
342.216506	2449.131170
342.608253	2447.187805
342.999937	2449.632765
343.391557	2450.343568
343.783113	2447.860799
344.174605	2445.211673
344.566033	2444.039605
344.957397	2446.391303
345.348697	2442.310489
345.739934	2438.910231
346.131106	2438.713626
346.522215	2437.420570
346.913260	2432.684406
347.304241	2431.340938
347.695159	2429.203489
348.086012	2430.378078
348.476802	2426.042686
348.867528	2425.256266
349.258191	2419.731161
349.648789	2422.299629
350.039324	2421.059505
350.429796	2425.072263
350.820203	2420.220153
351.210548	2419.577406
351.600828	2417.800399
351.991045	2416.414082
352.381198	2419.660585
352.771288	2416.981212
353.161314	2419.494227
353.551276	2417.150090
353.941175	2418.526325
354.331010	2418.496078
354.720782	2417.233269
355.110490	2417.903743
355.500135	2420.736871
355.889717	2419.353074
356.279235	2421.825760
356.668689	2420.119330
357.058080	2420.726789
357.447408	2418.528846
357.836672	2423.201995
358.225873	2423.885072
358.615010	2423.456574
359.004084	2423.597726
359.393095	2424.560586
359.782043	2427.844898
360.170927	2423.416244
360.559748	2424.235432
360.948505	2426.279620
361.337199	2428.275917
361.725830	2425.415062
362.114398	2427.759198
362.502903	2428.467481
362.891344	2429.200968
363.279722	2428.548139
363.668037	2429.546288
364.056289	2429.556370
364.444478	2432.984354
364.832603	2430.320105
365.220665	2430.796494
365.608665	2431.860177
365.996601	2430.289858
366.384474	2432.061823
366.772284	2430.292378
367.160031	2432.061823
367.547715	2435.706578
367.935336	2436.026691
368.322893	2430.211720
368.710388	2429.901689
369.097820	2432.858326
369.485189	2431.431679
369.872495	2436.944181
370.259738	2435.552822
370.646918	2438.529624
371.034035	2439.565581
371.421090	2441.123297
371.808081	2440.626744
372.195010	2442.439038
372.581875	2443.525407
372.968678	2443.139759
373.355418	2446.262754
373.742096	2448.014555
374.128710	2450.041098
374.515262	2450.424226
374.901751	2454.537808
375.288177	2458.953858
375.674540	2462.480146
376.060841	2465.421659
376.447079	2469.880559
376.833254	2475.937506
377.219367	2479.398258
377.605417	2485.251038
377.991404	2491.696153
378.377329	2496.898623
378.763191	2504.694768
379.148991	2511.633916
379.534727	2521.852335
379.920402	2534.631660
380.306013	2539.319933
380.691563	2553.893909
381.077049	2563.454457
381.462474	2573.995510
381.847835	2584.980184
382.233134	2600.910230
382.618371	2612.386417
383.003545	2628.389560
383.388657	2643.450007
383.773706	2664.743841
384.158693	2678.039884
384.543618	2694.889941
384.928480	2708.871581
385.313280	2731.914695
385.698017	2751.630648
386.082692	2773.854575
386.467305	2788.000052
386.851856	2812.290852
387.236344	2839.712208
387.620770	2858.273737
388.005133	2877.616644
388.389435	2913.124011
388.773674	2925.749581
389.157851	2958.617904
389.541965	2986.659323
389.926018	2995.274654
390.310008	3028.692463
390.693936	3057.726989
391.077802	3082.642892
391.461606	3116.481637
391.845348	3133.871097
392.229027	3161.776404
392.612645	3204.787529
392.996200	3234.429513
393.379694	3272.880914
393.763125	3316.428922
394.146494	3340.104701
394.529801	3376.708519
394.913047	3419.533121
395.296230	3426.492434
395.679351	3452.368677
396.062410	3500.869618
396.445408	3481.917400
396.828343	3522.418030
397.211217	3559.493196
397.594028	3526.211498
397.976778	3577.545568
398.359466	3613.098305
398.742092	3623.740181
399.124656	3635.239053
399.507158	3697.061243
399.889598	3703.889486
400.271977	3767.463477
400.654294	3752.839090
401.036549	3814.343687
401.418742	3814.447031
401.800874	3878.464644
402.182944	3910.322215
402.564952	3991.472189
402.946898	3988.863392
403.328783	3981.314264
403.710606	4031.962737
404.092367	4102.927060
404.474067	4170.428110
404.855705	4150.979338
405.237282	4128.707521
405.618797	4222.021799
406.000250	4299.053150
406.381642	4381.899473
406.762972	4383.623547
407.144240	4350.563660
407.525447	4415.544133
407.906593	4433.939304
408.287677	4513.894524
408.668700	4545.915933
409.049661	4584.473199
409.430560	4616.187097
409.811399	4596.413172
410.192176	4646.955780
410.572891	4732.489037
410.953545	4838.842260
411.334138	4735.279316
411.714669	4845.579762
412.095139	4754.952419
412.475547	4863.606928
412.855894	4872.859966
413.236180	4972.725224
413.616405	4897.576743
413.996568	5000.786807
414.376670	4999.503833
414.756711	4992.884798
415.136691	5064.275098
415.516609	5145.561183
415.896466	5178.121996
416.276262	5247.654631
416.655997	5355.280745
417.035670	5447.317091
417.415283	5575.022121
417.794834	5638.911184
418.174324	5594.561633
418.553753	5588.000571
418.933121	5737.995063
419.312428	5741.007152
419.691674	5655.602444
420.070859	5866.796544
420.449983	5731.509618
420.829045	5909.059057
421.208047	5820.654863
421.586988	5953.375840
421.965867	6002.212018
422.344686	6058.683024
422.723444	6193.642274
423.102141	5813.982895
423.480777	6157.199773
423.859352	5957.716274
424.237866	6272.158245
424.616319	6237.245734
424.994712	6356.020360
425.373044	6248.159832
425.751314	6494.488253
426.129524	6209.189192
426.507673	6410.989101
426.885762	6413.872641
427.263789	6409.141518
427.641756	6441.011693
428.019662	6472.216435
428.397508	6463.202852
428.775292	6400.037195
429.153016	6495.151165
429.530679	6392.661987
429.908282	6389.662500
430.285824	6296.403674
430.663305	6464.276618
431.040726	6327.021122
431.418086	6275.165293
431.795385	6324.306461
432.172624	6409.570017
432.549802	6271.926352
432.926920	6310.166024
433.303977	6209.489141
433.680974	6181.994688
434.057910	6256.971769
434.434786	6229.956226
434.811601	6143.114789
435.188355	6291.710360
435.565050	6166.258726
435.941683	6105.409479
436.318257	6242.181024
436.694770	6146.285675
437.071222	6217.260080
437.447614	6016.745665
437.823946	5929.420277
438.200218	5948.228822
438.576429	5810.086083
438.952580	5828.627447
439.328670	5763.263847
439.704700	5729.730091
440.080670	5610.015290
440.456580	5670.602398
440.832429	5584.774233
441.208218	5401.117437
441.583947	5377.290423
441.959616	5364.702662
442.335224	5308.319877
442.710773	5274.337458
443.086261	5281.649652
443.461689	5093.289459
443.837057	5092.374490
444.212365	5103.061736
444.587612	5025.586763
444.962800	4921.451648
445.337927	4894.947782
445.712995	4673.704142
446.088002	4829.838759
446.462949	4777.819093
446.837837	4709.539184
447.212664	4638.920181
447.587431	4812.325791
447.962139	5024.684397
448.336786	5214.380495
448.711374	5078.791101
449.085901	4688.280639
449.460369	4580.435234
449.834776	4448.009164
450.209124	4583.603600
450.583412	4474.916323
450.957640	4478.679544
451.331808	4320.571315
451.705917	4133.423520
452.079965	4044.626116
452.453954	4019.271632
452.827883	3940.483439
453.201752	3879.624109
453.575562	3818.220335
453.949311	3813.537103
454.323001	3764.032972
454.696632	3701.258004
455.070202	3721.387331
455.443713	3677.496525
455.817164	3640.610402
456.190556	3626.265799
456.563888	3561.582754
456.937160	3533.127961
457.310373	3429.050819
457.683526	3380.063407
458.056619	3333.858711
458.429653	3290.782052
458.802628	3259.047988
459.175542	3221.589695
459.548398	3220.964592
459.921194	3217.970146
460.293930	3204.379195
460.666607	3222.048440
461.039224	3231.142681
461.411782	3209.299362
461.784280	3149.793582
462.156719	3101.993361
462.529099	3060.673543
462.901419	2994.503358
463.273680	2944.464865
463.645882	2920.980650
464.018024	2888.336658
464.390106	2871.254708
464.762130	2885.175854
465.134094	2911.493198
465.505999	2953.990125
465.877845	2986.225783
466.249631	2988.030516
466.621358	2946.413271
466.993026	2899.482649
467.364634	2861.069057
467.736184	2821.430464
468.107674	2791.601957
468.479105	2773.925151
468.850477	2753.795823
469.221790	2732.643142
469.593043	2713.310317
469.964238	2693.957327
470.335373	2685.563806
470.706449	2687.058508
471.077467	2688.107068
471.448425	2706.572815
471.819324	2715.011706
472.190164	2709.600028
472.560945	2687.083714
472.931667	2666.435148
473.302330	2652.960144
473.672934	2642.451858
474.043479	2637.839203
474.413965	2637.438431
474.784393	2630.216978
475.154761	2633.957514
475.525070	2629.254118
475.895321	2623.489558
476.265513	2623.613067
476.635645	2625.611884
477.005719	2621.306739
477.375734	2622.229270
477.745691	2625.538787
478.115588	2626.123561
478.485427	2629.299488
478.855207	2639.843061
479.224928	2648.957467
479.594591	2655.929383
479.964194	2650.870585
480.333739	2649.784217
480.703226	2649.282622
481.072653	2649.292704
481.442022	2646.436891
481.811333	2645.156437
482.180584	2638.567649
482.549777	2637.990437
482.918912	2629.803603
483.287988	2632.581279
483.657005	2630.133799
484.025964	2626.393263
484.394864	2622.776235
484.763706	2622.546862
485.132489	2615.844648
485.501213	2615.297683
485.869879	2615.771552
486.238487	2612.988835
486.607036	2612.913217
486.975527	2607.357866
487.343959	2611.138731
487.712333	2610.150665
488.080648	2607.786364
488.448905	2608.887856
488.817104	2610.453134
489.185244	2614.443208
489.553326	2614.397837
489.921350	2623.368571
490.289315	2632.785446
490.657222	2635.059006
491.025070	2639.969090
491.392861	2633.516413
491.760593	2632.946763
492.128267	2628.450054
492.495883	2621.783128
492.863440	2618.128291
493.230939	2612.736777
493.598380	2610.216200
493.965763	2610.062445
494.333088	2606.158071
494.700354	2601.507607
495.067563	2604.703698
495.434713	2603.040118
495.801805	2606.901642
496.168839	2602.510797
496.535815	2602.467947
496.902733	2602.173039
497.269593	2601.747062
497.636395	2601.850405
498.003139	2602.818307
498.369825	2602.225971
498.736453	2603.642536
499.103023	2601.689088
499.469535	2603.791250
499.835989	2601.356372
500.202385	2597.691453
500.568723	2594.951586
500.935003	2598.601382
501.301226	2594.691967
501.667390	2606.465582
502.033497	2606.326950
502.399546	2604.592793
502.765537	2601.283276
503.131470	2605.963987
503.497345	2607.070520
503.863163	2600.459047
504.228923	2602.828389
504.594625	2606.470623
504.960269	2599.334870
505.325856	2604.953236
505.691385	2603.924840
506.056856	2604.370982
506.422270	2603.171188
506.787625	2604.988524
507.152924	2606.528596
507.518164	2606.657146
507.883347	2603.299737
508.248472	2605.162443
508.613540	2608.164451
508.978550	2609.349122
509.343503	2605.893411
509.708398	2605.822835
510.073236	2609.787702
510.438016	2610.405243
510.802738	2606.901642
511.167403	2608.151848
511.532010	2612.121756
511.896561	2612.106633
512.261053	2616.394134
512.625488	2613.465224
512.989866	2615.179216
513.354186	2612.797271
513.718449	2614.594442
514.082655	2618.138373
514.446803	2615.469082
514.810894	2616.852879
515.174927	2614.392796
515.538904	2616.154679
515.902822	2617.079731
516.266684	2614.014710
516.630488	2614.478496
516.994235	2618.597118
517.357925	2616.142077
517.721558	2616.830194
518.085133	2617.654423
518.448651	2615.491768
518.812112	2616.263064
519.175516	2613.457662
519.538863	2612.721654
519.902152	2620.727006
520.265385	2619.181892
520.628560	2621.180710
520.991678	2618.221552
521.354739	2621.266409
521.717743	2618.934876
522.080690	2617.039402
522.443580	2620.598457
522.806413	2620.084259
523.169189	2617.936727
523.531908	2621.067284
523.894569	2617.609052
524.257174	2618.637448
524.619722	2619.270112
524.982213	2619.590226
525.344647	2620.563168
525.707025	2616.810029
526.069345	2618.980246
526.431608	2618.007303
526.793815	2618.140894
527.155964	2616.608383
527.518057	2617.591408
527.880093	2613.392127
528.242072	2616.124432
528.603995	2611.947837
528.965860	2611.968001
529.327669	2613.180399
529.689421	2614.223917
530.051117	2611.526900
530.412755	2612.610748
530.774337	2609.548247
531.135862	2609.543206
531.497331	2608.822321
531.858743	2608.454317
532.220098	2610.783330
532.581396	2610.745521
532.942638	2610.385079
533.303824	2606.831065
533.664953	2608.056066
534.026025	2605.076744
534.387040	2604.859974
534.747999	2604.749069
535.108902	2605.321240
535.469748	2603.370313
535.830537	2605.752258
536.191270	2604.991044
536.551947	2601.374016
536.912567	2599.029880
537.273131	2601.653800
537.633638	2598.046855
537.994089	2604.570108
538.354483	2603.201435
538.714821	2602.624222
539.075103	2602.714963
539.435328	2603.849223
539.795497	2604.159254
540.155609	2601.573142
540.515665	2605.921137
540.875665	2598.815631
541.235609	2599.198758
541.595496	2604.287803
541.955328	2602.057093
542.315102	2599.874273
542.674821	2601.976434
543.034483	2600.562391
543.394090	2598.218254
543.753640	2600.312853
544.113134	2603.566918
544.472571	2600.736310
544.831953	2602.362083
545.191278	2600.660693
545.550548	2599.037442
545.909761	2602.173039
546.268918	2599.163470
546.628019	2602.873760
546.987064	2599.763368
547.346053	2596.468974
547.704986	2600.169181
548.063863	2600.012905
548.422684	2600.257401
548.781449	2599.279417
549.140158	2598.331680
549.498811	2598.457709
549.857408	2595.634663
550.215949	2597.515013
550.574434	2595.364961
550.932864	2598.818151
551.291237	2600.396032
551.649555	2598.810590
552.007817	2598.901330
552.366022	2599.907041
552.724173	2599.685230
553.082267	2598.964345
553.440305	2602.238574
553.798288	2598.863522
554.156215	2599.208841
554.514086	2596.053078
554.871902	2595.841350
555.229661	2597.028542
555.587365	2591.992429
555.945014	2599.806217
556.302606	2600.869901
556.660143	2599.730600
557.017625	2597.381423
557.375050	2600.625405
557.732421	2598.679520
558.089735	2598.225816
558.446994	2599.120621
558.804197	2601.893255
559.161345	2596.322780
559.518437	2597.492328
559.875474	2598.036772
560.232455	2598.467791
560.589381	2599.569283
560.946251	2600.431321
561.303065	2600.557349
561.659825	2598.225816
562.016528	2597.361258
562.373177	2597.509972
562.729770	2596.287492
563.086307	2595.188521
563.442789	2598.374530
563.799216	2598.787904
564.155587	2597.293202
564.511904	2598.755137
564.868164	2596.824375
565.224370	2598.636670
565.580520	2597.189859
565.936615	2600.612802
566.292654	2597.840167
566.648638	2596.690784
567.004567	2598.213213
567.360441	2597.978799
567.716260	2596.980651
568.072023	2597.673809
568.427732	2595.513675
568.783385	2599.349993
569.138982	2599.266814
569.494525	2597.588110
569.850013	2597.746906
570.205445	2597.804879
570.560823	2594.316401
570.916145	2599.082812
571.271412	2595.848912
571.626625	2596.990733
571.981782	2599.407966
572.336884	2593.721545
572.691931	2591.337079
573.046923	2596.398397
573.401860	2586.028744
573.756743	2591.543766
574.111570	2592.509147
574.466342	2595.574169
574.821059	2591.294229
575.175722	2593.504775
575.530330	2591.705083
575.884882	2591.657192
576.239380	2591.117789
576.593823	2590.154928
576.948211	2592.695670
577.302544	2589.108889
577.656823	2589.111410
578.011047	2590.175093
578.365216	2588.980340
578.719330	2589.681060
579.073389	2588.304825
579.427394	2590.162490
579.781344	2588.493868
580.135239	2587.029413
580.489080	2587.127716
580.842866	2584.644947
581.196597	2587.392376
581.550273	2586.343816
581.903895	2588.952613
582.257463	2588.267016
582.610975	2586.079156
582.964434	2587.339444
583.317837	2587.687284
583.671186	2585.955647
584.024481	2584.097982
584.377721	2588.216605
584.730906	2584.881882
585.084037	2584.647468
585.437113	2586.671491
585.790135	2582.956161
586.143103	2584.592015
586.496016	2583.450194
586.848874	2585.259968
587.201679	2583.987077
587.554428	2582.711665
587.907124	2582.754515
588.259765	2581.786613
588.612352	2585.408682
588.964884	2580.213773
589.317362	2583.719896
589.669786	2582.328537
590.022155	2579.424832
590.374470	2577.065572
590.726731	2579.326530
591.078937	2574.965932
591.431090	2582.424319
591.783188	2578.797209
592.135232	2581.705955
592.487222	2578.570357
592.839157	2579.674370
593.191038	2577.403330
593.542866	2578.136818
593.894639	2573.609862
594.246358	2578.227558
594.598022	2577.400809
594.949633	2577.436097
595.301190	2577.005079
595.652692	2576.392578
596.004141	2577.519276
596.355535	2575.369224
596.706876	2572.868812
597.058162	2571.752196
597.409395	2574.597928
597.760573	2574.267732
598.111698	2576.463155
598.462768	2571.207752
598.813785	2574.202197
599.164748	2572.662125
599.515657	2573.816549
599.866511	2573.115828
600.217312	2572.649522
600.568060	2570.580128
600.918753	2575.200346
601.269392	2574.386199
601.619978	2572.616754
601.970510	2572.049624
602.320988	2571.169943
602.671412	2573.831672
603.021783	2569.912175
603.372100	2570.363358
603.722363	2570.053327
604.072572	2570.738924
604.422728	2570.741445
604.772830	2571.250602
605.122878	2570.933009
605.472872	2569.307237
605.822813	2572.533575
606.172701	2569.755899
606.522534	2568.417473
606.872314	2573.806467
607.222041	2569.927299
607.571714	2571.374110
607.921333	2566.731207
608.270899	2568.558625
608.620411	2566.388409
608.969870	2571.232957
609.319276	2572.092474
609.668627	2569.410580
610.017926	2568.644325
610.367171	2571.457289
610.716362	2570.010478
611.065500	2568.321691
611.414585	2570.522155
611.763616	2571.941240
612.112594	2572.954512
612.461518	2571.994172
612.810389	2571.273287
613.159207	2571.459809
613.507971	2569.201372
613.856682	2573.309913
614.205340	2570.693554
614.553945	2572.004254
614.902496	2568.745148
615.250994	2571.419480
615.599439	2571.691702
615.947830	2570.149109
616.296169	2572.142886
616.644454	2571.880746
616.992686	2574.562640
617.340864	2572.321847
617.688990	2572.790674
618.037063	2570.973338
618.385082	2572.909141
618.733048	2572.778071
619.080961	2570.517114
619.428821	2573.609862
619.776628	2573.176322
620.124382	2569.380333
620.472083	2572.210941
620.819731	2574.797053
621.167326	2573.302351
621.514868	2570.877556
621.862357	2572.662125
622.209793	2571.870663
622.557176	2572.523493
622.904506	2570.212124
623.251783	2563.905640
623.599007	2566.141392
623.946179	2566.403532
624.293297	2568.581311
624.640363	2563.046124
624.987376	2564.140054
625.334336	2559.114024
625.681243	2561.440516
626.028097	2557.541184
626.374899	2563.116700
626.721647	2560.268448
627.068343	2564.440003
627.414987	2562.312636
627.761577	2563.368757
628.108115	2561.644683
628.454600	2558.609908
628.801032	2561.536298
629.147412	2560.006308
629.493739	2562.083263
629.840014	2558.506565
630.186236	2562.804148
630.532405	2555.698642
630.878521	2562.085784
631.224585	2558.128478
631.570597	2558.559497
631.916556	2558.650238
632.262462	2557.881462
632.608316	2556.943807
632.954117	2553.041954
633.299866	2556.316183
633.645562	2555.260062
633.991206	2556.510268
634.336797	2554.667726
634.682336	2552.883157
635.027823	2555.872562
635.373257	2554.004814
635.718639	2549.818136
636.063968	2554.692932
636.409245	2550.901984
636.754470	2550.682694
637.099642	2550.854093
637.444762	2549.452652
637.789829	2547.819318
638.134845	2549.838301
638.479808	2547.310162
638.824719	2546.606921
639.169577	2548.204967
639.514383	2547.277394
639.859137	2546.427960
640.203839	2544.363607
640.548489	2544.887887
640.893086	2545.830583
641.237632	2546.458207
641.582125	2545.757487
641.926566	2547.748742
642.270955	2541.792619
642.615292	2542.034594
642.959576	2543.496529
643.303809	2539.783719
643.647990	2543.574667
643.992118	2542.856303
644.336195	2546.838814
