Dividing Wavelength (nm)	Counts (n)	Blue Motor Position (mm): 0.000000	Red Motor Position (mm): 7.000000	
326.493990	2055.815306
326.888308	2055.815306
327.282561	2055.815306
327.676750	2030.486028
328.070874	2031.348066
328.464933	2038.751000
328.858929	2043.567823
329.252859	2057.335214
329.646726	2068.985320
330.040528	2084.716241
330.434265	2101.281473
330.827938	2126.252828
331.221547	2143.848976
331.615091	2164.227840
332.008571	2185.577127
332.401986	2205.787112
332.795338	2223.998281
333.188625	2244.546024
333.581847	2265.580238
333.975006	2280.489451
334.368100	2297.813376
334.761129	2315.197795
335.154095	2330.724549
335.546996	2344.683504
335.939833	2361.646986
336.332606	2372.440097
336.725315	2386.744371
337.117960	2395.228633
337.510540	2405.104253
337.903056	2413.759914
338.295508	2418.768301
338.687896	2428.240629
339.080220	2432.908737
339.472480	2438.648091
339.864676	2438.688420
340.256807	2444.573967
340.648875	2445.685542
341.040879	2447.810388
341.432818	2446.056066
341.824694	2449.872220
342.216506	2449.113526
342.608253	2449.017744
342.999937	2442.895263
343.391557	2448.763166
343.783113	2445.660336
344.174605	2445.486416
344.566033	2442.227310
344.957397	2442.605397
345.348697	2441.650098
345.739934	2437.274376
346.131106	2435.318409
346.522215	2435.094077
346.913260	2433.584252
347.304241	2433.039807
347.695159	2431.784560
348.086012	2429.495876
348.476802	2426.299784
348.867528	2422.395411
349.258191	2420.373908
349.648789	2422.881882
350.039324	2416.517425
350.429796	2422.488672
350.820203	2418.889288
351.210548	2419.489186
351.600828	2420.978847
351.991045	2419.539597
352.381198	2417.818043
352.771288	2417.767632
353.161314	2421.248548
353.551276	2420.187385
353.941175	2417.893660
354.331010	2418.153280
354.720782	2417.427354
355.110490	2419.050605
355.500135	2418.861562
355.889717	2421.230904
356.279235	2419.363157
356.668689	2419.814340
357.058080	2418.080183
357.447408	2421.500606
357.836672	2424.026224
358.225873	2421.593867
358.615010	2425.011770
359.004084	2422.801224
359.393095	2422.854156
359.782043	2422.554207
360.170927	2422.503796
360.559748	2423.630493
360.948505	2424.605957
361.337199	2428.046544
361.725830	2427.860022
362.114398	2423.852304
362.502903	2427.865063
362.891344	2426.493869
363.279722	2428.548139
363.668037	2429.485794
364.056289	2428.648962
364.444478	2430.070568
364.832603	2428.112079
365.220665	2428.243149
365.608665	2429.800866
365.996601	2427.885227
366.384474	2430.660383
366.772284	2432.447472
367.160031	2428.633839
367.547715	2431.469488
367.935336	2431.721545
368.322893	2429.662234
368.710388	2425.833478
369.097820	2429.982347
369.485189	2425.732655
369.872495	2434.300096
370.259738	2435.225147
370.646918	2431.391350
371.034035	2436.435024
371.421090	2438.058276
371.808081	2436.311516
372.195010	2437.380241
372.581875	2436.407298
372.968678	2439.762186
373.355418	2441.483740
373.742096	2443.585901
374.128710	2446.403906
374.515262	2446.789554
374.901751	2449.922631
375.288177	2449.652930
375.674540	2454.409258
376.060841	2460.256997
376.447079	2462.341514
376.833254	2467.186063
377.219367	2474.586477
377.605417	2476.960860
377.991404	2484.666264
378.377329	2491.537356
378.763191	2492.543067
379.148991	2501.594458
379.534727	2511.560819
379.920402	2518.086593
380.306013	2526.066740
380.691563	2538.435211
381.077049	2545.069369
381.462474	2549.314021
381.847835	2562.292471
382.233134	2574.355952
382.618371	2578.945923
383.003545	2592.350351
383.388657	2604.244953
383.773706	2617.984618
384.158693	2626.569703
384.543618	2640.032105
384.928480	2646.343629
385.313280	2659.639672
385.698017	2670.876404
386.082692	2685.266378
386.467305	2692.376926
386.851856	2707.384441
387.236344	2724.103427
387.620770	2726.311453
388.005133	2734.755385
388.389435	2751.229876
388.773674	2752.170051
389.157851	2767.724532
389.541965	2780.450924
389.926018	2779.619134
390.310008	2794.833336
390.693936	2801.190231
391.077802	2809.152734
391.461606	2818.249496
391.845348	2820.465083
392.229027	2823.459528
392.612645	2839.954184
392.996200	2840.296982
393.379694	2849.207222
393.763125	2857.593181
394.146494	2857.832636
394.529801	2862.992257
394.913047	2865.951414
395.296230	2856.670650
395.679351	2853.867768
396.062410	2857.071422
396.445408	2834.890345
396.828343	2832.170642
397.211217	2827.832729
397.594028	2804.383802
397.976778	2803.499080
398.359466	2793.782256
398.742092	2783.858744
399.124656	2771.313833
399.507158	2768.180756
399.889598	2756.124837
400.271977	2752.744743
400.654294	2729.870507
401.036549	2727.019735
401.418742	2713.315358
401.800874	2707.984338
402.182944	2698.569983
402.564952	2694.176617
402.946898	2679.839576
403.328783	2664.275013
403.710606	2655.263951
404.092367	2649.373363
404.474067	2641.209214
404.855705	2625.637090
405.237282	2610.506067
405.618797	2606.337032
406.000250	2600.824531
406.381642	2593.731627
406.762972	2578.320820
407.144240	2565.375137
407.525447	2558.816596
407.906593	2547.317724
408.287677	2547.519370
408.668700	2540.769265
409.049661	2533.121834
409.430560	2525.615556
409.811399	2519.692201
410.192176	2514.182219
410.572891	2511.485202
410.953545	2508.163082
411.334138	2500.815600
411.714669	2497.483397
412.095139	2489.830926
412.475547	2489.420072
412.855894	2486.864207
413.236180	2484.411685
413.616405	2482.727940
413.996568	2476.610500
414.376670	2477.459934
414.756711	2476.912969
415.136691	2473.535396
415.516609	2472.625468
415.896466	2476.078658
416.276262	2470.740076
416.655997	2469.525158
417.035670	2469.263018
417.415283	2470.392237
417.794834	2466.324025
418.174324	2469.293265
418.553753	2468.169088
418.933121	2468.920220
419.312428	2467.589355
419.691674	2465.751854
420.070859	2466.306381
420.449983	2466.916361
420.829045	2465.005764
421.208047	2466.094653
421.586988	2467.917030
421.965867	2464.526854
422.344686	2466.928964
422.723444	2467.644808
423.102141	2466.381999
423.480777	2464.610033
423.859352	2465.643470
424.237866	2465.267904
424.616319	2466.679427
424.994712	2464.967955
425.373044	2468.189252
425.751314	2462.744806
426.129524	2461.640793
426.507673	2463.138016
426.885762	2458.666513
427.263789	2465.053655
427.641756	2465.532564
428.019662	2467.586834
428.397508	2467.551546
428.775292	2466.870991
429.153016	2465.678758
429.530679	2464.690692
429.908282	2467.717904
430.285824	2465.502317
430.663305	2467.334777
431.040726	2465.663634
431.418086	2467.140692
431.795385	2467.160857
432.172624	2466.818058
432.549802	2464.302523
432.926920	2469.421814
433.303977	2468.229582
433.680974	2468.837041
434.057910	2468.237143
434.434786	2469.822586
434.811601	2471.546661
435.188355	2473.124542
435.565050	2468.622792
435.941683	2467.110445
436.318257	2468.161526
436.694770	2467.581793
437.071222	2468.206896
437.447614	2468.020374
437.823946	2468.867288
438.200218	2470.044397
438.576429	2472.040694
438.952580	2471.549181
439.328670	2468.907617
439.704700	2471.818883
440.080670	2468.005250
440.456580	2471.571867
440.832429	2471.012298
441.208218	2471.181177
441.583947	2471.526496
441.959616	2468.242184
442.335224	2469.252936
442.710773	2470.689665
443.086261	2473.313585
443.461689	2471.836527
443.837057	2471.884418
444.212365	2472.665797
444.587612	2467.496094
444.962800	2468.287555
445.337927	2471.327371
445.712995	2466.308902
446.088002	2471.909624
446.462949	2473.268215
446.837837	2472.501959
447.212664	2474.823411
447.587431	2474.195787
447.962139	2475.655201
448.336786	2476.522280
448.711374	2478.642085
449.085901	2479.340285
449.460369	2475.282156
449.834776	2474.430201
450.209124	2475.556899
450.583412	2476.529841
450.957640	2477.081848
451.331808	2477.676704
451.705917	2474.377269
452.079965	2476.043370
452.453954	2475.859368
452.827883	2475.730818
453.201752	2474.397433
453.575562	2476.907928
453.949311	2475.657722
454.323001	2476.933134
454.696632	2478.599235
455.070202	2478.465644
455.443713	2476.955819
455.817164	2477.137300
456.190556	2480.451859
456.563888	2479.345326
456.937160	2479.158803
457.310373	2476.829790
457.683526	2478.367342
458.056619	2479.544451
458.429653	2477.008751
458.802628	2477.769965
459.175542	2476.668473
459.548398	2481.056797
459.921194	2479.365490
460.293930	2481.044195
460.666607	2480.955974
461.039224	2485.810606
461.411782	2483.501757
461.784280	2479.108392
462.156719	2481.001345
462.529099	2485.646768
462.901419	2481.208032
463.273680	2477.908597
463.645882	2475.103195
464.018024	2480.182157
464.390106	2478.059832
464.762130	2483.811788
465.134094	2484.320945
465.505999	2488.356388
465.877845	2491.005515
466.249631	2490.408138
466.621358	2491.431492
466.993026	2487.948055
467.364634	2491.859990
467.736184	2488.343785
468.107674	2487.010400
468.479105	2484.643578
468.850477	2486.740698
469.221790	2488.679022
469.593043	2486.400421
469.964238	2483.194247
470.335373	2486.034937
470.706449	2486.249186
471.077467	2486.597026
471.448425	2486.697849
471.819324	2488.900833
472.190164	2491.426451
472.560945	2486.962509
472.931667	2489.142808
473.302330	2486.831439
473.672934	2487.897643
474.043479	2489.886378
474.413965	2489.641883
474.784393	2485.631645
475.154761	2486.163486
475.525070	2484.164669
475.895321	2487.237252
476.265513	2486.080307
476.635645	2486.526449
477.005719	2489.800679
477.375734	2486.216418
477.745691	2486.375215
478.115588	2491.673468
478.485427	2487.181799
478.855207	2491.096255
479.224928	2494.493993
479.594591	2493.261431
479.964194	2493.440392
480.333739	2492.265803
480.703226	2493.034579
481.072653	2497.064982
481.442022	2492.762357
481.811333	2493.190855
482.180584	2489.460401
482.549777	2492.555669
482.918912	2487.927890
483.287988	2491.174393
483.657005	2496.825527
484.025964	2493.084991
484.394864	2494.325114
484.763706	2494.173880
485.132489	2494.340238
485.501213	2490.274547
485.869879	2490.894609
486.238487	2493.286637
486.607036	2491.118941
486.975527	2494.194044
487.343959	2492.167501
487.712333	2494.095742
488.080648	2492.134733
488.448905	2491.988540
488.817104	2490.062819
489.185244	2494.751092
489.553326	2494.672954
489.921350	2495.592965
490.289315	2498.640342
490.657222	2496.989364
491.025070	2499.283089
491.392861	2501.561691
491.760593	2498.930208
492.128267	2497.332163
492.495883	2495.562718
492.863440	2494.781339
493.230939	2496.117245
493.598380	2495.333345
493.965763	2493.790752
494.333088	2493.077429
494.700354	2490.927377
495.067563	2496.260918
495.434713	2492.245638
495.801805	2495.030876
496.168839	2493.024497
496.535815	2495.116576
496.902733	2493.994919
497.269593	2492.401914
497.636395	2492.464929
498.003139	2492.739672
498.369825	2493.236225
498.736453	2493.377378
499.103023	2492.643890
499.469535	2494.733448
499.835989	2493.319404
500.202385	2492.170021
500.568723	2490.677840
500.935003	2491.696153
501.301226	2488.570637
501.667390	2490.110710
502.033497	2492.691781
502.399546	2492.613643
502.765537	2492.855618
503.131470	2492.719507
503.497345	2490.289671
503.863163	2493.833602
504.228923	2491.585247
504.594625	2496.059271
504.960269	2491.930566
505.325856	2492.923674
505.691385	2491.943169
506.056856	2494.655310
506.422270	2495.015753
506.787625	2489.841008
507.152924	2491.973416
507.518164	2495.250166
507.883347	2494.199086
508.248472	2490.017448
508.613540	2493.281596
508.978550	2495.325783
509.343503	2492.593478
509.708398	2493.115238
510.073236	2492.278406
510.438016	2497.165805
510.802738	2494.178921
511.167403	2494.002481
511.532010	2493.314363
511.896561	2492.845536
512.261053	2497.080105
512.625488	2494.204127
512.989866	2494.017604
513.354186	2493.735299
513.718449	2493.659682
514.082655	2495.988695
514.446803	2494.458705
514.810894	2494.957779
515.174927	2493.047182
515.538904	2494.325114
515.902822	2493.321925
516.266684	2493.077429
516.630488	2492.490134
516.994235	2493.115238
517.357925	2494.725886
517.721558	2496.606237
518.085133	2494.617501
518.448651	2491.232367
518.812112	2491.998622
519.175516	2491.408807
519.538863	2488.802530
519.902152	2495.913078
520.265385	2492.767398
520.628560	2497.163284
520.991678	2494.733448
521.354739	2496.931391
521.717743	2493.001812
522.080690	2495.013232
522.443580	2494.688077
522.806413	2493.826040
523.169189	2492.313694
523.531908	2491.204640
523.894569	2493.332007
524.257174	2491.968375
524.619722	2494.478870
524.982213	2492.054075
525.344647	2495.441730
525.707025	2493.125320
526.069345	2494.917450
526.431608	2495.930722
526.793815	2492.885865
527.155964	2496.144971
527.518057	2495.290495
527.880093	2496.356699
528.242072	2495.177069
528.603995	2496.044148
528.965860	2493.395022
529.327669	2495.285454
529.689421	2493.674806
530.051117	2495.837461
530.412755	2495.350989
530.774337	2494.970382
531.135862	2492.873262
531.497331	2495.658500
531.858743	2490.158601
532.220098	2496.765033
532.581396	2492.802686
532.942638	2495.635814
533.303824	2493.208499
533.664953	2493.069867
534.026025	2491.928046
534.387040	2493.672285
534.747999	2494.783859
535.108902	2495.172028
535.469748	2496.011380
535.830537	2495.650938
536.191270	2495.527430
536.551947	2494.884682
536.912567	2490.211533
537.273131	2491.915443
537.633638	2488.953765
537.994089	2493.518530
538.354483	2494.715804
538.714821	2492.175062
539.075103	2494.897285
539.435328	2496.868377
539.795497	2493.407624
540.155609	2494.851915
540.515665	2495.106493
540.875665	2495.802173
541.235609	2491.940649
541.595496	2494.720845
541.955328	2493.281596
542.315102	2494.499034
542.674821	2490.501399
543.034483	2494.098262
543.394090	2496.207985
543.753640	2494.181442
544.113134	2490.866883
544.472571	2494.980464
544.831953	2494.499034
545.191278	2495.928201
545.550548	2495.056082
545.909761	2497.705208
546.268918	2493.982316
546.628019	2495.421565
546.987064	2491.169352
547.346053	2493.309322
547.704986	2492.384270
548.063863	2496.001298
548.422684	2495.534991
548.781449	2494.998108
549.140158	2495.751761
549.498811	2492.661534
549.857408	2492.653972
550.215949	2493.805876
550.574434	2493.440392
550.932864	2495.537512
551.291237	2493.193375
551.649555	2493.319404
552.007817	2495.315701
552.366022	2495.958448
552.724173	2491.741523
553.082267	2495.224960
553.440305	2495.784528
553.798288	2494.418376
554.156215	2494.322594
554.514086	2492.943838
554.871902	2491.048364
555.229661	2493.795793
555.587365	2487.408651
555.945014	2492.888386
556.302606	2492.520381
556.660143	2493.856287
557.017625	2494.567090
557.375050	2493.984837
557.732421	2496.999447
558.089735	2492.946359
558.446994	2493.422748
558.804197	2496.172697
559.161345	2496.296206
559.518437	2495.179590
559.875474	2494.599857
560.232455	2496.124806
560.589381	2494.781339
560.946251	2494.267141
561.303065	2494.935094
561.659825	2495.230002
562.016528	2494.332676
562.373177	2498.065651
562.729770	2494.612460
563.086307	2498.287461
563.442789	2494.776298
563.799216	2495.426607
564.155587	2495.809734
564.511904	2497.286792
564.868164	2496.076915
565.224370	2493.770587
565.580520	2495.847543
565.936615	2496.654127
566.292654	2494.254538
566.648638	2494.040289
567.004567	2496.049189
567.360441	2494.355361
567.716260	2495.078767
568.072023	2496.560866
568.427732	2494.937615
568.783385	2492.689260
569.138982	2493.667244
569.494525	2493.949548
569.850013	2494.584734
570.205445	2497.604385
570.560823	2493.392501
570.916145	2496.341576
571.271412	2495.514827
571.626625	2496.089518
571.981782	2493.281596
572.336884	2494.015083
572.691931	2491.978457
573.046923	2491.587768
573.401860	2486.289515
573.756743	2494.662872
574.111570	2492.220433
574.466342	2495.247646
574.821059	2493.798314
575.175722	2496.218068
575.530330	2495.905516
575.884882	2493.437871
576.239380	2496.981803
576.593823	2498.113542
576.948211	2492.497696
577.302544	2496.858294
577.656823	2494.120948
578.011047	2494.186483
578.365216	2494.748571
578.719330	2494.068016
579.073389	2497.218737
579.427394	2495.103973
579.781344	2494.070536
580.135239	2495.701349
580.489080	2494.083139
580.842866	2494.645228
581.196597	2494.219250
581.550273	2491.653303
581.903895	2493.407624
582.257463	2494.735968
582.610975	2493.725217
582.964434	2492.900988
583.317837	2492.923674
583.671186	2497.823675
584.024481	2493.750423
584.377721	2494.564569
584.730906	2492.399394
585.084037	2496.084477
585.437113	2494.146153
585.790135	2490.839157
586.143103	2493.417707
586.496016	2494.814106
586.848874	2495.272851
587.201679	2495.600526
587.554428	2494.511637
587.907124	2493.591627
588.259765	2491.638179
588.612352	2494.327635
588.964884	2495.219919
589.317362	2495.280413
589.669786	2492.439723
590.022155	2492.792604
590.374470	2486.559217
590.726731	2493.861328
591.078937	2490.125833
591.431090	2495.109014
591.783188	2493.624394
592.135232	2493.200937
592.487222	2495.003150
592.839157	2493.828561
593.191038	2495.174549
593.542866	2492.091883
593.894639	2493.465598
594.246358	2494.975423
594.598022	2489.949393
594.949633	2494.171359
595.301190	2490.526605
595.652692	2489.329331
596.004141	2492.638848
596.355535	2492.263282
596.706876	2492.689260
597.058162	2490.952583
597.409395	2491.063488
597.760573	2494.299909
598.111698	2489.987202
598.462768	2492.119610
598.813785	2492.754795
599.164748	2492.109527
599.515657	2493.188334
599.866511	2492.139774
600.217312	2493.505927
600.568060	2493.407624
600.918753	2494.557008
601.269392	2496.447440
601.619978	2492.679178
601.970510	2492.107007
602.320988	2495.638335
602.671412	2492.865700
603.021783	2493.105155
603.372100	2491.242449
603.722363	2493.243787
604.072572	2492.343941
604.422728	2492.369147
604.772830	2491.809579
605.122878	2492.049033
605.472872	2490.710607
605.822813	2494.869559
606.172701	2492.747233
606.522534	2492.046513
606.872314	2494.115907
607.222041	2492.628766
607.571714	2488.777325
607.921333	2487.234732
608.270899	2490.151039
608.620411	2489.294043
608.969870	2490.579537
609.319276	2489.581389
609.668627	2491.494507
610.017926	2494.098262
610.367171	2492.170021
610.716362	2493.016935
611.065500	2492.553149
611.414585	2493.878972
611.763616	2495.058602
612.112594	2493.357213
612.461518	2493.190855
612.810389	2493.211019
613.159207	2494.226812
613.507971	2489.054588
613.856682	2497.521206
614.205340	2491.358395
614.553945	2494.118427
614.902496	2491.562562
615.250994	2493.755464
615.599439	2493.016935
615.947830	2492.091883
616.296169	2492.737151
616.644454	2493.785711
616.992686	2494.110865
617.340864	2494.385608
617.688990	2492.709425
618.037063	2493.029538
618.385082	2492.442243
618.733048	2491.093735
619.080961	2493.309322
619.428821	2492.553149
619.776628	2490.816471
620.124382	2491.658344
620.472083	2492.984168
620.819731	2492.480052
621.167326	2493.836122
621.514868	2493.944507
621.862357	2493.868890
622.209793	2491.310504
622.557176	2491.837305
622.904506	2491.184476
623.251783	2491.638179
623.599007	2493.586585
623.946179	2493.868890
624.293297	2491.507109
624.640363	2491.996101
624.987376	2487.396048
625.334336	2491.466780
625.681243	2489.848570
626.028097	2486.889413
626.374899	2491.401245
626.721647	2491.572644
627.068343	2489.987202
627.414987	2492.548108
627.761577	2488.870586
628.108115	2492.439723
628.454600	2489.543580
628.801032	2490.027531
629.147412	2492.343941
629.493739	2491.431492
629.840014	2490.582058
630.186236	2489.326810
630.532405	2492.021307
630.878521	2492.653972
631.224585	2489.220946
631.570597	2489.772953
631.916556	2492.109527
632.262462	2491.184476
632.608316	2490.274547
632.954117	2488.469814
633.299866	2491.136585
633.645562	2488.870586
633.991206	2489.805720
634.336797	2488.379073
634.682336	2489.173055
635.027823	2487.489310
635.373257	2490.415700
635.718639	2487.312869
636.063968	2489.558703
636.409245	2488.270689
636.754470	2490.622387
637.099642	2487.625421
637.444762	2488.409320
637.789829	2488.522746
638.134845	2488.268168
638.479808	2487.264978
638.824719	2488.857983
639.169577	2485.258599
639.514383	2489.336893
639.859137	2487.176758
640.203839	2489.294043
640.548489	2490.108189
640.893086	2489.566265
641.237632	2488.295894
641.582125	2487.874958
641.926566	2484.124340
642.270955	2485.001500
642.615292	2482.740543
642.959576	2485.918990
643.303809	2484.880513
643.647990	2488.275730
643.992118	2486.677684
644.336195	2490.080463
