Dividing Wavelength (nm)	Counts (n)	Blue Motor Position (mm): 0.000000	Red Motor Position (mm): 35.500000	
326.493990	2053.171221
326.888308	2053.171221
327.282561	2053.171221
327.676750	2026.294309
328.070874	2028.235153
328.464933	2034.282017
328.858929	2042.141176
329.252859	2052.737682
329.646726	2066.381564
330.040528	2083.617269
330.434265	2097.636718
330.827938	2121.861983
331.221547	2139.949643
331.615091	2162.234064
332.008571	2181.743329
332.401986	2204.804087
332.795338	2221.747405
333.188625	2240.588718
333.581847	2261.096132
333.975006	2276.569953
334.368100	2295.489404
334.761129	2312.634368
335.154095	2330.018787
335.546996	2350.319514
335.939833	2389.922818
336.332606	2405.021074
336.725315	2414.258988
337.117960	2423.882551
337.510540	2435.847730
337.903056	2442.436518
338.295508	2448.919442
338.687896	2457.862449
339.080220	2462.434775
339.472480	2467.687658
339.864676	2470.455251
340.256807	2473.805098
340.648875	2474.266363
341.040879	2477.389358
341.432818	2476.544965
341.824694	2478.014461
342.216506	2476.212249
342.608253	2478.911787
342.999937	2477.825418
343.391557	2480.235089
343.783113	2476.182002
344.174605	2473.802577
344.566033	2473.883236
344.957397	2474.490695
345.348697	2473.177474
345.739934	2472.713688
346.131106	2466.651700
346.522215	2464.955352
346.913260	2464.683130
347.304241	2464.151288
347.695159	2461.504682
348.086012	2461.005608
348.476802	2456.277006
348.867528	2455.387242
349.258191	2451.447580
349.648789	2455.901440
350.039324	2446.741663
350.429796	2454.958744
350.820203	2454.283229
351.210548	2450.386417
351.600828	2451.238373
351.991045	2451.739967
352.381198	2452.397838
352.771288	2451.019082
353.161314	2447.833073
353.551276	2449.337858
353.941175	2449.405913
354.331010	2449.572271
354.720782	2449.395831
355.110490	2451.397169
355.500135	2450.817436
355.889717	2451.936572
356.279235	2450.678804
356.668689	2450.482199
357.058080	2452.506223
357.447408	2454.061419
357.836672	2452.501182
358.225873	2452.912036
358.615010	2456.866821
359.004084	2454.711728
359.393095	2455.162911
359.782043	2453.307766
360.170927	2457.658282
360.559748	2457.131481
360.948505	2457.118878
361.337199	2460.498972
361.725830	2460.602316
362.114398	2458.837912
362.502903	2459.876390
362.891344	2463.309415
363.279722	2460.488890
363.668037	2459.795731
364.056289	2462.230608
364.444478	2461.187090
364.832603	2466.024077
365.220665	2464.955352
365.608665	2462.568366
365.996601	2465.633387
366.384474	2466.492904
366.772284	2465.525003
367.160031	2466.225723
367.547715	2469.457103
367.935336	2465.852677
368.322893	2466.051803
368.710388	2466.346711
369.097820	2465.877883
369.485189	2465.119190
369.872495	2472.945581
370.259738	2469.492391
370.646918	2471.511373
371.034035	2471.639922
371.421090	2470.024232
371.808081	2475.375417
372.195010	2474.233596
372.581875	2476.759214
372.968678	2477.154944
373.355418	2478.077476
373.742096	2483.441263
374.128710	2485.556027
374.515262	2488.285812
374.901751	2488.248003
375.288177	2492.419558
375.674540	2497.173366
376.060841	2500.024139
376.447079	2503.371465
376.833254	2505.889521
377.219367	2514.063752
377.605417	2520.213960
377.991404	2522.608508
378.377329	2531.682585
378.763191	2535.932278
379.148991	2545.762528
379.534727	2555.008004
379.920402	2565.158367
380.306013	2573.153637
380.691563	2586.079156
381.077049	2595.518716
381.462474	2605.767382
381.847835	2620.409413
382.233134	2635.139665
382.618371	2644.556540
383.003545	2660.554642
383.388657	2675.201714
383.773706	2695.537729
384.158693	2708.853937
384.543618	2726.049313
384.928480	2738.100191
385.313280	2759.351175
385.698017	2780.090482
386.082692	2806.385140
386.467305	2821.637151
386.851856	2844.733198
387.236344	2872.197404
387.620770	2887.512429
388.005133	2908.090419
388.389435	2941.117539
388.773674	2953.896864
389.157851	2990.697287
389.541965	3014.718385
389.926018	3026.741537
390.310008	3059.693039
390.693936	3084.457707
391.077802	3110.212962
391.461606	3141.629433
391.845348	3159.301198
392.229027	3191.373018
392.612645	3228.798545
392.996200	3260.126795
393.379694	3298.426962
393.763125	3342.930268
394.146494	3367.576469
394.529801	3404.999474
394.913047	3446.931792
395.296230	3452.963533
395.679351	3478.088643
396.062410	3527.096221
396.445408	3506.339270
396.828343	3549.201680
397.211217	3580.421546
397.594028	3554.136970
397.976778	3602.413580
398.359466	3635.322232
398.742092	3646.354797
399.124656	3659.318124
399.507158	3723.411354
399.889598	3726.045357
400.271977	3788.535500
400.654294	3778.644756
401.036549	3838.503417
401.418742	3836.265145
401.800874	3904.933222
402.182944	3930.501954
402.564952	4015.130324
402.946898	4010.326105
403.328783	4008.249149
403.710606	4056.198084
404.092367	4129.771204
404.474067	4189.788661
404.855705	4173.334335
405.237282	4147.758041
405.618797	4242.972834
406.000250	4322.862520
406.381642	4403.294129
406.762972	4406.797731
407.144240	4375.353534
407.525447	4433.745219
407.906593	4450.139052
408.287677	4532.657699
408.668700	4564.222884
409.049661	4598.810240
409.430560	4637.211230
409.811399	4622.808653
410.192176	4670.767670
410.572891	4753.185494
410.953545	4857.983521
411.334138	4757.868726
411.714669	4863.274212
412.095139	4777.821613
412.475547	4890.060383
412.855894	4889.982245
413.236180	4995.571733
413.616405	4924.178912
413.996568	5024.215569
414.376670	5029.526425
414.756711	5025.672463
415.136691	5094.527063
415.516609	5179.510834
415.896466	5214.844281
416.276262	5296.369821
416.655997	5406.990381
417.035670	5498.711654
417.415283	5638.321369
417.794834	5711.823913
418.174324	5672.167676
418.553753	5674.453839
418.933121	5838.435012
419.312428	5852.895562
419.691674	5777.621053
420.070859	6006.570096
420.449983	5884.370006
420.829045	6074.910498
421.208047	6005.541700
421.586988	6159.102808
421.965867	6236.915538
422.344686	6317.763043
422.723444	6480.345296
423.102141	6100.209528
423.480777	6487.619681
423.859352	6302.339633
424.237866	6673.108937
424.616319	6669.542320
424.994712	6830.070303
425.373044	6746.314052
425.751314	7057.958183
426.129524	6777.175996
426.507673	7041.488733
426.885762	7089.145281
427.263789	7125.618029
427.641756	7214.125567
428.019662	7297.539020
428.397508	7340.164496
428.775292	7315.714900
429.153016	7486.468863
429.530679	7420.301198
429.908282	7468.020760
430.285824	7411.048160
430.663305	7701.121194
431.040726	7579.026968
431.418086	7585.010818
431.795385	7716.216929
432.172624	7904.128459
432.549802	7791.297354
432.926920	7925.875997
433.303977	7866.375258
433.680974	7912.441322
434.057910	8109.482382
434.434786	8159.835947
434.811601	8120.451932
435.188355	8453.513405
435.565050	8347.402158
435.941683	8356.365329
436.318257	8690.477883
436.694770	8643.446438
437.071222	8870.399184
437.447614	8652.593612
437.823946	8611.911500
438.200218	8764.391281
438.576429	8642.453331
438.952580	8813.451790
439.328670	8822.281371
439.704700	8891.408193
440.080670	8785.649826
440.456580	9059.460097
440.832429	9032.273155
441.208218	8772.321016
441.583947	8884.630362
441.959616	9003.495728
442.335224	9041.553919
442.710773	9115.832800
443.086261	9302.685688
443.461689	9019.403089
443.837057	9184.069859
444.212365	9402.495493
444.587612	9391.150377
444.962800	9279.647615
445.337927	9411.342718
445.712995	8951.360115
446.088002	9625.899267
446.462949	9678.246609
446.837837	9665.109362
447.212664	9694.451398
447.587431	10522.508808
447.962139	11519.901096
448.336786	12465.109881
448.711374	12251.997622
449.085901	11037.112313
449.460369	10960.779162
449.834776	10733.380273
450.209124	11646.736527
450.583412	11465.408744
450.957640	11785.471602
451.331808	11380.477904
451.705917	10805.940121
452.079965	10682.391523
452.453954	10885.953315
452.827883	10826.041722
453.201752	10799.459718
453.575562	10804.800820
453.949311	11145.048458
454.323001	11208.849301
454.696632	11135.853393
455.070202	11722.379041
455.443713	11776.021959
455.817164	11943.612598
456.190556	12263.735949
456.563888	12123.314609
456.937160	12384.925288
457.310373	11881.195551
457.683526	11889.944474
458.056619	11903.737071
458.429653	11970.691156
458.802628	12115.707508
459.175542	12161.488746
459.548398	12706.782796
459.921194	13288.945325
460.293930	13569.979569
460.666607	14428.384726
461.039224	15228.390635
461.411782	15577.707309
461.784280	15252.847793
462.156719	15199.545153
462.529099	15109.585763
462.901419	14465.404439
463.273680	14062.538109
463.645882	14285.256286
464.018024	14161.402697
464.390106	14535.186611
464.762130	15584.785089
465.134094	17107.947038
465.505999	19407.214787
465.877845	21673.341990
466.249631	22925.236930
466.621358	22481.433910
466.993026	21676.921209
467.364634	20940.552305
467.736184	20137.471292
468.107674	19517.971457
468.479105	19375.450476
468.850477	19103.853272
469.221790	18676.655813
469.593043	18011.435233
469.964238	17611.969161
470.335373	17662.907500
470.706449	18394.081495
471.077467	19238.852851
471.448425	21721.006100
471.819324	23599.566875
472.190164	23514.678885
472.560945	21769.612905
472.931667	20189.891730
473.302330	19867.071361
473.672934	19303.727460
474.043479	19721.984433
474.413965	19512.940386
474.784393	19321.177414
475.154761	20000.888790
475.525070	20122.453694
475.895321	19957.103848
476.265513	20487.632358
476.635645	21082.790982
477.005719	21141.933798
477.375734	21509.638081
477.745691	22137.667547
478.115588	22786.332977
478.485427	23971.369615
478.855207	25777.015141
479.224928	27599.820754
479.594591	29035.422902
479.964194	28683.041207
480.333739	29156.718105
480.703226	29377.424862
481.072653	29804.032506
481.442022	30326.669090
481.811333	30728.590203
482.180584	30310.842387
482.549777	30090.798542
482.918912	29843.088845
483.287988	29789.108170
483.657005	29644.633742
484.025964	29276.334603
484.394864	29465.750918
484.763706	29395.015968
485.132489	28857.850779
485.501213	28943.086608
485.869879	29104.713562
486.238487	29032.362922
486.607036	29307.554469
486.975527	28987.811725
487.343959	29339.502782
487.712333	29698.921928
488.080648	29638.906991
488.448905	30085.578428
488.817104	29961.266094
489.185244	30792.935491
489.553326	31738.479512
489.921350	33626.840290
490.289315	36156.332494
490.657222	37069.575322
491.025070	37651.447984
491.392861	37394.165136
491.760593	36622.956817
492.128267	35622.499507
492.495883	34643.840147
492.863440	33727.678491
493.230939	32747.237082
493.598380	32177.989990
493.965763	32015.790865
494.333088	31522.176204
494.700354	31320.383856
495.067563	31283.170059
495.434713	31159.258497
495.801805	31439.768462
496.168839	31279.532866
496.535815	31112.816867
496.902733	31247.322414
497.269593	31065.987069
497.636395	31215.986601
498.003139	31490.313591
498.369825	31244.363256
498.736453	31640.565181
499.103023	31483.934011
499.469535	31577.220563
499.835989	31692.839426
500.202385	31553.549825
500.568723	31596.074478
500.935003	31909.130132
501.301226	31767.168719
501.667390	32509.776051
502.033497	32711.107133
502.399546	32517.242000
502.765537	32100.278083
503.131470	32589.345623
503.497345	33016.200284
503.863163	31949.597994
504.228923	32743.824221
504.594625	33131.816627
504.960269	32590.767228
505.325856	33261.429733
505.691385	32927.533949
506.056856	33244.854419
506.422270	33738.471601
506.787625	33241.108842
507.152924	33709.860532
507.518164	33877.627612
507.883347	33458.397696
508.248472	33603.189717
508.613540	34297.490192
508.978550	34520.828431
509.343503	34348.486505
509.708398	34709.929674
510.073236	35291.928365
510.438016	35384.413373
510.802738	35047.936518
511.167403	35602.662567
511.532010	35846.379670
511.896561	36368.854937
512.261053	37102.738552
512.625488	36886.483135
512.989866	36792.790770
513.354186	36846.630293
513.718449	36810.712072
514.082655	37685.253962
514.446803	37357.281534
514.810894	37979.054928
515.174927	37978.117274
515.538904	37971.982190
515.902822	38596.596275
516.266684	38264.832899
516.630488	38627.115420
516.994235	38608.566494
517.357925	39178.489101
517.721558	39415.902242
518.085133	39787.014344
518.448651	39964.276437
518.812112	39846.114311
519.175516	39965.100665
519.538863	40417.718143
519.902152	40465.452828
520.265385	40995.187357
520.628560	40971.703142
520.991678	40918.450913
521.354739	41113.445264
521.717743	41466.220169
522.080690	41320.450165
522.443580	41998.308917
522.806413	41983.082112
523.169189	42094.337856
523.531908	42280.900878
523.894569	42128.519400
524.257174	42272.172120
524.619722	42579.082607
524.982213	42713.361302
525.344647	42722.657189
525.707025	42799.655773
526.069345	43199.197463
526.431608	43086.134464
526.793815	43427.105507
527.155964	42940.213225
527.518057	43164.073223
527.880093	42972.799243
528.242072	43559.206423
528.603995	43248.963733
528.965860	43104.930406
529.327669	43284.912201
529.689421	43301.484995
530.051117	43230.820621
530.412755	43428.068368
530.774337	43429.774798
531.135862	43325.359899
531.497331	43417.597891
531.858743	43359.790980
532.220098	43711.040936
532.581396	43361.920868
532.942638	43087.193106
533.303824	43263.870425
533.664953	43265.357566
534.026025	42876.278791
534.387040	43383.499527
534.747999	43350.472407
535.108902	43626.100014
535.469748	42882.310532
535.830537	43080.952158
536.191270	43246.934669
536.551947	42919.383177
536.912567	43104.388482
537.273131	43167.234027
537.633638	42737.851227
537.994089	42829.872449
538.354483	42501.612676
538.714821	43037.941033
539.075103	43225.340886
539.435328	43010.791899
539.795497	42685.705532
540.155609	42716.391035
540.515665	43198.169067
540.875665	42419.502362
541.235609	42587.576952
541.595496	42636.965136
541.955328	43079.192795
542.315102	42445.676033
542.674821	42246.860487
543.034483	42051.369582
543.394090	41969.226500
543.753640	41836.838238
544.113134	42711.543966
544.472571	41778.537294
544.831953	42709.255282
545.191278	41911.049064
545.550548	41515.620957
545.909761	41984.972544
546.268918	41988.755930
546.628019	42240.720361
546.987064	41595.553492
547.346053	40872.624304
547.704986	41571.920563
548.063863	41113.588937
548.422684	41164.103819
548.781449	40643.188790
549.140158	40998.355722
549.498811	40645.580817
549.857408	39958.373245
550.215949	40567.947048
550.574434	40294.320779
550.932864	40115.836206
551.291237	40590.861613
551.649555	40213.853881
552.007817	40217.110467
552.366022	39821.977266
552.724173	39732.514430
553.082267	39894.925283
553.440305	40090.819480
553.798288	39262.018500
554.156215	39441.884349
554.514086	39449.393147
554.871902	38933.728479
555.229661	38922.794217
555.587365	38489.476797
555.945014	38421.673277
556.302606	38276.644322
556.660143	38165.955707
557.017625	38192.797331
557.375050	37762.260107
557.732421	37905.822087
558.089735	37787.097872
558.446994	37494.768923
558.804197	37708.957467
559.161345	37407.254492
559.518437	36685.283123
559.875474	36708.787503
560.232455	36703.670732
560.589381	36540.546555
560.946251	36213.542028
561.303065	36527.028701
561.659825	36088.027380
562.016528	35731.806846
562.373177	35217.551181
562.729770	35522.319178
563.086307	34946.117814
563.442789	35163.131925
563.799216	34854.724215
564.155587	34570.786266
564.511904	34346.207903
564.868164	34181.969631
565.224370	34206.567942
565.580520	33793.929335
565.936615	33729.400045
566.292654	33262.523664
566.648638	33318.495595
567.004567	33058.472879
567.360441	32903.154929
567.716260	32483.249499
568.072023	32555.363205
568.427732	32267.563732
568.783385	31733.017422
569.138982	31812.438280
569.494525	31681.776614
569.850013	31206.055528
570.205445	31088.354668
570.560823	30704.483406
570.916145	30406.742777
571.271412	30348.426710
571.626625	29904.159903
571.981782	29733.831918
572.336884	29268.243552
572.691931	29246.775798
573.046923	28816.732607
573.401860	28488.089706
573.756743	28278.039948
574.111570	28158.557041
574.466342	27886.143169
574.821059	27760.232790
575.175722	27238.004540
575.530330	27064.646821
575.884882	26655.511816
576.239380	26384.645578
576.593823	26228.551291
576.948211	25972.503525
577.302544	25506.247206
577.656823	25273.638285
578.011047	25218.833381
578.365216	24922.274903
578.719330	24553.753954
579.073389	24334.156251
579.427394	24141.521160
579.781344	23892.273911
580.135239	23557.513569
580.489080	23384.785994
580.842866	22924.639554
581.196597	22961.860913
581.550273	22761.674173
581.903895	22511.960618
582.257463	22523.459489
582.610975	22045.479967
582.964434	21999.975992
583.317837	21558.484341
583.671186	21354.667970
584.024481	21277.220724
584.377721	20869.797190
584.730906	20768.255749
585.084037	20639.817231
585.437113	20324.729993
585.790135	20181.813281
586.143103	19787.567324
586.496016	19669.153141
586.848874	19521.001191
587.201679	19355.500110
587.554428	18946.591957
587.907124	18873.013796
588.259765	18600.504142
588.612352	18484.882758
588.964884	18078.243125
589.317362	18009.940531
589.669786	17830.253643
590.022155	17588.547961
590.374470	17580.950942
590.726731	17247.062720
591.078937	16825.206363
591.431090	16774.971265
591.783188	16427.098882
592.135232	16185.920000
592.487222	16109.153309
592.839157	15996.105434
593.191038	15709.614140
593.542866	15477.078316
593.894639	15123.453977
594.246358	15059.086004
594.598022	14892.271703
594.949633	14608.300986
595.301190	14446.316110
595.652692	14280.341161
596.004141	14266.629222
596.355535	13788.538794
596.706876	13641.667298
597.058162	13414.719593
597.409395	13403.818097
597.760573	13326.201972
598.111698	13073.937592
598.462768	12891.611661
598.813785	12753.095877
599.164748	12506.366684
599.515657	12438.311107
599.866511	12174.666322
600.217312	12208.663864
600.568060	11827.605565
600.918753	11897.997717
601.269392	11745.071795
601.619978	11551.136086
601.970510	11474.611370
602.320988	11377.982533
602.671412	11317.362658
603.021783	11171.663230
603.372100	10944.975144
603.722363	10842.112921
604.072572	10739.898485
604.422728	10620.082861
604.772830	10455.978180
605.122878	10375.869204
605.472872	10240.620088
605.822813	10177.701447
606.172701	10013.773206
606.522534	9967.341658
606.872314	9898.686184
607.222041	9757.879195
607.571714	9714.225324
607.921333	9520.463534
608.270899	9450.267988
608.620411	9415.080734
608.969870	9276.874981
609.319276	9178.517028
609.668627	9091.357998
610.017926	9057.211743
610.367171	8984.475455
610.716362	8900.625943
611.065500	8789.269375
611.414585	8731.228050
611.763616	8661.690374
612.112594	8560.025424
612.461518	8491.170824
612.810389	8462.653017
613.159207	8341.294800
613.507971	8248.517405
613.856682	8242.392403
614.205340	8128.812686
614.553945	8144.480592
614.902496	7976.032957
615.250994	7946.769059
615.599439	7876.560909
615.947830	7819.046385
616.296169	7736.726863
616.644454	7664.035945
616.992686	7612.054088
617.340864	7592.930470
617.688990	7466.024463
618.037063	7482.108265
618.385082	7393.734317
618.733048	7359.192331
619.080961	7280.504961
619.428821	7215.080866
619.776628	7147.088304
620.124382	7057.774181
620.472083	7000.083216
620.819731	6941.613393
621.167326	6820.643345
621.514868	6743.478403
621.862357	6619.798735
622.209793	6555.035031
622.557176	6443.275171
622.904506	6346.452250
623.251783	6252.681747
623.599007	6152.209030
623.946179	6079.936528
624.293297	5994.834290
624.640363	5885.499224
624.987376	5819.475233
625.334336	5744.616618
625.681243	5655.816693
626.028097	5590.039718
626.374899	5534.213980
626.721647	5474.604857
627.068343	5413.800980
627.414987	5344.593499
627.761577	5278.675371
628.108115	5261.474954
628.454600	5165.693031
628.801032	5132.665912
629.147412	5084.089353
629.493739	5037.693094
629.840014	4970.930573
630.186236	4959.605621
630.532405	4891.582812
630.878521	4863.377556
631.224585	4815.552129
631.570597	4765.216208
631.916556	4742.019339
632.262462	4703.076425
632.608316	4667.967309
632.954117	4623.746308
633.299866	4589.423612
633.645562	4549.487591
633.991206	4485.361593
634.336797	4429.588788
634.682336	4383.676479
635.027823	4336.246783
635.373257	4295.179023
635.718639	4244.533071
636.063968	4210.931260
636.409245	4142.338801
636.754470	4109.440231
637.099642	4071.558480
637.444762	4017.971015
637.789829	3995.616018
