Dividing Wavelength (nm)	Counts (n)	Blue Motor Position (mm): 0.000000	Red Motor Position (mm): 2.500000	
326.493990	2056.712631
326.888308	2056.712631
327.282561	2056.712631
327.676750	2030.596934
328.070874	2033.425021
328.464933	2040.089427
328.858929	2047.578061
329.252859	2056.715152
329.646726	2070.628737
330.040528	2087.909812
330.434265	2101.740218
330.827938	2127.558487
331.221547	2144.607669
331.615091	2166.347645
332.008571	2188.163238
332.401986	2208.141331
332.795338	2226.770915
333.188625	2245.524008
333.581847	2264.723242
333.975006	2281.709410
334.368100	2299.827317
334.761129	2317.771304
335.154095	2330.911071
335.546996	2345.603514
335.939833	2361.881400
336.332606	2373.402957
336.725315	2383.984339
337.117960	2396.922460
337.510540	2404.138872
337.903056	2412.161868
338.295508	2422.748292
338.687896	2428.936308
339.080220	2434.199272
339.472480	2436.732452
339.864676	2442.328133
340.256807	2446.461879
340.648875	2447.439863
341.040879	2448.382559
341.432818	2449.799123
341.824694	2451.041767
342.216506	2452.072683
342.608253	2448.695110
342.999937	2448.876592
343.391557	2450.046140
343.783113	2446.789554
344.174605	2447.134873
344.566033	2444.027002
344.957397	2443.366611
345.348697	2440.646908
345.739934	2439.973914
346.131106	2435.119283
346.522215	2435.288162
346.913260	2433.299427
347.304241	2431.953438
347.695159	2432.439910
348.086012	2429.206010
348.476802	2427.519744
348.867528	2426.924888
349.258191	2420.847777
349.648789	2420.414237
350.039324	2417.848290
350.429796	2424.222829
350.820203	2420.499937
351.210548	2420.888106
351.600828	2419.060687
351.991045	2419.083373
352.381198	2418.589340
352.771288	2419.776531
353.161314	2417.444998
353.551276	2418.266706
353.941175	2417.218146
354.331010	2419.375760
354.720782	2419.204360
355.110490	2418.216294
355.500135	2416.613207
355.889717	2420.948600
356.279235	2419.693352
356.668689	2419.370718
357.058080	2420.416758
357.447408	2419.315266
357.836672	2421.518250
358.225873	2420.053795
358.615010	2423.980854
359.004084	2420.633528
359.393095	2425.157963
359.782043	2424.915988
360.170927	2424.684095
360.559748	2424.452202
360.948505	2422.894485
361.337199	2426.418252
361.725830	2423.620411
362.114398	2425.646955
362.502903	2426.788776
362.891344	2427.607964
363.279722	2427.754157
363.668037	2430.103335
364.056289	2428.152408
364.444478	2429.498397
364.832603	2428.202820
365.220665	2429.715166
365.608665	2430.478901
365.996601	2429.059816
366.384474	2429.024528
366.772284	2430.884714
367.160031	2430.418407
367.547715	2431.890424
367.935336	2432.702050
368.322893	2430.272214
368.710388	2428.739703
369.097820	2430.723397
369.485189	2429.357244
369.872495	2433.324632
370.259738	2433.314550
370.646918	2433.979982
371.034035	2433.599375
371.421090	2433.122986
371.808081	2434.675662
372.195010	2433.725404
372.581875	2436.182967
372.968678	2436.429983
373.355418	2438.693461
373.742096	2435.204983
374.128710	2433.932091
374.515262	2438.441403
374.901751	2436.177925
375.288177	2438.736311
375.674540	2439.109356
376.060841	2439.008533
376.447079	2439.482402
376.833254	2440.871240
377.219367	2442.449121
377.605417	2443.742177
377.991404	2441.705551
378.377329	2441.881991
378.763191	2441.289655
379.148991	2442.413833
379.534727	2441.841662
379.920402	2446.371138
380.306013	2440.992227
380.691563	2446.955912
381.077049	2446.648402
381.462474	2449.305090
381.847835	2449.060594
382.233134	2450.983794
382.618371	2447.770059
383.003545	2452.339865
383.388657	2446.960953
383.773706	2451.497992
384.158693	2453.169134
384.543618	2453.491768
384.928480	2454.104268
385.313280	2454.429423
385.698017	2453.552262
386.082692	2454.895730
386.467305	2457.045782
386.851856	2458.457305
387.236344	2459.899075
387.620770	2453.592591
388.005133	2454.925977
388.389435	2458.616101
388.773674	2452.546552
389.157851	2461.880248
389.541965	2459.967130
389.926018	2464.383181
390.310008	2462.434775
390.693936	2461.524847
391.077802	2459.042079
391.461606	2462.091977
391.845348	2459.165587
392.229027	2462.822944
392.612645	2461.320680
392.996200	2459.873869
393.379694	2463.692543
393.763125	2461.358489
394.146494	2458.787500
394.529801	2461.267748
394.913047	2461.580300
395.296230	2456.589557
395.679351	2458.976544
396.062410	2458.056533
396.445408	2456.672736
396.828343	2456.879424
397.211217	2459.470577
397.594028	2453.264916
397.976778	2452.289453
398.359466	2457.164249
398.742092	2454.336162
399.124656	2451.805502
399.507158	2453.486727
399.889598	2456.584516
400.271977	2450.877930
400.654294	2450.207457
401.036549	2452.748198
401.418742	2453.653085
401.800874	2450.653599
402.182944	2452.629731
402.564952	2452.730554
402.946898	2451.860955
403.328783	2453.080914
403.710606	2452.047478
404.092367	2449.040429
404.474067	2450.918259
404.855705	2451.530759
405.237282	2449.915070
405.618797	2450.663681
406.000250	2453.665688
406.381642	2451.671912
406.762972	2451.097220
407.144240	2450.552776
407.525447	2450.020934
407.906593	2447.432301
408.287677	2454.391614
408.668700	2452.803651
409.049661	2452.654937
409.430560	2452.334823
409.811399	2451.808023
410.192176	2452.453291
410.572891	2455.538477
410.953545	2453.121243
411.334138	2454.837756
411.714669	2454.106789
412.095139	2455.044444
412.475547	2454.126954
412.855894	2454.200050
413.236180	2457.197016
413.616405	2454.212653
413.996568	2456.445884
414.376670	2454.615946
414.756711	2453.476645
415.136691	2456.846656
415.516609	2457.670885
415.896466	2456.551749
416.276262	2455.697273
416.655997	2456.012345
417.035670	2456.438323
417.415283	2458.016204
417.794834	2457.774228
418.174324	2458.628704
418.553753	2457.844805
418.933121	2456.425720
419.312428	2457.459156
419.691674	2457.844805
420.070859	2458.046451
420.449983	2460.312449
420.829045	2457.280195
421.208047	2459.964610
421.586988	2457.310442
421.965867	2458.590895
422.344686	2460.539301
422.723444	2459.629373
423.102141	2459.296657
423.480777	2458.422017
423.859352	2458.364043
424.237866	2459.215998
424.616319	2457.401183
424.994712	2459.115175
425.373044	2458.865638
425.751314	2459.962089
426.129524	2454.636110
426.507673	2457.302881
426.885762	2454.673919
427.263789	2458.054012
427.641756	2460.153653
428.019662	2461.575258
428.397508	2460.967799
428.775292	2461.000567
429.153016	2461.136678
429.530679	2460.917388
429.908282	2459.556276
430.285824	2461.252625
430.663305	2460.763633
431.040726	2459.735237
431.418086	2460.279682
431.795385	2462.225567
432.172624	2460.652727
432.549802	2460.289764
432.926920	2461.451750
433.303977	2460.698098
433.680974	2463.226236
434.057910	2458.419496
434.434786	2460.488890
434.811601	2460.022583
435.188355	2462.986782
435.565050	2462.674230
435.941683	2462.202882
436.318257	2465.406535
436.694770	2462.013839
437.071222	2462.840588
437.447614	2463.047275
437.823946	2460.798921
438.200218	2464.804117
438.576429	2464.080712
438.952580	2463.332101
439.328670	2465.938377
439.704700	2460.360340
440.080670	2464.499128
440.456580	2464.000053
440.832429	2462.462502
441.208218	2464.909982
441.583947	2464.393263
441.959616	2461.834878
442.335224	2461.265228
442.710773	2461.507203
443.086261	2463.669858
443.461689	2462.346555
443.837057	2464.239508
444.212365	2467.324694
444.587612	2463.228757
444.962800	2463.974848
445.337927	2463.730352
445.712995	2460.037707
446.088002	2467.377627
446.462949	2466.089612
446.837837	2465.976186
447.212664	2464.753706
447.587431	2465.134313
447.962139	2464.060547
448.336786	2465.136834
448.711374	2467.536423
449.085901	2467.186063
449.460369	2465.772019
449.834776	2467.181022
450.209124	2468.433748
450.583412	2468.426187
450.957640	2467.017184
451.331808	2466.308902
451.705917	2465.741772
452.079965	2466.692030
452.453954	2465.829992
452.827883	2466.465178
453.201752	2464.335290
453.575562	2465.865280
453.949311	2466.460137
454.323001	2466.066927
454.696632	2466.021556
455.070202	2466.692030
455.443713	2471.004737
455.817164	2467.980044
456.190556	2468.476598
456.563888	2468.935343
456.937160	2466.356793
457.310373	2469.595734
457.683526	2467.417956
458.056619	2468.937864
458.429653	2466.815538
458.802628	2468.302678
459.175542	2465.545167
459.548398	2468.670682
459.921194	2467.329736
460.293930	2470.535909
460.666607	2468.602627
461.039224	2467.097843
461.411782	2468.584983
461.784280	2472.055817
462.156719	2469.212607
462.529099	2469.447020
462.901419	2467.387709
463.273680	2467.312092
463.645882	2464.163891
464.018024	2466.598768
464.390106	2464.816720
464.762130	2467.768316
465.134094	2470.356948
465.505999	2469.741928
465.877845	2472.010447
466.249631	2472.186887
466.621358	2468.080868
466.993026	2471.140848
467.364634	2473.870633
467.736184	2471.168574
468.107674	2470.447689
468.479105	2468.088429
468.850477	2470.571197
469.221790	2471.334932
469.593043	2466.984417
469.964238	2472.438945
470.335373	2473.742083
470.706449	2471.702937
471.077467	2470.019191
471.448425	2471.541620
471.819324	2471.309727
472.190164	2469.779736
472.560945	2472.776702
472.931667	2470.765282
473.302330	2471.176136
473.672934	2472.101188
474.043479	2470.556074
474.413965	2471.894500
474.784393	2472.370889
475.154761	2470.102370
475.525070	2469.797380
475.895321	2470.571198
476.265513	2472.491877
476.635645	2472.045735
477.005719	2470.414922
477.375734	2470.235961
477.745691	2472.852320
478.115588	2471.271918
478.485427	2471.811321
478.855207	2472.620427
479.224928	2471.284521
479.594591	2472.582618
479.964194	2473.028760
480.333739	2471.307206
480.703226	2473.633698
481.072653	2470.790488
481.442022	2474.868781
481.811333	2469.812504
482.180584	2469.477267
482.549777	2471.271918
482.918912	2469.295786
483.287988	2473.522793
483.657005	2471.168574
484.025964	2473.800057
484.394864	2471.546661
484.763706	2473.386682
485.132489	2472.443986
485.501213	2473.474902
485.869879	2475.443473
486.238487	2475.776189
486.607036	2473.797536
486.975527	2471.834007
487.343959	2473.101857
487.712333	2473.941209
488.080648	2473.840386
488.448905	2472.446507
488.817104	2475.662763
489.185244	2473.729480
489.553326	2474.281487
489.921350	2473.059007
490.289315	2474.210911
490.657222	2475.733339
491.025070	2472.748976
491.392861	2475.531693
491.760593	2474.664614
492.128267	2473.873153
492.495883	2472.600262
492.863440	2473.502628
493.230939	2474.102526
493.598380	2475.219141
493.965763	2473.996662
494.333088	2472.917855
494.700354	2474.868781
495.067563	2472.479274
495.434713	2473.021198
495.801805	2470.838379
496.168839	2475.539255
496.535815	2474.823411
496.902733	2472.698564
497.269593	2476.144193
497.636395	2472.257463
498.003139	2478.082517
498.369825	2475.209059
498.736453	2472.801908
499.103023	2473.973976
499.469535	2475.357773
499.835989	2471.491208
500.202385	2472.630509
500.568723	2470.026753
500.935003	2473.006075
501.301226	2467.072637
501.667390	2475.662763
502.033497	2476.401292
502.399546	2478.342136
502.765537	2471.760910
503.131470	2477.238123
503.497345	2475.032619
503.863163	2473.570684
504.228923	2474.641929
504.594625	2476.776858
504.960269	2474.031950
505.325856	2476.320633
505.691385	2476.169399
506.056856	2476.098823
506.422270	2473.409367
506.787625	2475.337608
507.152924	2476.179481
507.518164	2475.687969
507.883347	2472.620427
508.248472	2475.188894
508.613540	2471.735704
508.978550	2475.400623
509.343503	2475.713174
509.708398	2476.678555
510.073236	2473.989100
510.438016	2474.125211
510.802738	2473.013637
511.167403	2474.536065
511.532010	2475.032619
511.896561	2477.414564
512.261053	2473.754686
512.625488	2473.996662
512.989866	2475.582104
513.354186	2479.325161
513.718449	2475.249388
514.082655	2477.132259
514.446803	2476.529841
514.810894	2476.325675
515.174927	2478.079996
515.538904	2476.577732
515.902822	2478.105202
516.266684	2476.121508
516.630488	2477.283494
516.994235	2476.166878
517.357925	2476.144193
517.721558	2476.126549
518.085133	2475.065386
518.448651	2474.586477
518.812112	2471.506332
519.175516	2473.953812
519.538863	2469.031125
519.902152	2472.726291
520.265385	2474.697382
520.628560	2477.346508
520.991678	2473.056486
521.354739	2476.557568
521.717743	2475.461117
522.080690	2478.329533
522.443580	2476.040849
522.806413	2476.610500
523.169189	2475.791312
523.531908	2476.156796
523.894569	2477.399440
524.257174	2476.267701
524.619722	2474.606641
524.982213	2475.597228
525.344647	2477.286014
525.707025	2477.210397
526.069345	2477.976653
526.431608	2475.438432
526.793815	2475.456076
527.155964	2476.630664
527.518057	2476.320633
527.880093	2477.485140
528.242072	2476.701241
528.603995	2476.373566
528.965860	2477.709471
529.327669	2475.635037
529.689421	2477.848103
530.051117	2478.120325
530.412755	2476.746611
530.774337	2479.713330
531.135862	2473.888277
531.497331	2479.057980
531.858743	2474.699903
532.220098	2479.705768
532.581396	2478.097640
532.942638	2475.274594
533.303824	2477.449852
533.664953	2478.127887
534.026025	2473.668987
534.387040	2478.011941
534.747999	2477.182671
535.108902	2477.233082
535.469748	2475.892135
535.830537	2477.724595
536.191270	2479.012610
536.551947	2476.045891
536.912567	2474.004223
537.273131	2475.607310
537.633638	2474.185705
537.994089	2478.112764
538.354483	2477.185191
538.714821	2480.575367
539.075103	2476.358442
539.435328	2477.210397
539.795497	2478.899184
540.155609	2477.253247
540.515665	2478.213587
540.875665	2478.931951
541.235609	2480.567806
541.595496	2476.774337
541.955328	2477.679224
542.315102	2477.089409
542.674821	2474.785602
543.034483	2477.313741
543.394090	2479.267188
543.753640	2476.499594
544.113134	2479.930100
544.472571	2477.089409
544.831953	2476.663432
545.191278	2478.158134
545.550548	2477.207877
545.909761	2477.263329
546.268918	2474.561271
546.628019	2476.872640
546.987064	2474.969604
547.346053	2478.624441
547.704986	2477.981694
548.063863	2477.699389
548.422684	2476.809625
548.781449	2476.015644
549.140158	2479.488999
549.498811	2477.316261
549.857408	2476.660911
550.215949	2477.757362
550.574434	2476.242496
550.932864	2476.852475
551.291237	2479.773824
551.649555	2478.810963
552.007817	2478.347177
552.366022	2478.861375
552.724173	2477.533031
553.082267	2477.638895
553.440305	2475.279635
553.798288	2475.589666
554.156215	2478.263998
554.514086	2474.548668
554.871902	2472.081023
555.229661	2476.391210
555.587365	2471.904583
555.945014	2479.478916
556.302606	2477.792650
556.660143	2477.959008
557.017625	2477.555716
557.375050	2479.206694
557.732421	2477.480099
558.089735	2479.857003
558.446994	2478.382465
558.804197	2474.752835
559.161345	2476.194605
559.518437	2477.270891
559.875474	2476.484471
560.232455	2477.394399
560.589381	2478.349698
560.946251	2478.067393
561.303065	2477.069245
561.659825	2479.478916
562.016528	2476.844913
562.373177	2476.708802
562.729770	2478.206025
563.086307	2478.369863
563.442789	2479.231900
563.799216	2475.995479
564.155587	2478.614358
564.511904	2478.775675
564.868164	2479.887250
565.224370	2477.049080
565.580520	2478.402630
565.936615	2479.095789
566.292654	2478.944554
566.648638	2478.004379
567.004567	2479.216776
567.360441	2478.521097
567.716260	2478.208546
568.072023	2478.614358
568.427732	2476.275263
568.783385	2476.456745
569.138982	2480.078814
569.494525	2474.914152
569.850013	2478.813484
570.205445	2476.781899
570.560823	2478.097640
570.916145	2480.240131
571.271412	2479.398258
571.626625	2480.335913
571.981782	2481.142497
572.336884	2476.912969
572.691931	2473.916003
573.046923	2474.357104
573.401860	2471.586990
573.756743	2479.930100
574.111570	2476.587815
574.466342	2480.111581
574.821059	2479.819194
575.175722	2478.584112
575.530330	2479.604945
575.884882	2478.137969
576.239380	2476.701241
576.593823	2480.129225
576.948211	2478.032105
577.302544	2478.997486
577.656823	2476.948257
578.011047	2480.519915
578.365216	2478.400109
578.719330	2479.753659
579.073389	2478.523618
579.427394	2476.073617
579.781344	2476.829790
580.135239	2476.769296
580.489080	2476.187043
580.842866	2477.827938
581.196597	2483.915132
581.550273	2479.244503
581.903895	2478.082517
582.257463	2477.323823
582.610975	2477.762403
582.964434	2477.364152
583.317837	2477.386837
583.671186	2479.922538
584.024481	2479.040336
584.377721	2480.807260
584.730906	2479.350367
585.084037	2477.664101
585.437113	2476.597897
585.790135	2479.050418
586.143103	2474.563791
586.496016	2479.241982
586.848874	2478.422795
587.201679	2477.074286
587.554428	2479.103350
587.907124	2479.662918
588.259765	2478.682414
588.612352	2477.762403
588.964884	2477.089409
589.317362	2479.922538
589.669786	2479.075624
590.022155	2474.513380
590.374470	2475.261991
590.726731	2474.483133
591.078937	2475.042701
591.431090	2475.950109
591.783188	2476.988586
592.135232	2478.379945
592.487222	2477.593525
592.839157	2478.246354
593.191038	2479.123515
593.542866	2478.516056
593.894639	2478.911787
594.246358	2477.608648
594.598022	2478.198463
594.949633	2474.808287
595.301190	2478.889101
595.652692	2476.618062
596.004141	2476.905407
596.355535	2477.031436
596.706876	2477.578401
597.058162	2478.453042
597.409395	2477.946406
597.760573	2477.520428
598.111698	2475.319964
598.462768	2480.650985
598.813785	2479.431025
599.164748	2478.289204
599.515657	2478.816005
599.866511	2478.140490
600.217312	2477.656539
600.568060	2476.555047
600.918753	2479.650316
601.269392	2478.901704
601.619978	2480.545120
601.970510	2474.926754
602.320988	2478.805922
602.671412	2479.002527
603.021783	2477.283494
603.372100	2477.800212
603.722363	2478.458083
604.072572	2480.310707
604.422728	2476.907928
604.772830	2478.478247
605.122878	2476.676035
605.472872	2476.444142
605.822813	2477.820377
606.172701	2477.235603
606.522534	2478.392548
606.872314	2477.409523
607.222041	2477.681745
607.571714	2474.510859
607.921333	2472.270066
608.270899	2476.272742
608.620411	2472.809470
608.969870	2478.795840
609.319276	2477.502784
609.668627	2479.355408
610.017926	2475.377938
610.367171	2475.418267
610.716362	2478.460603
611.065500	2478.077476
611.414585	2477.868268
611.763616	2479.141159
612.112594	2477.197794
612.461518	2479.965388
612.810389	2476.728967
613.159207	2479.189050
613.507971	2477.331385
613.856682	2478.931951
614.205340	2476.973463
614.553945	2477.487661
614.902496	2478.944554
615.250994	2477.172588
615.599439	2478.052270
615.947830	2478.178299
616.296169	2476.358442
616.644454	2478.500933
616.992686	2477.792650
617.340864	2477.906076
617.688990	2479.052939
618.037063	2477.608648
618.385082	2477.911118
618.733048	2476.000520
619.080961	2476.265181
619.428821	2476.834831
619.776628	2478.188381
620.124382	2477.616210
620.472083	2479.241982
620.819731	2477.308700
621.167326	2477.321303
621.514868	2476.366004
621.862357	2477.129739
622.209793	2476.184522
622.557176	2479.584781
622.904506	2478.243834
623.251783	2478.286683
623.599007	2476.844913
623.946179	2478.601756
624.293297	2479.703248
624.640363	2480.860193
624.987376	2476.340798
625.334336	2472.239819
625.681243	2473.706795
626.028097	2472.786785
626.374899	2478.364821
626.721647	2476.862558
627.068343	2479.549493
627.414987	2477.459934
627.761577	2477.994297
628.108115	2478.032105
628.454600	2476.877681
628.801032	2478.747949
629.147412	2479.070583
629.493739	2477.684266
629.840014	2476.681076
630.186236	2479.811633
630.532405	2477.782568
630.878521	2477.258288
631.224585	2476.756693
631.570597	2477.298617
631.916556	2478.231231
632.262462	2478.415233
632.608316	2477.830459
632.954117	2475.783751
633.299866	2476.900366
633.645562	2479.541931
633.991206	2478.256437
634.336797	2478.185860
634.682336	2475.965232
635.027823	2478.344657
635.373257	2478.395068
635.718639	2479.496560
636.063968	2478.768114
636.409245	2476.842393
636.754470	2479.093268
637.099642	2477.853144
637.444762	2478.861375
637.789829	2477.243165
638.134845	2478.339616
638.479808	2476.791981
638.824719	2479.325161
639.169577	2478.700058
639.514383	2475.766107
639.859137	2475.584625
640.203839	2477.633854
640.548489	2477.568319
640.893086	2476.323154
641.237632	2479.100830
641.582125	2478.773155
641.926566	2475.367855
642.270955	2476.247537
642.615292	2475.299800
642.959576	2474.160499
643.303809	2472.612865
643.647990	2476.925572
643.992118	2478.256437
644.336195	2475.619913
