Dividing Wavelength (nm)	Counts (n)	Blue Motor Position (mm): 0.000000	Red Motor Position (mm): 2.000000	
326.493990	2056.584082
326.888308	2056.584082
327.282561	2056.584082
327.676750	2032.608354
328.070874	2032.691533
328.464933	2038.612368
328.858929	2047.759542
329.252859	2058.240101
329.646726	2072.685527
330.040528	2086.321848
330.434265	2104.729622
330.827938	2126.066305
331.221547	2147.453401
331.615091	2165.072233
332.008571	2185.904802
332.401986	2207.869109
332.795338	2225.785370
333.188625	2246.444018
333.581847	2266.797677
333.975006	2285.386932
334.368100	2302.569704
334.761129	2317.138639
335.154095	2333.353510
335.546996	2350.682477
335.939833	2359.335617
336.332606	2373.813811
336.725315	2387.296377
337.117960	2397.986144
337.510540	2404.209448
337.903056	2413.190264
338.295508	2420.015986
338.687896	2428.124682
339.080220	2431.141813
339.472480	2439.116918
339.864676	2440.551126
340.256807	2445.574636
340.648875	2449.320213
341.040879	2448.198557
341.432818	2450.235183
341.824694	2449.592436
342.216506	2448.395162
342.608253	2449.118567
342.999937	2449.453804
343.391557	2448.201077
343.783113	2448.155707
344.174605	2445.307455
344.566033	2448.168310
344.957397	2442.625561
345.348697	2442.454162
345.739934	2440.735128
346.131106	2438.746393
346.522215	2435.746907
346.913260	2436.661876
347.304241	2434.600044
347.695159	2432.729776
348.086012	2430.879673
348.476802	2428.414548
348.867528	2425.273910
349.258191	2421.346851
349.648789	2419.703435
350.039324	2418.985070
350.429796	2422.657551
350.820203	2421.513209
351.210548	2424.444640
351.600828	2419.312745
351.991045	2418.168403
352.381198	2422.849115
352.771288	2418.788465
353.161314	2417.250913
353.551276	2420.716707
353.941175	2418.780903
354.331010	2418.203691
354.720782	2418.168403
355.110490	2419.292581
355.500135	2421.785431
355.889717	2419.196799
356.279235	2419.131264
356.668689	2420.021027
357.058080	2424.401790
357.447408	2421.946748
357.836672	2418.327200
358.225873	2421.840884
358.615010	2422.024886
359.004084	2421.498085
359.393095	2421.815678
359.782043	2425.107552
360.170927	2423.622932
360.559748	2425.674681
360.948505	2424.086718
361.337199	2426.413210
361.725830	2425.258786
362.114398	2426.680392
362.502903	2423.794331
362.891344	2425.420103
363.279722	2429.682399
363.668037	2427.797007
364.056289	2428.618715
364.444478	2429.508479
364.832603	2429.906730
365.220665	2428.893458
365.608665	2433.201124
365.996601	2429.097625
366.384474	2431.121648
366.772284	2432.709612
367.160031	2430.504107
367.547715	2432.518048
367.935336	2431.167018
368.322893	2430.060485
368.710388	2430.352872
369.097820	2431.971083
369.485189	2428.870773
369.872495	2433.659869
370.259738	2432.581062
370.646918	2435.449479
371.034035	2436.649273
371.421090	2432.815476
371.808081	2433.196083
372.195010	2435.865374
372.581875	2434.829417
372.968678	2434.108532
373.355418	2434.058120
373.742096	2437.536516
374.128710	2439.895776
374.515262	2435.867894
374.901751	2436.873605
375.288177	2438.484253
375.674540	2439.530293
376.060841	2438.330498
376.447079	2436.203131
376.833254	2439.232865
377.219367	2438.237237
377.605417	2437.828903
377.991404	2436.364448
378.377329	2439.540375
378.763191	2439.132042
379.148991	2440.921651
379.534727	2440.846034
379.920402	2440.742690
380.306013	2439.797474
380.691563	2439.552978
381.077049	2442.991045
381.462474	2442.660849
381.847835	2443.797629
382.233134	2439.792433
382.618371	2439.767227
383.003545	2442.554985
383.388657	2443.409461
383.773706	2442.635643
384.158693	2444.841148
384.543618	2442.509615
384.928480	2443.510284
385.313280	2443.527928
385.698017	2441.241764
386.082692	2444.281580
386.467305	2446.673608
386.851856	2444.382403
387.236344	2445.577157
387.620770	2444.536158
388.005133	2444.057249
388.389435	2446.136725
388.773674	2442.433997
389.157851	2449.166458
389.541965	2446.688731
389.926018	2446.834925
390.310008	2446.401385
390.693936	2448.017075
391.077802	2448.049843
391.461606	2447.422219
391.845348	2449.857096
392.229027	2449.743670
392.612645	2447.548248
392.996200	2448.369956
393.379694	2447.366766
393.763125	2450.991356
394.146494	2449.126129
394.529801	2448.569082
394.913047	2449.743670
395.296230	2450.464555
395.679351	2450.827518
396.062410	2448.286777
396.445408	2448.223763
396.828343	2449.763835
397.211217	2450.807354
397.594028	2451.172838
397.976778	2450.628393
398.359466	2447.424740
398.742092	2449.821808
399.124656	2446.928186
399.507158	2450.409103
399.889598	2448.611931
400.271977	2450.494802
400.654294	2451.064453
401.036549	2451.437498
401.418742	2449.476489
401.800874	2451.298866
402.182944	2452.612087
402.564952	2450.121757
402.946898	2450.734257
403.328783	2452.765842
403.710606	2450.648557
404.092367	2450.459514
404.474067	2451.185440
404.855705	2453.305246
405.237282	2451.704679
405.618797	2450.283074
406.000250	2452.501182
406.381642	2452.075204
406.762972	2450.338527
407.144240	2450.388938
407.525447	2450.550255
407.906593	2449.118567
408.287677	2453.358178
408.668700	2450.572940
409.049661	2453.171655
409.430560	2451.964299
409.811399	2455.228446
410.192176	2453.804320
410.572891	2452.738116
410.953545	2455.278857
411.334138	2455.591409
411.714669	2459.883951
412.095139	2452.659978
412.475547	2456.909671
412.855894	2456.057716
413.236180	2454.452108
413.616405	2455.510750
413.996568	2454.618466
414.376670	2453.763991
414.756711	2456.098045
415.136691	2456.871862
415.516609	2456.574434
415.896466	2458.316153
416.276262	2454.618466
416.655997	2454.321038
417.035670	2456.168621
417.415283	2454.931018
417.794834	2455.155349
418.174324	2458.643828
418.553753	2456.309773
418.933121	2458.573251
419.312428	2459.684826
419.691674	2460.524178
420.070859	2455.528394
420.449983	2456.702983
420.829045	2459.344548
421.208047	2459.916719
421.586988	2459.873869
421.965867	2457.398662
422.344686	2459.500824
422.723444	2457.020576
423.102141	2459.712552
423.480777	2460.990485
423.859352	2458.608539
424.237866	2460.466205
424.616319	2462.492748
424.994712	2457.885134
425.373044	2457.466718
425.751314	2456.826492
426.129524	2454.994032
426.507673	2458.288426
426.885762	2454.086624
427.263789	2460.183900
427.641756	2459.586523
428.019662	2460.849332
428.397508	2457.633076
428.775292	2459.989816
429.153016	2459.962089
429.530679	2460.559466
429.908282	2461.701287
430.285824	2461.121555
430.663305	2462.152471
431.040726	2461.645835
431.418086	2462.034003
431.795385	2462.107100
432.172624	2459.427727
432.549802	2462.434775
432.926920	2461.282872
433.303977	2458.422017
433.680974	2461.671040
434.057910	2460.350258
434.434786	2463.836216
434.811601	2463.042234
435.188355	2460.846812
435.565050	2462.061730
435.941683	2465.368727
436.318257	2461.779425
436.694770	2463.072481
437.071222	2461.257666
437.447614	2464.221864
437.823946	2465.177163
438.200218	2460.937552
438.576429	2464.312605
438.952580	2460.178859
439.328670	2462.548201
439.704700	2466.308902
440.080670	2467.382668
440.456580	2464.368058
440.832429	2464.783953
441.208218	2463.160701
441.583947	2465.051134
441.959616	2464.693212
442.335224	2464.589868
442.710773	2466.077009
443.086261	2464.388222
443.461689	2465.837554
443.837057	2466.137503
444.212365	2463.513582
444.587612	2463.470732
444.962800	2460.468725
445.337927	2464.214303
445.712995	2462.550722
446.088002	2462.409569
446.462949	2465.988789
446.837837	2465.280507
447.212664	2465.877883
447.587431	2464.234467
447.962139	2464.181535
448.336786	2465.698922
448.711374	2466.359313
449.085901	2467.491052
449.460369	2465.005764
449.834776	2467.153295
450.209124	2467.342338
450.583412	2467.778398
450.957640	2466.366875
451.331808	2466.351752
451.705917	2467.425518
452.079965	2467.211268
452.453954	2465.066257
452.827883	2467.309571
453.201752	2464.940229
453.575562	2468.521968
453.949311	2466.397122
454.323001	2469.464664
454.696632	2467.049952
455.070202	2466.240846
455.443713	2469.036166
455.817164	2465.456947
456.190556	2465.925774
456.563888	2469.880559
456.937160	2466.195476
457.310373	2468.620271
457.683526	2467.359983
458.056619	2468.237143
458.429653	2467.415435
458.802628	2470.936681
459.175542	2466.611371
459.548398	2469.215127
459.921194	2469.384006
460.293930	2471.110601
460.666607	2469.409212
461.039224	2469.857874
461.411782	2469.719242
461.784280	2466.205558
462.156719	2468.370734
462.529099	2470.793008
462.901419	2470.825776
463.273680	2466.470219
463.645882	2465.567852
464.018024	2466.344190
464.390106	2464.511731
464.762130	2471.488687
465.134094	2469.900724
465.505999	2470.994654
465.877845	2471.203862
466.249631	2469.706640
466.621358	2469.459623
466.993026	2468.106073
467.364634	2474.195787
467.736184	2472.035653
468.107674	2470.558595
468.479105	2468.902576
468.850477	2471.166054
469.221790	2469.676393
469.593043	2470.931640
469.964238	2468.247226
470.335373	2470.704788
470.706449	2470.896352
471.077467	2469.497432
471.448425	2471.314768
471.819324	2468.746300
472.190164	2471.082875
472.560945	2468.791670
472.931667	2471.594552
473.302330	2471.155971
473.672934	2470.780405
474.043479	2467.082719
474.413965	2472.370889
474.784393	2469.381485
475.154761	2472.068420
475.525070	2471.947432
475.895321	2471.047587
476.265513	2469.956177
476.635645	2472.640591
477.005719	2469.537761
477.375734	2470.271249
477.745691	2472.083544
478.115588	2471.521455
478.485427	2471.672690
478.855207	2471.682772
479.224928	2472.010447
479.594591	2470.291413
479.964194	2473.893318
480.333739	2471.483646
480.703226	2472.638071
481.072653	2470.432566
481.442022	2472.386013
481.811333	2470.782926
482.180584	2469.313430
482.549777	2470.261167
482.918912	2468.055662
483.287988	2471.894500
483.657005	2469.636063
484.025964	2471.680251
484.394864	2470.019191
484.763706	2472.038173
485.132489	2472.033132
485.501213	2473.086733
485.869879	2471.836527
486.238487	2473.026239
486.607036	2472.398616
486.975527	2473.197639
487.343959	2474.218472
487.712333	2470.372072
488.080648	2473.222844
488.448905	2471.902062
488.817104	2476.701241
489.185244	2473.858030
489.553326	2473.744604
489.921350	2471.430714
490.289315	2474.178143
490.657222	2475.214100
491.025070	2472.161682
491.392861	2473.527834
491.760593	2470.886270
492.128267	2473.089254
492.495883	2470.916517
492.863440	2475.914821
493.230939	2474.707464
493.598380	2474.629326
493.965763	2470.724953
494.333088	2475.297279
494.700354	2474.352063
495.067563	2474.752835
495.434713	2474.231075
495.801805	2476.270222
496.168839	2471.334932
496.535815	2472.138996
496.902733	2473.963894
497.269593	2472.827114
497.636395	2474.226034
498.003139	2474.594038
498.369825	2472.824593
498.736453	2473.832824
499.103023	2473.250571
499.469535	2475.539255
499.835989	2472.849799
500.202385	2471.471043
500.568723	2469.913327
500.935003	2471.352576
501.301226	2468.441310
501.667390	2474.452886
502.033497	2473.812659
502.399546	2475.408185
502.765537	2472.247381
503.131470	2470.931640
503.497345	2473.197639
503.863163	2473.439614
504.228923	2474.263843
504.594625	2474.843575
504.960269	2473.520273
505.325856	2474.052114
505.691385	2474.899028
506.056856	2478.024543
506.422270	2476.010603
506.787625	2473.648822
507.152924	2476.660911
507.518164	2477.084368
507.883347	2474.762917
508.248472	2475.272073
508.613540	2474.495736
508.978550	2474.515900
509.343503	2474.047073
509.708398	2477.432208
510.073236	2473.028760
510.438016	2474.289048
510.802738	2476.393730
511.167403	2473.545478
511.532010	2473.333750
511.896561	2475.163689
512.261053	2474.047073
512.625488	2473.968935
512.989866	2474.127732
513.354186	2477.041518
513.718449	2473.734522
514.082655	2473.651343
514.446803	2477.704430
514.810894	2478.538741
515.174927	2475.874491
515.538904	2476.991107
515.902822	2472.736373
516.266684	2476.166878
516.630488	2474.599079
516.994235	2474.178143
517.357925	2473.714357
517.721558	2477.452373
518.085133	2474.299131
518.448651	2475.408185
518.812112	2472.912813
519.175516	2472.113791
519.538863	2468.252267
519.902152	2475.771148
520.265385	2473.878194
520.628560	2474.203349
520.991678	2475.889615
521.354739	2473.956332
521.717743	2473.374079
522.080690	2476.413895
522.443580	2475.657722
522.806413	2474.747793
523.169189	2476.945737
523.531908	2477.321302
523.894569	2474.793164
524.257174	2475.382979
524.619722	2474.296610
524.982213	2476.537403
525.344647	2476.328195
525.707025	2478.614358
526.069345	2477.651498
526.431608	2475.811477
526.793815	2475.108236
527.155964	2474.992289
527.518057	2476.277784
527.880093	2476.915490
528.242072	2477.278453
528.603995	2478.934472
528.965860	2476.625623
529.327669	2477.346508
529.689421	2476.822228
530.051117	2478.226190
530.412755	2477.245685
530.774337	2478.742908
531.135862	2475.123359
531.497331	2479.567137
531.858743	2476.033288
532.220098	2477.051601
532.581396	2477.212918
532.942638	2478.377424
533.303824	2476.665953
533.664953	2478.495891
534.026025	2478.039667
534.387040	2476.741570
534.747999	2474.856178
535.108902	2475.340129
535.469748	2479.120994
535.830537	2475.345170
536.191270	2475.108236
536.551947	2475.110757
536.912567	2473.026239
537.273131	2474.084882
537.633638	2471.329891
537.994089	2476.323154
538.354483	2478.397589
538.714821	2478.327013
539.075103	2477.457414
539.435328	2478.425315
539.795497	2478.954636
540.155609	2475.294759
540.515665	2474.389872
540.875665	2476.275263
541.235609	2479.514204
541.595496	2478.879019
541.955328	2477.827938
542.315102	2479.385655
542.674821	2477.434728
543.034483	2478.500932
543.394090	2477.545634
543.753640	2478.674852
544.113134	2477.439770
544.472571	2476.086220
544.831953	2478.372383
545.191278	2476.260140
545.550548	2476.900366
545.909761	2477.868268
546.268918	2473.767289
546.628019	2479.809112
546.987064	2476.628144
547.346053	2476.726446
547.704986	2476.968422
548.063863	2479.370532
548.422684	2477.684266
548.781449	2480.048567
549.140158	2474.667135
549.498811	2476.983545
549.857408	2478.165696
550.215949	2475.945068
550.574434	2478.107723
550.932864	2476.282825
551.291237	2478.639564
551.649555	2477.500263
552.007817	2478.148052
552.366022	2476.726446
552.724173	2477.611169
553.082267	2477.197794
553.440305	2477.159986
553.798288	2477.555716
554.156215	2478.667291
554.514086	2473.497587
554.871902	2473.255612
555.229661	2475.750983
555.587365	2471.523976
555.945014	2475.836683
556.302606	2476.028247
556.660143	2475.715695
557.017625	2480.403968
557.375050	2474.697382
557.732421	2475.672845
558.089735	2477.482619
558.446994	2475.030098
558.804197	2479.373052
559.161345	2476.544965
559.518437	2478.516056
559.875474	2476.466827
560.232455	2475.027578
560.589381	2477.323823
560.946251	2477.623772
561.303065	2475.090592
561.659825	2478.301807
562.016528	2476.943216
562.373177	2477.553196
562.729770	2477.152424
563.086307	2479.660398
563.442789	2474.120170
563.799216	2476.199646
564.155587	2476.250057
564.511904	2474.891466
564.868164	2479.335243
565.224370	2478.195943
565.580520	2476.781899
565.936615	2479.342805
566.292654	2476.653350
566.648638	2477.575881
567.004567	2474.697382
567.360441	2479.247023
567.716260	2473.994141
568.072023	2479.859523
568.427732	2477.124698
568.783385	2475.476240
569.138982	2476.519759
569.494525	2477.999338
569.850013	2477.444811
570.205445	2477.724595
570.560823	2475.962712
570.916145	2476.688638
571.271412	2477.525469
571.626625	2476.532362
571.981782	2477.739718
572.336884	2475.377938
572.691931	2472.146558
573.046923	2474.979687
573.401860	2473.825262
573.756743	2477.351549
574.111570	2477.948926
574.466342	2480.265336
574.821059	2477.139821
575.175722	2479.226859
575.530330	2476.045891
575.884882	2477.802733
576.239380	2475.816518
576.593823	2477.782568
576.948211	2477.321303
577.302544	2478.899184
577.656823	2476.529841
578.011047	2476.340798
578.365216	2478.281642
578.719330	2478.206025
579.073389	2477.593525
579.427394	2478.553865
579.781344	2476.504636
580.135239	2476.814667
580.489080	2476.098823
580.842866	2478.001858
581.196597	2481.523104
581.550273	2476.297948
581.903895	2477.737198
582.257463	2477.951447
582.610975	2480.086375
582.964434	2476.282825
583.317837	2480.353557
583.671186	2479.947744
584.024481	2477.805253
584.377721	2477.895994
584.730906	2477.316261
585.084037	2476.328195
585.437113	2474.150417
585.790135	2477.991776
586.143103	2477.507825
586.496016	2477.916159
586.848874	2478.168216
587.201679	2478.639564
587.554428	2477.810294
587.907124	2479.136118
588.259765	2476.819708
588.612352	2477.898515
588.964884	2478.281642
589.317362	2477.840541
589.669786	2479.030254
590.022155	2476.313072
590.374470	2474.261322
590.726731	2475.844244
591.078937	2472.375931
591.431090	2478.168216
591.783188	2478.836169
592.135232	2476.131590
592.487222	2477.817856
592.839157	2476.567650
593.191038	2478.836169
593.542866	2477.858185
593.894639	2475.292238
594.246358	2479.647795
594.598022	2475.040180
594.949633	2479.005048
595.301190	2479.577219
595.652692	2479.425984
596.004141	2479.839359
596.355535	2476.499594
596.706876	2478.848772
597.058162	2477.815336
597.409395	2478.591673
597.760573	2476.066055
598.111698	2475.211580
598.462768	2478.130408
598.813785	2479.602425
599.164748	2476.734008
599.515657	2478.213587
599.866511	2477.747280
600.217312	2478.591673
600.568060	2475.277115
600.918753	2480.557723
601.269392	2476.658391
601.619978	2479.995635
601.970510	2477.686786
602.320988	2477.878350
602.671412	2475.955150
603.021783	2476.360963
603.372100	2478.926910
603.722363	2476.635706
604.072572	2480.608135
604.422728	2478.193422
604.772830	2478.022023
605.122878	2479.788947
605.472872	2475.675366
605.822813	2476.469347
606.172701	2478.022023
606.522534	2478.712661
606.872314	2477.333905
607.222041	2477.906076
607.571714	2475.302320
607.921333	2476.343319
608.270899	2474.886425
608.620411	2474.135293
608.969870	2478.379945
609.319276	2476.925572
609.668627	2478.233751
610.017926	2479.037815
610.367171	2476.948257
610.716362	2479.516725
611.065500	2479.304997
611.414585	2476.628144
611.763616	2476.998669
612.112594	2477.633854
612.461518	2475.720736
612.810389	2478.465644
613.159207	2476.746611
613.507971	2476.991107
613.856682	2479.357929
614.205340	2475.708133
614.553945	2476.968422
614.902496	2477.883391
615.250994	2478.062352
615.599439	2477.613689
615.947830	2475.514049
616.296169	2477.245685
616.644454	2478.906745
616.992686	2475.577063
617.340864	2477.349029
617.688990	2476.565129
618.037063	2477.195274
618.385082	2478.364821
618.733048	2477.253247
619.080961	2478.531179
619.428821	2477.270891
619.776628	2477.245685
620.124382	2476.935654
620.472083	2477.550675
620.819731	2477.475058
621.167326	2478.538741
621.514868	2479.471355
621.862357	2478.856334
622.209793	2476.877681
622.557176	2478.122846
622.904506	2478.805922
623.251783	2478.851293
623.599007	2478.377424
623.946179	2479.128556
624.293297	2476.953298
624.640363	2476.348360
624.987376	2476.454224
625.334336	2474.321816
625.681243	2477.797692
626.028097	2472.501959
626.374899	2478.032105
626.721647	2476.411374
627.068343	2477.691827
627.414987	2475.874491
627.761577	2476.706282
628.108115	2475.289718
628.454600	2477.598566
628.801032	2478.236272
629.147412	2477.792650
629.493739	2475.831642
629.840014	2480.971098
630.186236	2477.296097
630.532405	2477.459934
630.878521	2476.182002
631.224585	2478.440439
631.570597	2478.357260
631.916556	2477.407002
632.262462	2478.823566
632.608316	2475.541775
632.954117	2476.260140
633.299866	2478.092599
633.645562	2480.151910
633.991206	2479.264667
634.336797	2476.849955
634.682336	2477.830459
635.027823	2480.509832
635.373257	2475.279635
635.718639	2477.825418
636.063968	2476.688638
636.409245	2478.158134
636.754470	2476.302989
637.099642	2474.367186
637.444762	2476.146714
637.789829	2479.438587
638.134845	2476.239975
638.479808	2477.162506
638.824719	2478.790799
639.169577	2476.360963
639.514383	2477.278453
639.859137	2479.224338
640.203839	2475.592187
640.548489	2478.047229
640.893086	2478.856334
641.237632	2477.971611
641.582125	2478.841210
641.926566	2476.464306
642.270955	2474.130252
642.615292	2473.537917
642.959576	2476.388689
643.303809	2472.449027
643.647990	2475.398102
643.992118	2475.892135
644.336195	2475.947588
