Dividing Wavelength (nm)	Counts (n)	Blue Motor Position (mm): 0.000000	Red Motor Position (mm): 25.500000	
326.493990	2051.847918
326.888308	2051.847918
327.282561	2051.847918
327.676750	2026.659793
328.070874	2029.261028
328.464933	2032.852850
328.858929	2039.537420
329.252859	2052.379760
329.646726	2064.072716
330.040528	2081.338668
330.434265	2097.583786
330.827938	2119.386777
331.221547	2136.083078
331.615091	2159.043013
332.008571	2180.944306
332.401986	2200.231761
332.795338	2220.013248
333.188625	2239.454458
333.581847	2258.033631
333.975006	2277.018616
334.368100	2294.813889
334.761129	2310.587660
335.154095	2325.640545
335.546996	2341.036229
335.939833	2363.749148
336.332606	2373.907073
336.725315	2384.170862
337.117960	2394.752244
337.510540	2405.429407
337.903056	2415.433577
338.295508	2422.032448
338.687896	2429.054775
339.080220	2434.892431
339.472480	2438.212031
339.864676	2443.495160
340.256807	2448.062446
340.648875	2449.083279
341.040879	2448.070007
341.432818	2448.884154
341.824694	2450.885492
342.216506	2454.003445
342.608253	2450.494802
342.999937	2450.961109
343.391557	2450.308280
343.783113	2446.542538
344.174605	2448.548917
344.566033	2446.237548
344.957397	2447.366766
345.348697	2442.819646
345.739934	2438.698502
346.131106	2438.617844
346.522215	2438.050714
346.913260	2437.163471
347.304241	2434.214396
347.695159	2431.419076
348.086012	2432.334046
348.476802	2429.077460
348.867528	2426.017480
349.258191	2423.360792
349.648789	2424.953796
350.039324	2421.987077
350.429796	2426.632501
350.820203	2423.907757
351.210548	2425.442788
351.600828	2420.424320
351.991045	2421.114958
352.381198	2421.009093
352.771288	2420.250400
353.161314	2420.930956
353.551276	2422.367684
353.941175	2419.348033
354.331010	2421.293919
354.720782	2419.282498
355.110490	2422.440781
355.500135	2423.512026
355.889717	2421.919022
356.279235	2423.779208
356.668689	2423.615370
357.058080	2423.741399
357.447408	2423.864907
357.836672	2423.514547
358.225873	2425.173087
358.615010	2426.874476
359.004084	2426.201482
359.393095	2426.330031
359.782043	2427.408838
360.170927	2428.255752
360.559748	2429.447985
360.948505	2430.967893
361.337199	2430.715835
361.725830	2427.287851
362.114398	2429.243818
362.502903	2432.850764
362.891344	2433.864036
363.279722	2431.756833
363.668037	2433.085177
364.056289	2434.080805
364.444478	2434.610127
364.832603	2435.141968
365.220665	2434.375713
365.608665	2433.473346
365.996601	2434.655497
366.384474	2434.363110
366.772284	2434.489139
367.160031	2437.367638
367.547715	2437.261773
367.935336	2435.182298
368.322893	2434.917637
368.710388	2434.794129
369.097820	2437.012236
369.485189	2434.968048
369.872495	2439.379058
370.259738	2441.725715
370.646918	2441.571960
371.034035	2441.372834
371.421090	2443.757300
371.808081	2446.257713
372.195010	2443.152362
372.581875	2446.139245
372.968678	2447.550768
373.355418	2449.300049
373.742096	2450.512446
374.128710	2451.737447
374.515262	2456.249279
374.901751	2458.230453
375.288177	2459.384877
375.674540	2465.174642
376.060841	2469.303347
376.447079	2471.508852
376.833254	2480.424133
377.219367	2481.107209
377.605417	2490.899650
377.991404	2493.042141
378.377329	2497.864004
378.763191	2506.633092
379.148991	2511.175171
379.534727	2521.693539
379.920402	2532.927750
380.306013	2543.627599
380.691563	2558.788869
381.077049	2566.045610
381.462474	2574.958370
381.847835	2591.206009
382.233134	2604.549943
382.618371	2612.278032
383.003545	2634.262504
383.388657	2648.430667
383.773706	2664.688388
384.158693	2678.120542
384.543618	2696.823223
384.928480	2708.692620
385.313280	2731.029973
385.698017	2751.403796
386.082692	2772.480860
386.467305	2789.008283
386.851856	2813.528455
387.236344	2843.190605
387.620770	2857.210053
388.005133	2877.092364
388.389435	2909.990934
388.773674	2922.843356
389.157851	2958.232256
389.541965	2984.002634
389.926018	2998.417814
390.310008	3031.328987
390.693936	3053.603325
391.077802	3083.406627
391.461606	3112.836883
391.845348	3134.370171
392.229027	3161.688184
392.612645	3202.186293
392.996200	3231.271231
393.379694	3269.944442
393.763125	3311.773416
394.146494	3337.425328
394.529801	3371.304402
394.913047	3417.751073
395.296230	3424.780962
395.679351	3446.558747
396.062410	3498.984226
396.445408	3477.050166
396.828343	3522.042464
397.211217	3552.392731
397.594028	3523.995911
397.976778	3575.052717
398.359466	3606.575052
398.742092	3615.818008
399.124656	3628.730923
399.507158	3690.210315
399.889598	3698.157694
400.271977	3760.758743
400.654294	3747.525714
401.036549	3810.129283
401.418742	3809.166422
401.800874	3876.881721
402.182944	3906.080084
402.564952	3990.378259
402.946898	3985.352229
403.328783	3981.641939
403.710606	4029.694218
404.092367	4098.836163
404.474067	4161.931245
404.855705	4146.033966
405.237282	4118.015233
405.618797	4212.315057
406.000250	4296.255310
406.381642	4377.569121
406.762972	4374.143657
407.144240	4344.892362
407.525447	4405.786980
407.906593	4431.731278
408.287677	4512.596427
408.668700	4540.073236
409.049661	4575.711673
409.430560	4612.890183
409.811399	4596.511474
410.192176	4644.772960
410.572891	4723.281370
410.953545	4831.167103
411.334138	4729.383687
411.714669	4837.531560
412.095139	4753.455196
412.475547	4865.023492
412.855894	4873.517837
413.236180	4971.409483
413.616405	4895.275457
413.996568	5005.681767
414.376670	5001.858052
414.756711	4999.120705
415.136691	5065.888268
415.516609	5153.470754
415.896466	5194.059604
416.276262	5262.800778
416.655997	5379.773191
417.035670	5475.424044
417.415283	5615.023677
417.794834	5688.024625
418.174324	5648.580117
418.553753	5648.136496
418.933121	5814.461805
419.312428	5830.679197
419.691674	5752.274131
420.070859	5981.165201
420.449983	5857.954360
420.829045	6054.579524
421.208047	5974.677236
421.586988	6133.818901
421.965867	6211.009049
422.344686	6294.908972
422.723444	6457.677748
423.102141	6070.559982
423.480777	6470.683925
423.859352	6280.445902
424.237866	6646.713455
424.616319	6638.393031
424.994712	6808.910060
425.373044	6717.637449
425.751314	7038.743825
426.129524	6751.314877
426.507673	7015.383118
426.885762	7058.868111
427.263789	7100.833197
427.641756	7190.563214
428.019662	7272.164372
428.397508	7310.986298
428.775292	7293.009543
429.153016	7463.405584
429.530679	7390.361785
429.908282	7444.980167
430.285824	7378.164714
430.663305	7666.795977
431.040726	7548.386835
431.418086	7552.926394
431.795385	7679.063625
432.172624	7879.913277
432.549802	7755.008608
432.926920	7893.690750
433.303977	7832.934764
433.680974	7874.241978
434.057910	8075.371414
434.434786	8128.114486
434.811601	8084.387518
435.188355	8420.294722
435.565050	8302.659397
435.941683	8318.171027
436.318257	8650.146132
436.694770	8602.741641
437.071222	8833.185387
437.447614	8605.219368
437.823946	8571.284841
438.200218	8724.629180
438.576429	8598.484387
438.952580	8760.161752
439.328670	8764.920602
439.704700	8843.282818
440.080670	8730.207216
440.456580	8996.261672
440.832429	8962.271693
441.208218	8702.715284
441.583947	8819.730547
441.959616	8929.854553
442.335224	8957.759860
442.710773	9038.214155
443.086261	9207.546512
443.461689	8920.903984
443.837057	9078.170340
444.212365	9285.845714
444.587612	9257.383359
444.962800	9142.830700
445.337927	9265.635728
445.712995	8800.594327
446.088002	9449.143810
446.462949	9497.952262
446.837837	9464.746182
447.212664	9468.900092
447.587431	10249.575698
447.962139	11210.386853
448.336786	12093.289497
448.711374	11871.153573
449.085901	10678.845071
449.460369	10576.005532
449.834776	10328.144601
450.209124	11161.671663
450.583412	10957.852772
450.957640	11230.072559
451.331808	10814.182408
451.705917	10234.721938
452.079965	10081.193597
452.453954	10224.009486
452.827883	10137.243666
453.201752	10062.498478
453.575562	10028.886585
453.949311	10285.945102
454.323001	10294.578078
454.696632	10164.508747
455.070202	10636.209512
455.443713	10630.946548
455.817164	10718.251771
456.190556	10929.544172
456.563888	10748.309650
456.937160	10910.181100
457.310373	10404.273586
457.683526	10344.903917
458.056619	10286.839907
458.429653	10267.055898
458.802628	10304.400766
459.175542	10269.783163
459.548398	10608.168094
459.921194	10963.962650
460.293930	11094.652043
460.666607	11661.393682
461.039224	12164.417657
461.411782	12337.172958
461.784280	11987.742858
462.156719	11848.624656
462.529099	11666.974239
462.901419	11094.278998
463.273680	10690.427122
463.645882	10726.836856
464.018024	10531.890395
464.390106	10663.678760
464.762130	11252.077195
465.134094	12120.100873
465.505999	13471.714878
465.877845	14786.306649
466.249631	15450.428256
466.621358	15006.781512
466.993026	14332.199510
467.364634	13690.742930
467.736184	13029.479657
468.107674	12471.640696
468.479105	12222.030483
468.850477	11912.889286
469.221790	11524.995182
469.593043	11022.979438
469.964238	10664.591208
470.335373	10548.407736
470.706449	10759.775755
471.077467	11039.889989
471.448425	12104.150662
471.819324	12905.689083
472.190164	12717.452398
472.560945	11725.653270
472.931667	10823.737915
473.302330	10506.571200
473.672934	10110.228123
474.043479	10149.690275
474.413965	9917.542620
474.784393	9712.503770
475.154761	9847.410088
475.525070	9765.335062
475.895321	9565.508765
476.265513	9633.493765
476.635645	9730.362057
477.005719	9618.692938
477.375734	9610.387637
477.745691	9700.150422
478.115588	9788.536973
478.485427	10058.871368
478.855207	10529.543738
479.224928	10986.453758
479.594591	11309.347224
479.964194	11034.284226
480.333739	11000.178299
480.703226	10885.245033
481.072653	10839.509165
481.442022	10822.719602
481.811333	10781.175453
482.180584	10485.655453
482.549777	10254.447973
482.918912	10026.091265
483.287988	9838.953552
483.657005	9648.839038
484.025964	9388.937310
484.394864	9281.212893
484.763706	9109.231409
485.132489	8828.577772
485.501213	8698.135396
485.869879	8588.795289
486.238487	8427.692615
486.607036	8352.488682
486.975527	8141.279459
487.343959	8069.110301
487.712333	7997.863674
488.080648	7857.606171
488.448905	7801.667007
488.817104	7641.058366
489.185244	7644.965260
489.553326	7679.366094
489.921350	7874.695682
490.289315	8149.141139
490.657222	8165.023294
491.025070	8104.204293
491.392861	7909.885457
491.760593	7641.557440
492.128267	7337.568302
492.495883	7051.387039
492.863440	6783.132119
493.230939	6520.117479
493.598380	6320.268497
493.965763	6175.219377
494.333088	5994.050390
494.700354	5857.397312
495.067563	5740.112348
495.434713	5620.745386
495.801805	5544.518099
496.168839	5418.779119
496.535815	5303.238393
496.902733	5212.540474
497.269593	5099.167445
497.636395	5011.776522
498.003139	4937.028813
498.369825	4828.835570
498.736453	4766.726034
499.103023	4665.996218
499.469535	4593.199436
499.835989	4515.379144
500.202385	4423.120988
500.568723	4342.984285
500.935003	4287.211480
501.301226	4203.397256
501.667390	4173.556146
502.033497	4120.346767
502.399546	4036.998850
502.765537	3951.672280
503.131470	3907.887338
503.497345	3869.214126
503.863163	3761.532560
504.228923	3734.149012
504.594625	3695.720296
504.960269	3623.004173
505.325856	3597.238835
505.691385	3540.031821
506.056856	3501.935822
506.422270	3468.107159
506.787625	3417.559509
507.152924	3386.974829
507.518164	3354.769418
507.883347	3305.847540
508.248472	3273.546347
508.613540	3254.818460
508.978550	3232.176118
509.343503	3193.641538
509.708398	3174.308713
510.073236	3159.974192
510.438016	3135.179277
510.802738	3104.138372
511.167403	3087.419385
511.532010	3070.576890
511.896561	3060.169428
512.261053	3051.390258
512.625488	3029.746064
512.989866	3010.745956
513.354186	2993.580827
513.718449	2977.383599
514.082655	2974.003506
514.446803	2955.999025
514.810894	2952.349229
515.174927	2941.964453
515.538904	2930.964655
515.902822	2924.358223
516.266684	2908.944895
516.630488	2903.573545
516.994235	2895.840415
517.357925	2892.450239
517.721558	2886.617624
518.085133	2880.714433
518.448651	2874.198742
518.812112	2865.807741
519.175516	2859.637369
519.538863	2855.188551
519.902152	2851.231245
520.265385	2855.254086
520.628560	2846.918538
520.991678	2839.571056
521.354739	2837.536951
521.717743	2832.684840
522.080690	2828.084787
522.443580	2826.988336
522.806413	2822.174034
523.169189	2818.985504
523.531908	2815.912921
523.894569	2807.723567
524.257174	2805.220634
524.619722	2806.433031
524.982213	2804.706436
525.344647	2798.147895
525.707025	2794.848460
526.069345	2793.472225
526.431608	2787.861421
526.793815	2787.702624
527.155964	2778.825152
527.518057	2780.952519
527.880093	2777.723660
528.242072	2773.453803
528.603995	2771.074378
528.965860	2764.977103
529.327669	2766.093718
529.689421	2762.892586
530.051117	2760.019128
530.412755	2754.887233
530.774337	2754.325145
531.135862	2750.609814
531.497331	2750.191398
531.858743	2747.189391
532.220098	2747.688466
532.581396	2740.303175
532.942638	2736.865108
533.303824	2736.882752
533.664953	2735.783781
534.026025	2730.941752
534.387040	2731.249263
534.747999	2727.120558
535.108902	2728.784139
535.469748	2721.565206
535.830537	2721.600494
536.191270	2723.823643
536.551947	2714.900801
536.912567	2715.137735
537.273131	2713.330482
537.633638	2708.909390
537.994089	2710.338557
538.354483	2708.062476
538.714821	2710.051211
539.075103	2711.412322
539.435328	2706.502239
539.795497	2703.049048
540.155609	2703.951415
540.515665	2705.801518
540.875665	2702.179449
541.235609	2699.701722
541.595496	2699.580734
541.955328	2701.176260
542.315102	2697.438244
542.674821	2695.784746
543.034483	2692.208047
543.394090	2691.053623
543.753640	2690.337779
544.113134	2695.978830
544.472571	2689.788293
544.831953	2690.584795
545.191278	2686.559434
545.550548	2686.408199
545.909761	2688.049095
546.268918	2687.751667
546.628019	2688.041533
546.987064	2683.784279
547.346053	2681.180523
547.704986	2683.219670
548.063863	2681.999710
548.422684	2680.885615
548.781449	2678.407888
549.140158	2680.210101
549.498811	2681.233455
549.857408	2675.849503
550.215949	2677.835717
550.574434	2676.348577
550.932864	2674.437980
551.291237	2675.811694
551.649555	2676.139369
552.007817	2674.306910
552.366022	2672.900428
552.724173	2673.606189
553.082267	2675.478978
553.440305	2674.344718
553.798288	2670.823472
554.156215	2670.382371
554.514086	2671.151147
554.871902	2666.488080
555.229661	2668.315498
555.587365	2663.632266
555.945014	2666.896413
556.302606	2670.498318
556.660143	2669.792556
557.017625	2668.509583
557.375050	2665.459685
557.732421	2667.771054
558.089735	2669.346414
558.446994	2668.060920
558.804197	2669.527896
559.161345	2667.967659
559.518437	2664.171670
559.875474	2663.649910
560.232455	2664.973213
560.589381	2666.964469
560.946251	2665.316012
561.303065	2669.641322
561.659825	2665.615960
562.016528	2662.132523
562.373177	2664.741320
562.729770	2665.484890
563.086307	2664.365754
563.442789	2661.893068
563.799216	2662.424910
564.155587	2664.688388
564.511904	2665.076557
564.868164	2664.043120
565.224370	2663.239056
565.580520	2662.974396
565.936615	2661.744354
566.292654	2660.327790
566.648638	2663.944818
567.004567	2661.444406
567.360441	2664.035559
567.716260	2660.489107
568.072023	2661.164622
568.427732	2660.766370
568.783385	2660.083294
569.138982	2662.152688
569.494525	2664.459016
569.850013	2662.245949
570.205445	2662.283758
570.560823	2660.020280
570.916145	2657.918118
571.271412	2658.059271
571.626625	2662.112358
571.981782	2659.264107
572.336884	2656.937614
572.691931	2655.473159
573.046923	2655.768066
573.401860	2651.934269
573.756743	2657.867707
574.111570	2659.211174
574.466342	2657.552635
574.821059	2656.100782
575.175722	2653.292860
575.530330	2653.897798
575.884882	2655.435350
576.239380	2650.031233
576.593823	2655.016934
576.948211	2653.739002
577.302544	2650.585760
577.656823	2651.036943
578.011047	2652.786224
578.365216	2653.998621
578.719330	2650.278250
579.073389	2648.334885
579.427394	2650.633651
579.781344	2649.106182
580.135239	2650.076604
580.489080	2651.435195
580.842866	2646.930924
581.196597	2650.827736
581.550273	2648.324803
581.903895	2648.733136
582.257463	2650.111892
582.610975	2648.332364
582.964434	2648.536531
583.317837	2646.509987
583.671186	2646.832621
584.024481	2648.123157
584.377721	2647.276243
584.730906	2647.697179
585.084037	2647.074597
585.437113	2646.220121
585.790135	2644.196098
586.143103	2642.572846
586.496016	2644.622075
586.848874	2645.355563
587.201679	2646.820018
587.554428	2641.945222
587.907124	2642.373721
588.259765	2642.013278
588.612352	2642.711478
588.964884	2641.403298
589.317362	2643.601242
589.669786	2640.528658
590.022155	2639.366672
590.374470	2637.791312
590.726731	2639.391878
591.078937	2633.425672
591.431090	2638.602938
591.783188	2637.335087
592.135232	2638.534882
592.487222	2639.167547
592.839157	2639.200314
593.191038	2639.248205
593.542866	2637.282155
593.894639	2636.372227
594.246358	2635.852988
594.598022	2635.288379
594.949633	2632.674541
595.301190	2631.452061
595.652692	2632.442647
596.004141	2636.284007
596.355535	2631.406690
596.706876	2630.244704
597.058162	2626.597430
597.409395	2629.470887
597.760573	2632.409880
598.111698	2630.063223
598.462768	2628.087091
598.813785	2628.762605
599.164748	2629.017183
599.515657	2628.472739
599.866511	2624.507871
600.217312	2628.296298
600.568060	2624.243211
600.918753	2629.801083
601.269392	2630.373254
601.619978	2630.453912
601.970510	2627.794704
602.320988	2625.758077
602.671412	2627.270424
603.021783	2628.951648
603.372100	2627.008284
603.722363	2628.644138
604.072572	2629.697739
604.422728	2626.370578
604.772830	2626.115999
605.122878	2628.598768
605.472872	2623.545011
605.822813	2626.599950
606.172701	2624.946452
606.522534	2627.572893
606.872314	2628.273613
607.222041	2625.672378
607.571714	2624.434775
607.921333	2622.191461
608.270899	2624.026441
608.620411	2622.872017
608.969870	2627.656072
609.319276	2626.390742
609.668627	2625.780763
610.017926	2628.626494
610.367171	2628.334107
610.716362	2626.030300
611.065500	2628.225722
611.414585	2627.991309
611.763616	2630.282513
612.112594	2628.248407
612.461518	2628.066926
612.810389	2629.491052
613.159207	2627.270424
613.507971	2630.181690
613.856682	2631.615898
614.205340	2631.956176
614.553945	2630.958028
614.902496	2631.134468
615.250994	2629.004581
615.599439	2631.252935
615.947830	2632.457771
616.296169	2629.894344
616.644454	2631.573048
616.992686	2631.452061
617.340864	2634.310395
617.688990	2630.521968
618.037063	2632.488018
618.385082	2633.919706
618.733048	2633.466002
619.080961	2629.793521
619.428821	2634.413739
619.776628	2635.361476
620.124382	2634.048255
620.472083	2631.401649
620.819731	2634.209572
621.167326	2631.318470
621.514868	2633.163532
621.862357	2632.014149
622.209793	2631.290744
622.557176	2624.835546
622.904506	2624.371760
623.251783	2625.793366
623.599007	2623.671040
623.946179	2623.030813
624.293297	2627.083901
624.640363	2621.952006
624.987376	2619.277674
625.334336	2616.124432
625.681243	2615.595111
626.028097	2614.097889
626.374899	2617.014196
626.721647	2617.021758
627.068343	2615.769031
627.414987	2615.547220
627.761577	2613.954216
628.108115	2614.475975
628.454600	2613.986983
628.801032	2611.930192
629.147412	2614.022271
629.493739	2611.985645
629.840014	2609.868361
630.186236	2610.627054
630.532405	2609.936416
630.878521	2610.201077
631.224585	2610.047322
631.570597	2610.707713
631.916556	2608.595469
632.262462	2607.743514
632.608316	2608.280397
632.954117	2608.318206
633.299866	2608.802157
633.645562	2608.870212
633.991206	2607.141096
634.336797	2604.718822
634.682336	2606.662187
635.027823	2602.520879
635.373257	2604.358379
635.718639	2603.703029
636.063968	2599.896958
636.409245	2600.441403
636.754470	2598.039293
637.099642	2598.654314
637.444762	2597.449478
637.789829	2596.146340
638.134845	2593.419076
638.479808	2593.411514
638.824719	2594.586103
639.169577	2592.040320
639.514383	2596.055599
639.859137	2590.154928
640.203839	2591.790783
640.548489	2590.427151
640.893086	2589.958323
641.237632	2590.210381
641.582125	2591.674836
641.926566	2589.434043
642.270955	2587.982191
642.615292	2585.524629
642.959576	2587.949424
643.303809	2584.942375
