Dividing Wavelength (nm)	Counts (n)	Blue Motor Position (mm): 0.000000	Red Motor Position (mm): 5.500000	
326.493990	2055.356561
326.888308	2055.356561
327.282561	2055.356561
327.676750	2030.060051
328.070874	2030.385205
328.464933	2039.061031
328.858929	2044.709644
329.252859	2057.163815
329.646726	2067.422563
330.040528	2084.983422
330.434265	2103.582759
330.827938	2124.768208
331.221547	2144.025416
331.615091	2164.288334
332.008571	2184.490758
332.401986	2202.853161
332.795338	2223.355533
333.188625	2245.655078
333.581847	2262.926071
333.975006	2279.617331
334.368100	2300.039045
334.761129	2313.967753
335.154095	2332.062975
335.546996	2346.273988
335.939833	2358.339989
336.332606	2372.674510
336.725315	2384.768238
337.117960	2394.674106
337.510540	2406.283883
337.903056	2414.480799
338.295508	2421.014135
338.687896	2425.092428
339.080220	2431.842533
339.472480	2437.349994
339.864676	2440.104984
340.256807	2442.318051
340.648875	2442.902825
341.040879	2447.336519
341.432818	2447.041612
341.824694	2451.745008
342.216506	2448.969853
342.608253	2451.313990
342.999937	2446.587908
343.391557	2448.977415
343.783113	2445.824173
344.174605	2446.146807
344.566033	2439.883173
344.957397	2441.319902
345.348697	2439.429470
345.739934	2437.763368
346.131106	2438.320416
346.522215	2433.894283
346.913260	2435.144489
347.304241	2432.633994
347.695159	2429.952100
348.086012	2431.421597
348.476802	2425.641914
348.867528	2421.961872
349.258191	2419.479103
349.648789	2420.638569
350.039324	2418.382652
350.429796	2423.322983
350.820203	2421.528332
351.210548	2420.567992
351.600828	2419.622776
351.991045	2417.069432
352.381198	2418.397776
352.771288	2416.802251
353.161314	2418.070101
353.551276	2417.260996
353.941175	2416.555234
354.331010	2419.090934
354.720782	2417.545821
355.110490	2416.371232
355.500135	2416.671181
355.889717	2417.520615
356.279235	2419.637900
356.668689	2418.249062
357.058080	2420.953641
357.447408	2419.985739
357.836672	2423.141502
358.225873	2422.781059
358.615010	2420.787283
359.004084	2422.256779
359.393095	2422.695359
359.782043	2421.233425
360.170927	2421.488003
360.559748	2426.627459
360.948505	2423.617891
361.337199	2422.503796
361.725830	2426.355237
362.114398	2424.086718
362.502903	2424.492531
362.891344	2426.143509
363.279722	2426.763571
363.668037	2427.323139
364.056289	2426.836667
364.444478	2429.332038
364.832603	2427.476894
365.220665	2430.965372
365.608665	2426.806420
365.996601	2427.310536
366.384474	2431.774477
366.772284	2431.542584
367.160031	2429.684919
367.547715	2431.119128
367.935336	2430.289858
368.322893	2429.369847
368.710388	2427.696184
369.097820	2428.444795
369.485189	2424.976482
369.872495	2434.935281
370.259738	2432.502924
370.646918	2434.610127
371.034035	2434.138779
371.421090	2438.915272
371.808081	2434.020312
372.195010	2436.598862
372.581875	2436.069541
372.968678	2438.237237
373.355418	2437.697833
373.742096	2441.103133
374.128710	2444.122784
374.515262	2447.621345
374.901751	2448.778289
375.288177	2450.885492
375.674540	2453.857252
376.060841	2455.299022
376.447079	2461.315639
376.833254	2467.506176
377.219367	2468.506845
377.605417	2473.729480
377.991404	2475.264512
378.377329	2481.916314
378.763191	2486.896974
379.148991	2487.784217
379.534727	2497.790908
379.920402	2499.746875
380.306013	2507.283400
380.691563	2515.419823
381.077049	2520.806296
381.462474	2526.457429
381.847835	2531.042358
382.233134	2538.410005
382.618371	2546.032229
383.003545	2553.407438
383.388657	2558.488921
383.773706	2569.609706
384.158693	2574.214800
384.543618	2578.920717
384.928480	2587.528487
385.313280	2594.916298
385.698017	2601.558018
386.082692	2612.701489
386.467305	2614.579319
386.851856	2626.456277
387.236344	2634.204531
387.620770	2634.625467
388.005133	2639.230561
388.389435	2653.633138
388.773674	2651.621717
389.157851	2662.349293
389.541965	2666.283913
389.926018	2669.117042
390.310008	2675.708350
390.693936	2675.219358
391.077802	2679.776562
391.461606	2683.131449
391.845348	2680.638599
392.229027	2683.406192
392.612645	2687.814681
392.996200	2690.156297
393.379694	2692.714683
393.763125	2695.290712
394.146494	2687.678570
394.529801	2688.555731
394.913047	2688.737212
395.296230	2679.579957
395.679351	2672.706343
396.062410	2675.075686
396.445408	2658.916267
396.828343	2655.841163
397.211217	2649.481747
397.594028	2633.080353
397.976778	2630.930301
398.359466	2623.499641
398.742092	2611.821808
399.124656	2603.395519
399.507158	2601.837802
399.889598	2589.915474
400.271977	2585.285174
400.654294	2572.364697
401.036549	2569.400498
401.418742	2559.277861
401.800874	2556.618652
402.182944	2550.642365
402.564952	2546.455686
402.946898	2537.989068
403.328783	2527.795855
403.710606	2523.715041
404.092367	2520.869310
404.474067	2515.868485
404.855705	2509.642660
405.237282	2503.938595
405.618797	2499.696464
406.000250	2499.550270
406.381642	2496.225629
406.762972	2486.594505
407.144240	2480.333392
407.525447	2481.099647
407.906593	2476.355922
408.287677	2480.154431
408.668700	2473.222844
409.049661	2474.004223
409.430560	2471.957515
409.811399	2469.555405
410.192176	2466.825620
410.572891	2467.498614
410.953545	2465.530044
411.334138	2464.274796
411.714669	2465.794704
412.095139	2462.669189
412.475547	2464.947790
412.855894	2462.074333
413.236180	2459.722634
413.616405	2462.550722
413.996568	2461.136678
414.376670	2461.857563
414.756711	2461.343365
415.136691	2459.891513
415.516609	2461.136678
415.896466	2460.216668
416.276262	2459.246245
416.655997	2460.665330
417.035670	2461.729014
417.415283	2464.058027
417.794834	2461.242542
418.174324	2462.132306
418.553753	2461.166925
418.933121	2459.132819
419.312428	2460.584672
419.691674	2459.604167
420.070859	2461.706328
420.449983	2464.748665
420.829045	2458.961420
421.208047	2462.734724
421.586988	2459.757922
421.965867	2465.277986
422.344686	2461.197172
422.723444	2462.349076
423.102141	2459.546194
423.480777	2459.100052
423.859352	2463.052317
424.237866	2458.583334
424.616319	2460.531740
424.994712	2459.173149
425.373044	2461.343365
425.751314	2461.673561
426.129524	2455.301542
426.507673	2463.047275
426.885762	2456.849177
427.263789	2463.296813
427.641756	2462.830506
428.019662	2464.831844
428.397508	2464.708336
428.775292	2466.097173
429.153016	2463.367389
429.530679	2466.238326
429.908282	2463.939560
430.285824	2461.993674
430.663305	2464.418469
431.040726	2463.017028
431.418086	2462.160032
431.795385	2464.816720
432.172624	2461.330763
432.549802	2465.567852
432.926920	2463.828654
433.303977	2464.592389
433.680974	2464.940229
434.057910	2463.871504
434.434786	2464.972996
434.811601	2465.023408
435.188355	2464.902420
435.565050	2467.211268
435.941683	2464.620115
436.318257	2464.607513
436.694770	2465.703963
437.071222	2464.841926
437.447614	2462.454940
437.823946	2469.346197
438.200218	2466.394602
438.576429	2467.571711
438.952580	2466.792853
439.328670	2467.034828
439.704700	2466.535754
440.080670	2468.002730
440.456580	2468.726135
440.832429	2468.406022
441.208218	2467.296968
441.583947	2466.676906
441.959616	2468.327884
442.335224	2468.257308
442.710773	2468.771506
443.086261	2469.189921
443.461689	2468.640436
443.837057	2467.745631
444.212365	2468.406022
444.587612	2465.424179
444.962800	2466.097173
445.337927	2466.596248
445.712995	2462.018880
446.088002	2469.013481
446.462949	2468.905096
446.837837	2469.832668
447.212664	2469.346197
447.587431	2468.481639
447.962139	2471.624799
448.336786	2474.475571
448.711374	2471.297124
449.085901	2470.593883
449.460369	2471.934830
449.834776	2472.416260
450.209124	2471.120683
450.583412	2475.325006
450.957640	2471.670169
451.331808	2473.260653
451.705917	2472.675879
452.079965	2469.628502
452.453954	2471.891980
452.827883	2471.198821
453.201752	2472.721250
453.575562	2472.832155
453.949311	2471.367700
454.323001	2473.479943
454.696632	2471.153451
455.070202	2473.472382
455.443713	2475.201497
455.817164	2472.196970
456.190556	2472.320478
456.563888	2474.004223
456.937160	2475.153606
457.310373	2473.444655
457.683526	2473.825262
458.056619	2475.861888
458.429653	2476.837352
458.802628	2471.760910
459.175542	2475.105715
459.548398	2472.970787
459.921194	2475.163689
460.293930	2474.485653
460.666607	2474.886425
461.039224	2476.986066
461.411782	2477.684266
461.784280	2475.854327
462.156719	2476.867599
462.529099	2475.244347
462.901419	2475.372897
463.273680	2473.908441
463.645882	2470.692185
464.018024	2473.689151
464.390106	2470.752679
464.762130	2476.867599
465.134094	2478.309369
465.505999	2479.345326
465.877845	2482.821201
466.249631	2480.915645
466.621358	2483.065697
466.993026	2482.105357
467.364634	2488.081645
467.736184	2479.693165
468.107674	2478.200984
468.479105	2478.125367
468.850477	2480.358598
469.221790	2478.057311
469.593043	2479.831797
469.964238	2478.135449
470.335373	2474.765438
470.706449	2478.352218
471.077467	2480.325830
471.448425	2480.177116
471.819324	2481.906232
472.190164	2483.736171
472.560945	2478.674852
472.931667	2480.756849
473.302330	2481.525625
473.672934	2483.658033
474.043479	2481.180306
474.413965	2480.091417
474.784393	2478.594194
475.154761	2481.593680
475.525070	2480.199801
475.895321	2480.570326
476.265513	2480.618217
476.635645	2478.715182
477.005719	2480.968577
477.375734	2477.623772
477.745691	2480.154431
478.115588	2479.536890
478.485427	2482.400265
478.855207	2483.290029
479.224928	2486.102993
479.594591	2484.817498
479.964194	2481.225676
480.333739	2484.515029
480.703226	2484.003352
481.072653	2484.174751
481.442022	2483.093424
481.811333	2482.513691
482.180584	2483.665595
482.549777	2482.170893
482.918912	2478.979842
483.287988	2483.025368
483.657005	2484.706593
484.025964	2484.457056
484.394864	2482.483444
484.763706	2484.656181
485.132489	2482.284318
485.501213	2482.692652
485.869879	2482.473362
486.238487	2486.891933
486.607036	2482.165851
486.975527	2484.078969
487.343959	2484.550317
487.712333	2485.679536
488.080648	2482.685090
488.448905	2483.902529
488.817104	2484.262971
489.185244	2484.714155
489.553326	2482.954792
489.921350	2484.701552
490.289315	2486.271871
490.657222	2488.217757
491.025070	2486.196254
491.392861	2486.639875
491.760593	2487.108703
492.128267	2485.941676
492.495883	2485.291367
492.863440	2486.665081
493.230939	2484.900677
493.598380	2485.528301
493.965763	2485.072077
494.333088	2486.539052
494.700354	2485.321614
495.067563	2484.570482
495.434713	2484.948568
495.801805	2485.419916
496.168839	2485.538383
496.535815	2484.721716
496.902733	2484.089052
497.269593	2484.469659
497.636395	2487.249855
498.003139	2482.985039
498.369825	2484.583085
498.736453	2484.230204
499.103023	2483.718527
499.469535	2483.816829
499.835989	2484.784731
500.202385	2482.100316
500.568723	2480.537559
500.935003	2482.415388
501.301226	2479.846921
501.667390	2486.352530
502.033497	2485.112406
502.399546	2484.986377
502.765537	2484.361274
503.131470	2484.993939
503.497345	2483.068218
503.863163	2485.760194
504.228923	2484.744402
504.594625	2484.492344
504.960269	2482.722899
505.325856	2486.604587
505.691385	2482.382621
506.056856	2484.668784
506.422270	2483.249699
506.787625	2484.663743
507.152924	2483.547128
507.518164	2481.593680
507.883347	2484.774648
508.248472	2483.776500
508.613540	2486.077787
508.978550	2487.829588
509.343503	2486.176089
509.708398	2485.321614
510.073236	2488.101810
510.438016	2483.632827
510.802738	2484.991418
511.167403	2485.417396
511.532010	2485.876141
511.896561	2485.689618
512.261053	2483.375728
512.625488	2486.324803
512.989866	2484.867910
513.354186	2485.006542
513.718449	2486.309680
514.082655	2484.880513
514.446803	2488.255565
514.810894	2486.007211
515.174927	2488.346306
515.538904	2486.022334
515.902822	2486.534011
516.266684	2485.331696
516.630488	2486.118116
516.994235	2487.310349
517.357925	2485.319093
517.721558	2487.275061
518.085133	2485.309011
518.448651	2483.320276
518.812112	2483.617704
519.175516	2483.950420
519.538863	2479.723412
519.902152	2487.035606
520.265385	2485.556027
520.628560	2485.556027
520.991678	2485.818167
521.354739	2487.025524
521.717743	2488.439567
522.080690	2488.275730
522.443580	2487.297746
522.806413	2486.216418
523.169189	2484.444453
523.531908	2485.858497
523.894569	2487.736326
524.257174	2486.554176
524.619722	2484.663743
524.982213	2486.881851
525.344647	2485.916470
525.707025	2486.959989
526.069345	2486.226501
526.431608	2485.911429
526.793815	2486.753301
527.155964	2487.101141
527.518057	2486.269351
527.880093	2488.742037
528.242072	2487.262458
528.603995	2484.315903
528.965860	2488.280771
529.327669	2484.479741
529.689421	2485.707262
530.051117	2487.544762
530.412755	2485.092241
530.774337	2486.725575
531.135862	2487.708600
531.497331	2486.985194
531.858743	2487.050729
532.220098	2488.432006
532.581396	2489.412510
532.942638	2486.672643
533.303824	2487.176758
533.664953	2487.827067
534.026025	2486.907057
534.387040	2485.349340
534.747999	2487.300267
535.108902	2486.501244
535.469748	2488.535349
535.830537	2487.549804
536.191270	2486.473517
536.551947	2483.980667
536.912567	2482.780872
537.273131	2482.274236
537.633638	2483.312714
537.994089	2485.087200
538.354483	2488.376553
538.714821	2486.665081
539.075103	2487.065853
539.435328	2487.811944
539.795497	2486.082828
540.155609	2490.125833
540.515665	2484.353712
540.875665	2487.673312
541.235609	2486.171048
541.595496	2486.269351
541.955328	2487.333034
542.315102	2486.652478
542.674821	2488.648775
543.034483	2489.324290
543.394090	2488.036275
543.753640	2488.628611
544.113134	2486.627272
544.472571	2486.995277
544.831953	2488.616008
545.191278	2487.920328
545.550548	2487.343116
545.909761	2489.036944
546.268918	2488.361429
546.628019	2487.622900
546.987064	2485.240955
547.346053	2490.960144
547.704986	2485.316573
548.063863	2487.738847
548.422684	2486.670122
548.781449	2489.283961
549.140158	2486.733137
549.498811	2488.716831
549.857408	2486.460914
550.215949	2486.924701
550.574434	2487.189361
550.932864	2485.314052
551.291237	2487.685915
551.649555	2486.312200
552.007817	2488.636172
552.366022	2484.207519
552.724173	2488.946203
553.082267	2486.415544
553.440305	2488.847901
553.798288	2487.499392
554.156215	2488.366471
554.514086	2484.111737
554.871902	2483.423619
555.229661	2482.972436
555.587365	2480.340954
555.945014	2488.058960
556.302606	2487.239773
556.660143	2487.592653
557.017625	2488.089207
557.375050	2486.115595
557.732421	2487.315390
558.089735	2488.429485
558.446994	2484.124340
558.804197	2490.009887
559.161345	2487.214567
559.518437	2486.775987
559.875474	2489.911584
560.232455	2489.578868
560.589381	2489.052067
560.946251	2487.242293
561.303065	2486.012252
561.659825	2488.681543
562.016528	2486.947386
562.373177	2485.240955
562.729770	2490.977788
563.086307	2488.636172
563.442789	2486.856645
563.799216	2486.481079
564.155587	2488.689104
564.511904	2488.376553
564.868164	2487.128867
565.224370	2488.278250
565.580520	2488.933600
565.936615	2488.477376
566.292654	2488.822695
566.648638	2487.398569
567.004567	2486.614670
567.360441	2486.549135
567.716260	2489.687253
568.072023	2489.341934
568.427732	2488.638693
568.783385	2489.278919
569.138982	2488.265648
569.494525	2488.527788
569.850013	2489.152891
570.205445	2487.592653
570.560823	2486.581902
570.916145	2488.051398
571.271412	2489.949393
571.626625	2487.668271
571.981782	2489.823364
572.336884	2485.634165
572.691931	2483.804226
573.046923	2487.136429
573.401860	2482.811119
573.756743	2488.311018
574.111570	2488.736995
574.466342	2487.736326
574.821059	2489.435195
575.175722	2485.475369
575.530330	2489.619197
575.884882	2486.050060
576.239380	2487.917808
576.593823	2489.503251
576.948211	2484.842704
577.302544	2487.713641
577.656823	2486.372694
578.011047	2489.001656
578.365216	2487.471666
578.719330	2486.975112
579.073389	2487.101141
579.427394	2485.855976
579.781344	2488.749598
580.135239	2488.338744
580.489080	2488.018631
580.842866	2488.081645
581.196597	2493.223622
581.550273	2489.145329
581.903895	2488.074084
582.257463	2488.384115
582.610975	2485.762715
582.964434	2485.379587
583.317837	2488.845380
583.671186	2486.163486
584.024481	2485.099803
584.377721	2486.957468
584.730906	2486.788589
585.084037	2489.707417
585.437113	2486.140801
585.790135	2487.854793
586.143103	2485.324134
586.496016	2487.887561
586.848874	2485.984525
587.201679	2484.908239
587.554428	2488.580720
587.907124	2486.798672
588.259765	2486.685246
588.612352	2489.994763
588.964884	2485.707262
589.317362	2486.894454
589.669786	2488.618528
590.022155	2484.729278
590.374470	2481.190388
590.726731	2483.063177
591.078937	2482.498568
591.431090	2484.489823
591.783188	2487.146511
592.135232	2487.766573
592.487222	2486.206336
592.839157	2485.611480
593.191038	2486.836480
593.542866	2485.422437
593.894639	2486.808754
594.246358	2486.329844
594.598022	2485.550986
594.949633	2489.016779
595.301190	2488.079125
595.652692	2486.904536
596.004141	2486.697849
596.355535	2485.432519
596.706876	2486.874289
597.058162	2485.800523
597.409395	2487.118785
597.760573	2486.302118
598.111698	2486.445791
598.462768	2486.937303
598.813785	2486.546614
599.164748	2485.170379
599.515657	2485.530822
599.866511	2486.912098
600.217312	2488.961327
600.568060	2485.109885
600.918753	2489.137767
601.269392	2488.336224
601.619978	2487.912767
601.970510	2485.750112
602.320988	2487.343116
602.671412	2485.238435
603.021783	2486.781028
603.372100	2484.061325
603.722363	2489.286481
604.072572	2483.731130
604.422728	2486.206336
604.772830	2485.460245
605.122878	2486.102993
605.472872	2486.249186
605.822813	2487.638024
606.172701	2487.068373
606.522534	2487.176758
606.872314	2486.685246
607.222041	2485.283805
607.571714	2484.827581
607.921333	2482.067549
608.270899	2485.563589
608.620411	2484.404124
608.969870	2488.127016
609.319276	2485.394710
609.668627	2487.617859
610.017926	2487.738847
610.367171	2485.281284
610.716362	2487.791779
611.065500	2485.964361
611.414585	2485.475369
611.763616	2484.900677
612.112594	2483.093424
612.461518	2485.939155
612.810389	2486.551655
613.159207	2485.059474
613.507971	2485.974443
613.856682	2485.119967
614.205340	2486.523929
614.553945	2486.952427
614.902496	2487.496872
615.250994	2484.578043
615.599439	2485.364463
615.947830	2486.264309
616.296169	2486.811275
616.644454	2484.482262
616.992686	2487.307828
617.340864	2485.361943
617.688990	2483.771459
618.037063	2484.893116
618.385082	2486.501244
618.733048	2486.362612
619.080961	2485.583754
619.428821	2485.513178
619.776628	2486.627272
620.124382	2488.495020
620.472083	2485.200626
620.819731	2485.732468
621.167326	2483.015286
621.514868	2487.305308
621.862357	2486.702890
622.209793	2486.962509
622.557176	2485.377066
622.904506	2483.317755
623.251783	2482.823722
623.599007	2485.140132
623.946179	2483.348002
624.293297	2486.886892
624.640363	2486.770945
624.987376	2483.622745
625.334336	2480.645943
625.681243	2483.665595
626.028097	2479.214256
626.374899	2487.164155
626.721647	2484.406644
627.068343	2482.692652
627.414987	2484.963692
627.761577	2484.847745
628.108115	2484.220122
628.454600	2485.114926
628.801032	2483.509319
629.147412	2485.024186
629.493739	2486.410503
629.840014	2484.018475
630.186236	2485.155256
630.532405	2484.948568
630.878521	2484.507467
631.224585	2484.507467
631.570597	2486.407982
631.916556	2483.549648
632.262462	2481.439925
632.608316	2487.091059
632.954117	2480.928248
633.299866	2485.737509
633.645562	2484.938486
633.991206	2484.275574
634.336797	2481.371870
634.682336	2482.455718
635.027823	2482.281798
635.373257	2481.843217
635.718639	2484.996459
636.063968	2486.463435
636.409245	2483.859679
636.754470	2483.229535
637.099642	2483.650471
637.444762	2481.961685
637.789829	2479.642754
638.134845	2481.634010
638.479808	2481.795327
638.824719	2481.752477
639.169577	2481.767600
639.514383	2484.159628
639.859137	2482.564103
640.203839	2482.347333
640.548489	2486.876810
640.893086	2481.828094
641.237632	2481.129894
641.582125	2482.395224
641.926566	2482.057467
642.270955	2479.902373
642.615292	2477.956488
642.959576	2479.912456
643.303809	2478.770634
643.647990	2481.303814
643.992118	2480.600573
644.336195	2483.915132
