Dividing Wavelength (nm)	Counts (n)	Blue Motor Position (mm): 0.000000	Red Motor Position (mm): 9.000000	
326.493990	2056.828578
326.888308	2056.828578
327.282561	2056.828578
327.676750	2027.973013
328.070874	2030.309588
328.464933	2036.926102
328.858929	2046.176620
329.252859	2056.392518
329.646726	2069.091185
330.040528	2085.036354
330.434265	2100.326174
330.827938	2124.256531
331.221547	2144.332926
331.615091	2163.315391
332.008571	2185.972857
332.401986	2203.674869
332.795338	2226.191183
333.188625	2243.716754
333.581847	2262.520258
333.975006	2281.807712
334.368100	2298.625002
334.761129	2315.835501
335.154095	2330.275886
335.546996	2346.155521
335.939833	2359.227233
336.332606	2372.487988
336.725315	2381.151211
337.117960	2396.118396
337.510540	2403.375137
337.903056	2414.687487
338.295508	2417.997004
338.687896	2425.588982
339.080220	2434.171546
339.472480	2436.722370
339.864676	2437.808739
340.256807	2443.089347
340.648875	2448.163269
341.040879	2446.766869
341.432818	2447.160079
341.824694	2448.213680
342.216506	2449.990687
342.608253	2447.916252
342.999937	2445.267126
343.391557	2445.362908
343.783113	2444.609255
344.174605	2447.770059
344.566033	2441.730756
344.957397	2441.493822
345.348697	2436.697164
345.739934	2440.094902
346.131106	2434.584921
346.522215	2436.467792
346.913260	2429.972265
347.304241	2431.834971
347.695159	2429.226174
348.086012	2426.561924
348.476802	2424.648807
348.867528	2421.619073
349.258191	2419.584967
349.648789	2421.689649
350.039324	2417.543300
350.429796	2423.348189
350.820203	2418.748136
351.210548	2419.557241
351.600828	2417.477765
351.991045	2418.685122
352.381198	2419.653023
352.771288	2417.971798
353.161314	2418.521284
353.551276	2418.402817
353.941175	2417.724782
354.331010	2418.117992
354.720782	2415.834349
355.110490	2420.225194
355.500135	2418.569175
355.889717	2418.445667
356.279235	2417.598753
356.668689	2419.010276
357.058080	2418.002045
357.447408	2422.425658
357.836672	2419.915163
358.225873	2421.114958
358.615010	2421.571182
359.004084	2420.946079
359.393095	2422.206367
359.782043	2422.261820
360.170927	2424.595874
360.559748	2425.220977
360.948505	2427.839857
361.337199	2422.975143
361.725830	2424.525298
362.114398	2424.432037
362.502903	2426.791297
362.891344	2426.246852
363.279722	2425.760381
363.668037	2428.202820
364.056289	2429.662234
364.444478	2429.523602
364.832603	2429.780701
365.220665	2431.774477
365.608665	2431.555187
365.996601	2430.378078
366.384474	2428.684250
366.772284	2430.105856
367.160031	2430.730959
367.547715	2430.640218
367.935336	2431.124169
368.322893	2430.637697
368.710388	2429.049734
369.097820	2430.572162
369.485189	2429.122831
369.872495	2434.804211
370.259738	2434.070723
370.646918	2437.140786
371.034035	2436.152720
371.421090	2436.518203
371.808081	2436.094746
372.195010	2437.927206
372.581875	2438.413677
372.968678	2442.617999
373.355418	2439.651280
373.742096	2442.252516
374.128710	2444.843669
374.515262	2448.894236
374.901751	2450.484720
375.288177	2456.168621
375.674540	2457.048302
376.060841	2462.790177
376.447079	2462.170115
376.833254	2468.963069
377.219367	2475.325006
377.605417	2480.038484
377.991404	2482.543938
378.377329	2492.933756
378.763191	2497.407780
379.148991	2505.415653
379.534727	2516.400327
379.920402	2521.975843
380.306013	2533.520086
380.691563	2545.107178
381.077049	2554.327448
381.462474	2564.626525
381.847835	2578.474575
382.233134	2589.592840
382.618371	2605.432145
383.003545	2619.617952
383.388657	2634.401136
383.773706	2650.777324
384.158693	2664.821979
384.543618	2679.590039
384.928480	2694.942873
385.313280	2712.274360
385.698017	2727.392780
386.082692	2752.432191
386.467305	2760.087183
386.851856	2779.838424
387.236344	2801.739717
387.620770	2815.560040
388.005133	2832.226095
388.389435	2855.725434
388.773674	2864.494521
389.157851	2888.402193
389.541965	2904.765778
389.926018	2910.719381
390.310008	2935.010181
390.693936	2951.401493
391.077802	2964.357258
391.461606	2986.795434
391.845348	2988.827019
392.229027	3004.714215
392.612645	3027.671630
392.996200	3040.294679
393.379694	3059.899726
393.763125	3080.008889
394.146494	3089.019951
394.529801	3098.585541
394.913047	3118.682101
395.296230	3107.702468
395.679351	3114.404682
396.062410	3128.555200
396.445408	3101.408587
396.828343	3111.294290
397.211217	3111.405195
397.594028	3080.147521
397.976778	3092.662185
398.359466	3092.221084
398.742092	3079.829928
399.124656	3065.374419
399.507158	3078.602407
399.889598	3064.020869
400.271977	3072.164853
400.654294	3044.360369
401.036549	3049.431770
401.418742	3027.790097
401.800874	3033.181611
402.182944	3022.302801
402.564952	3032.266641
402.946898	3006.982734
403.328783	2981.048518
403.710606	2971.876139
404.092367	2975.238588
404.474067	2966.071250
404.855705	2936.933381
405.237282	2906.613361
405.618797	2906.935995
406.000250	2906.252919
406.381642	2901.627660
406.762972	2875.466592
407.144240	2840.997703
407.525447	2832.488235
407.906593	2812.119453
408.287677	2809.782878
408.668700	2790.823098
409.049661	2775.752569
409.430560	2760.702204
409.811399	2737.212948
410.192176	2728.179200
410.572891	2719.236193
410.953545	2712.181098
411.334138	2682.120698
411.714669	2673.795232
412.095139	2654.225473
412.475547	2647.785399
412.855894	2633.488687
413.236180	2628.520630
413.616405	2606.826024
413.996568	2602.518358
414.376670	2588.819023
414.756711	2577.486509
415.136691	2570.582649
415.516609	2562.431103
415.896466	2557.967161
416.276262	2547.446273
416.655997	2543.993083
417.035670	2542.107691
417.415283	2534.651825
417.794834	2532.932791
418.174324	2519.959382
418.553753	2515.137518
418.933121	2515.780265
419.312428	2509.110819
419.691674	2500.465240
420.070859	2500.921464
420.449983	2495.091370
420.829045	2494.867038
421.208047	2490.009887
421.586988	2488.878148
421.965867	2487.012921
422.344686	2486.662561
422.723444	2486.218939
423.102141	2481.472693
423.480777	2481.018989
423.859352	2480.194760
424.237866	2482.642240
424.616319	2479.463793
424.994712	2477.437249
425.373044	2478.261478
425.751314	2476.492033
426.129524	2471.294603
426.507673	2475.103195
426.885762	2474.284007
427.263789	2477.543113
427.641756	2475.438432
428.019662	2475.808956
428.397508	2477.059163
428.775292	2474.803246
429.153016	2474.226034
429.530679	2474.992289
429.908282	2473.782413
430.285824	2474.490695
430.663305	2473.134624
431.040726	2476.267701
431.418086	2472.428863
431.795385	2473.369038
432.172624	2473.694192
432.549802	2473.996662
432.926920	2471.725622
433.303977	2476.688638
433.680974	2474.410036
434.057910	2473.973976
434.434786	2472.779223
434.811601	2475.274594
435.188355	2477.016313
435.565050	2473.605972
435.941683	2474.145376
436.318257	2474.251240
436.694770	2472.101188
437.071222	2474.717547
437.447614	2473.679069
437.823946	2473.371558
438.200218	2474.755355
438.576429	2477.477578
438.952580	2472.275107
439.328670	2474.556230
439.704700	2474.036991
440.080670	2477.346508
440.456580	2476.277784
440.832429	2475.972794
441.208218	2471.844089
441.583947	2473.885756
441.959616	2477.202835
442.335224	2475.231744
442.710773	2475.965232
443.086261	2476.353401
443.461689	2475.451034
443.837057	2476.759214
444.212365	2477.167547
444.587612	2474.331898
444.962800	2472.330560
445.337927	2476.237454
445.712995	2470.510704
446.088002	2477.596045
446.462949	2476.282825
446.837837	2479.216776
447.212664	2476.681076
447.587431	2478.621920
447.962139	2482.271716
448.336786	2485.006542
448.711374	2483.315234
449.085901	2479.340285
449.460369	2480.063690
449.834776	2479.831797
450.209124	2481.558392
450.583412	2479.925058
450.957640	2481.555872
451.331808	2483.582416
451.705917	2480.819863
452.079965	2481.218114
452.453954	2478.445480
452.827883	2482.687611
453.201752	2481.969246
453.575562	2482.932107
453.949311	2479.733495
454.323001	2480.179637
454.696632	2481.452528
455.070202	2485.677015
455.443713	2480.915645
455.817164	2485.440081
456.190556	2483.055615
456.563888	2485.634165
456.937160	2482.692652
457.310373	2485.140132
457.683526	2482.790954
458.056619	2484.593167
458.429653	2484.119298
458.802628	2482.942189
459.175542	2487.456542
459.548398	2484.414206
459.921194	2487.922849
460.293930	2486.907057
460.666607	2489.775473
461.039224	2489.510813
461.411782	2492.104486
461.784280	2489.110041
462.156719	2490.012407
462.529099	2489.614156
462.901419	2489.793117
463.273680	2484.951089
463.645882	2486.392859
464.018024	2485.717344
464.390106	2483.519401
464.762130	2490.844198
465.134094	2495.209837
465.505999	2497.354848
465.877845	2502.534633
466.249631	2502.877432
466.621358	2504.271311
466.993026	2499.565394
467.364634	2502.539675
467.736184	2498.489108
468.107674	2494.156236
468.479105	2498.048007
468.850477	2494.733448
469.221790	2493.934425
469.593043	2493.818478
469.964238	2493.737820
470.335373	2494.773777
470.706449	2495.567759
471.077467	2496.013901
471.448425	2498.990702
471.819324	2497.241422
472.190164	2501.433141
472.560945	2496.460043
472.931667	2498.663027
473.302330	2494.625063
473.672934	2494.370485
474.043479	2494.317553
474.413965	2497.311998
474.784393	2495.345948
475.154761	2497.236381
475.525070	2496.777636
475.895321	2494.635145
476.265513	2495.517347
476.635645	2498.249653
477.005719	2497.432986
477.375734	2494.282265
477.745691	2497.438027
478.115588	2500.883656
478.485427	2500.611433
478.855207	2503.784840
479.224928	2503.051352
479.594591	2505.985303
479.964194	2507.081754
480.333739	2505.735766
480.703226	2505.876918
481.072653	2504.021774
481.442022	2506.927999
481.811333	2504.452793
482.180584	2501.032370
482.549777	2507.560664
482.918912	2500.374499
483.287988	2505.145951
483.657005	2504.551095
484.025964	2505.458503
484.394864	2507.742145
484.763706	2505.776095
485.132489	2503.018584
485.501213	2504.243585
485.869879	2503.492453
486.238487	2505.077896
486.607036	2505.234171
486.975527	2503.280724
487.343959	2505.342556
487.712333	2503.845333
488.080648	2503.552947
488.448905	2504.241064
488.817104	2502.431290
489.185244	2506.885149
489.553326	2508.127794
489.921350	2510.829852
490.289315	2511.059225
490.657222	2514.298166
491.025070	2509.375479
491.392861	2511.704492
491.760593	2512.289266
492.128267	2509.735922
492.495883	2509.889677
492.863440	2510.045953
493.230939	2508.180726
493.598380	2506.416322
493.965763	2507.701816
494.333088	2505.461023
494.700354	2503.666373
495.067563	2506.708709
495.434713	2502.204438
495.801805	2505.970180
496.168839	2504.929182
496.535815	2506.615447
496.902733	2505.687875
497.269593	2505.473626
497.636395	2507.863133
498.003139	2504.737618
498.369825	2506.154182
498.736453	2505.660149
499.103023	2508.127794
499.469535	2505.221568
499.835989	2505.788698
500.202385	2502.890035
500.568723	2499.772081
500.935003	2502.675786
501.301226	2500.092194
501.667390	2506.375993
502.033497	2505.881960
502.399546	2505.188801
502.765537	2505.435818
503.131470	2505.912207
503.497345	2503.603358
503.863163	2500.921464
504.228923	2504.742659
504.594625	2507.232989
504.960269	2504.046980
505.325856	2507.056548
505.691385	2503.585714
506.056856	2506.307937
506.422270	2504.334325
506.787625	2507.152330
507.152924	2504.120076
507.518164	2505.650067
507.883347	2504.840961
508.248472	2503.134531
508.613540	2505.604696
508.978550	2504.160406
509.343503	2503.542864
509.708398	2506.839779
510.073236	2502.685868
510.438016	2505.458503
510.802738	2504.225941
511.167403	2506.144100
511.532010	2503.363903
511.896561	2507.926148
512.261053	2507.490088
512.625488	2504.667042
512.989866	2505.720643
513.354186	2504.596465
513.718449	2506.993534
514.082655	2507.870695
514.446803	2504.843482
514.810894	2508.087464
515.174927	2506.431445
515.538904	2505.700478
515.902822	2502.567401
516.266684	2505.950015
516.630488	2505.387927
516.994235	2505.004799
517.357925	2505.776095
517.721558	2507.565705
518.085133	2506.428925
518.448651	2504.455313
518.812112	2503.056393
519.175516	2502.801815
519.538863	2500.505569
519.902152	2506.083606
520.265385	2505.508914
520.628560	2505.889521
520.991678	2506.086126
521.354739	2507.525376
521.717743	2505.723163
522.080690	2506.484377
522.443580	2504.530930
522.806413	2507.283400
523.169189	2504.881291
523.531908	2506.033194
523.894569	2506.633092
524.257174	2506.917917
524.619722	2506.668380
524.982213	2506.262567
525.344647	2505.234171
525.707025	2505.675272
526.069345	2507.427073
526.431608	2505.675272
526.793815	2507.003616
527.155964	2506.076044
527.518057	2507.845489
527.880093	2507.018740
528.242072	2509.057887
528.603995	2506.461692
528.965860	2506.822135
529.327669	2505.125787
529.689421	2506.829697
530.051117	2505.130828
530.412755	2504.273832
530.774337	2504.518327
531.135862	2505.332474
531.497331	2507.243071
531.858743	2503.825169
532.220098	2508.296672
532.581396	2505.639984
532.942638	2504.941784
533.303824	2504.782988
533.664953	2503.789881
534.026025	2506.164264
534.387040	2506.817094
534.747999	2503.822648
535.108902	2504.263749
535.469748	2500.792915
535.830537	2505.196363
536.191270	2504.407422
536.551947	2503.767196
536.912567	2500.104797
537.273131	2502.988337
537.633638	2499.434324
537.994089	2502.915241
538.354483	2502.948008
538.714821	2503.585714
539.075103	2504.530930
539.435328	2506.759120
539.795497	2505.899604
540.155609	2504.041938
540.515665	2503.835251
540.875665	2503.409274
541.235609	2506.249964
541.595496	2504.984634
541.955328	2506.045797
542.315102	2504.856085
542.674821	2504.588904
543.034483	2507.842968
543.394090	2505.307268
543.753640	2504.972031
544.113134	2503.510097
544.472571	2503.810045
544.831953	2505.685355
545.191278	2503.681496
545.550548	2504.261229
545.909761	2504.326764
546.268918	2504.979593
546.628019	2505.753410
546.987064	2503.958759
547.346053	2502.322905
547.704986	2503.784840
548.063863	2506.577639
548.422684	2504.541013
548.781449	2504.465395
549.140158	2503.961280
549.498811	2506.532268
549.857408	2503.603358
550.215949	2504.755262
550.574434	2507.331291
550.932864	2505.224089
551.291237	2504.230982
551.649555	2506.799450
552.007817	2503.873060
552.366022	2504.858605
552.724173	2504.583862
553.082267	2504.566218
553.440305	2503.343739
553.798288	2506.655777
554.156215	2503.983965
554.514086	2501.546567
554.871902	2500.371978
555.229661	2500.679489
555.587365	2499.719149
555.945014	2502.920282
556.302606	2502.287617
556.660143	2506.612927
557.017625	2504.576301
557.375050	2505.150992
557.732421	2504.520848
558.089735	2503.217710
558.446994	2505.571929
558.804197	2503.545385
559.161345	2505.513955
559.518437	2502.905158
559.875474	2506.134017
560.232455	2504.422546
560.589381	2505.224089
560.946251	2505.400529
561.303065	2504.664521
561.659825	2504.646877
562.016528	2505.652587
562.373177	2505.219048
562.729770	2502.884994
563.086307	2503.711743
563.442789	2507.704337
563.799216	2507.341374
564.155587	2504.878770
564.511904	2504.518327
564.868164	2504.074706
565.224370	2502.877432
565.580520	2504.233502
565.936615	2503.903307
566.292654	2506.151661
566.648638	2503.217710
567.004567	2503.610920
567.360441	2503.250477
567.716260	2506.287773
568.072023	2507.548061
568.427732	2503.104284
568.783385	2504.079747
569.138982	2504.722494
569.494525	2505.329953
569.850013	2507.374141
570.205445	2503.578152
570.560823	2502.980776
570.916145	2506.255005
571.271412	2502.706033
571.626625	2507.318688
571.981782	2504.664521
572.336884	2504.924140
572.691931	2500.634118
573.046923	2501.208810
573.401860	2499.320898
573.756743	2502.106135
574.111570	2505.203924
574.466342	2505.975221
574.821059	2505.085457
575.175722	2503.106804
575.530330	2501.082781
575.884882	2504.974552
576.239380	2505.231651
576.593823	2506.713750
576.948211	2502.532113
577.302544	2504.422546
577.656823	2502.017915
578.011047	2503.512617
578.365216	2505.413132
578.719330	2501.657473
579.073389	2503.820128
579.427394	2502.184273
579.781344	2506.413801
580.135239	2503.079078
580.489080	2507.318688
580.842866	2504.896414
581.196597	2503.197545
581.550273	2503.265601
581.903895	2502.184273
582.257463	2503.724346
582.610975	2501.959942
582.964434	2503.593276
583.317837	2503.368944
583.671186	2504.813235
584.024481	2502.365755
584.377721	2498.698315
584.730906	2502.214520
585.084037	2503.011023
585.437113	2502.713594
585.790135	2501.957421
586.143103	2501.932216
586.496016	2503.978924
586.848874	2502.942967
587.201679	2505.198883
587.554428	2500.278717
587.907124	2503.573111
588.259765	2501.246619
588.612352	2502.136382
588.964884	2503.777278
589.317362	2502.085971
589.669786	2506.255005
590.022155	2500.813079
590.374470	2497.594303
590.726731	2501.100425
591.078937	2498.549601
591.431090	2501.854078
591.783188	2501.634787
592.135232	2502.285096
592.487222	2500.808038
592.839157	2499.646052
593.191038	2501.276866
593.542866	2502.030518
593.894639	2498.330311
594.246358	2502.948008
594.598022	2500.132524
594.949633	2501.168481
595.301190	2498.521875
595.652692	2499.358707
596.004141	2500.508090
596.355535	2500.596310
596.706876	2500.480363
597.058162	2497.818634
597.409395	2500.629077
597.760573	2499.842657
598.111698	2501.027328
598.462768	2498.892400
598.813785	2498.940291
599.164748	2501.324757
599.515657	2501.097905
599.866511	2497.256545
600.217312	2501.110508
600.568060	2497.884169
600.918753	2501.536485
601.269392	2503.666373
601.619978	2501.843995
601.970510	2500.802997
602.320988	2498.816782
602.671412	2501.919613
603.021783	2500.014057
603.372100	2497.939622
603.722363	2499.449447
604.072572	2500.117400
604.422728	2500.934067
604.772830	2501.100425
605.122878	2500.555981
605.472872	2500.127483
605.822813	2499.956083
606.172701	2500.268635
606.522534	2501.637308
606.872314	2500.477843
607.222041	2500.263594
607.571714	2499.540188
607.921333	2496.255876
608.270899	2497.349807
608.620411	2494.005001
608.969870	2500.503048
609.319276	2499.310816
609.668627	2499.830054
610.017926	2500.311485
610.367171	2502.917761
610.716362	2500.918944
611.065500	2499.983810
611.414585	2500.014057
611.763616	2499.285610
612.112594	2500.997082
612.461518	2499.951042
612.810389	2501.107987
613.159207	2502.398522
613.507971	2502.186794
613.856682	2503.033708
614.205340	2500.172853
614.553945	2500.475322
614.902496	2500.765188
615.250994	2501.107987
615.599439	2503.177381
615.947830	2502.721156
616.296169	2499.928357
616.644454	2502.138903
616.992686	2500.871053
617.340864	2504.387258
617.688990	2499.358707
618.037063	2503.147134
618.385082	2502.010353
618.733048	2502.378358
619.080961	2499.015908
619.428821	2501.299551
619.776628	2500.240908
620.124382	2499.159581
620.472083	2501.050014
620.819731	2502.403563
621.167326	2500.883656
621.514868	2502.751403
621.862357	2500.198059
622.209793	2503.847854
622.557176	2501.455827
622.904506	2498.216885
623.251783	2500.301402
623.599007	2501.662514
623.946179	2500.563542
624.293297	2501.622185
624.640363	2498.789056
624.987376	2501.070178
625.334336	2491.658344
625.681243	2497.677482
626.028097	2495.383757
626.374899	2499.404077
626.721647	2498.368120
627.068343	2497.932060
627.414987	2495.739158
627.761577	2498.267297
628.108115	2498.559684
628.454600	2497.992554
628.801032	2497.538850
629.147412	2498.312667
629.493739	2499.557832
629.840014	2499.368789
630.186236	2496.712101
630.532405	2498.879797
630.878521	2494.249497
631.224585	2499.872904
631.570597	2495.303098
631.916556	2499.338542
632.262462	2493.934425
632.608316	2499.371309
632.954117	2499.986330
633.299866	2499.215034
633.645562	2498.421052
633.991206	2497.127996
634.336797	2496.843171
634.682336	2494.748571
635.027823	2497.458192
635.373257	2494.977944
635.718639	2494.199086
636.063968	2497.821155
636.409245	2497.460712
636.754470	2497.367451
637.099642	2496.407111
637.444762	2496.228150
637.789829	2494.158756
638.134845	2495.625732
638.479808	2492.570793
638.824719	2496.964158
639.169577	2494.345279
639.514383	2494.783859
639.859137	2493.813437
640.203839	2496.525578
640.548489	2490.549290
640.893086	2494.496514
641.237632	2495.131699
641.582125	2493.858808
641.926566	2493.412666
642.270955	2494.652789
642.615292	2490.982829
642.959576	2495.119096
643.303809	2488.852942
643.647990	2495.487100
643.992118	2490.745895
644.336195	2495.847543
