Dividing Wavelength (nm)	Counts (n)	Blue Motor Position (mm): 0.000000	Red Motor Position (mm): 9.500000	
326.493990	2054.688608
326.888308	2054.688608
327.282561	2054.688608
327.676750	2028.885462
328.070874	2031.963087
328.464933	2035.549867
328.858929	2042.983049
329.252859	2056.319421
329.646726	2068.760989
330.040528	2084.557445
330.434265	2102.864395
330.827938	2123.727210
331.221547	2142.934006
331.615091	2164.253046
332.008571	2182.154183
332.401986	2203.591690
332.795338	2223.476521
333.188625	2243.116857
333.581847	2261.769126
333.975006	2280.842331
334.368100	2296.066616
334.761129	2316.947075
335.154095	2330.414518
335.546996	2346.024451
335.939833	2359.340658
336.332606	2370.766434
336.725315	2383.888557
337.117960	2396.791390
337.510540	2402.061917
337.903056	2412.441653
338.295508	2421.760225
338.687896	2425.319280
339.080220	2434.106011
339.472480	2437.082813
339.864676	2440.392330
340.256807	2443.354008
340.648875	2443.134718
341.040879	2446.877774
341.432818	2447.419698
341.824694	2447.293670
342.216506	2447.180244
342.608253	2446.590429
342.999937	2448.259051
343.391557	2444.609255
343.783113	2443.601024
344.174605	2445.302414
344.566033	2443.686724
344.957397	2440.530962
345.348697	2439.288317
345.739934	2438.063317
346.131106	2438.164140
346.522215	2432.437389
346.913260	2434.836978
347.304241	2431.925712
347.695159	2426.884558
348.086012	2430.050403
348.476802	2423.781728
348.867528	2421.873651
349.258191	2420.109247
349.648789	2420.275606
350.039324	2419.736202
350.429796	2419.310225
350.820203	2420.751995
351.210548	2420.835174
351.600828	2418.299473
351.991045	2418.206212
352.381198	2416.340985
352.771288	2419.499268
353.161314	2418.377611
353.551276	2418.982550
353.941175	2418.039854
354.331010	2417.755029
354.720782	2419.474062
355.110490	2416.199833
355.500135	2416.416602
355.889717	2420.331058
356.279235	2416.580440
356.668689	2421.505647
357.058080	2419.877354
357.447408	2421.432550
357.836672	2422.763415
358.225873	2421.949269
358.615010	2421.488003
359.004084	2422.221491
359.393095	2422.564289
359.782043	2423.474218
360.170927	2423.759043
360.559748	2424.179979
360.948505	2423.471697
361.337199	2424.568148
361.725830	2424.502613
362.114398	2425.909095
362.502903	2426.889599
362.891344	2427.388674
363.279722	2429.420259
363.668037	2430.688109
364.056289	2427.968406
364.444478	2429.326997
364.832603	2428.749785
365.220665	2428.412028
365.608665	2429.468150
365.996601	2427.161822
366.384474	2429.848757
366.772284	2429.604261
367.160031	2431.933274
367.547715	2432.616350
367.935336	2432.200455
368.322893	2431.691298
368.710388	2426.413210
369.097820	2430.302461
369.485189	2428.265834
369.872495	2436.009047
370.259738	2431.136772
370.646918	2436.059458
371.034035	2436.387133
371.421090	2434.753799
371.808081	2437.723039
372.195010	2436.568615
372.581875	2441.622372
372.968678	2439.336208
373.355418	2443.843000
373.742096	2443.472475
374.128710	2443.079265
374.515262	2446.129163
374.901751	2447.772579
375.288177	2453.645523
375.674540	2459.959569
376.060841	2461.822275
376.447079	2466.838223
376.833254	2470.311578
377.219367	2473.711836
377.605417	2478.687455
377.991404	2485.019144
378.377329	2493.463077
378.763191	2497.485918
379.148991	2505.544202
379.534727	2515.077024
379.920402	2526.533046
380.306013	2534.551002
380.691563	2548.812426
381.077049	2553.301573
381.462474	2565.256670
381.847835	2577.965418
382.233134	2591.989908
382.618371	2603.758482
383.003545	2622.325052
383.388657	2634.375930
383.773706	2654.848056
384.158693	2668.118893
384.543618	2683.980884
384.928480	2697.062678
385.313280	2718.374156
385.698017	2731.027452
386.082692	2757.054929
386.467305	2768.024480
386.851856	2792.269910
387.236344	2815.701193
387.620770	2830.040755
388.005133	2845.431398
388.389435	2874.047507
388.773674	2880.742160
389.157851	2908.287024
389.541965	2931.824172
389.926018	2936.885490
390.310008	2960.397432
390.693936	2977.675986
391.077802	2992.612925
391.461606	3018.005217
391.845348	3022.827081
392.229027	3040.604710
392.612645	3064.003225
392.996200	3081.546441
393.379694	3104.781119
393.763125	3130.284316
394.146494	3134.798669
394.529801	3152.321720
394.913047	3176.209228
395.296230	3164.259172
395.679351	3169.648166
396.062410	3188.882688
396.445408	3159.943945
396.828343	3174.026408
397.211217	3179.503622
397.594028	3148.606390
397.976778	3160.732885
398.359466	3164.680109
398.742092	3151.628562
399.124656	3143.101450
399.507158	3158.366064
399.889598	3139.683547
400.271977	3155.134684
400.654294	3128.398925
401.036549	3134.954945
401.418742	3111.995010
401.800874	3124.665950
402.182944	3113.235134
402.564952	3129.450005
402.946898	3099.918926
403.328783	3074.130903
403.710606	3070.849112
404.092367	3070.153433
404.474067	3073.349525
404.855705	3038.999102
405.237282	3001.364368
405.618797	3007.943074
406.000250	3007.990965
406.381642	3005.470388
406.762972	2975.452838
407.144240	2939.559822
407.525447	2934.322063
407.906593	2912.060328
408.287677	2906.464647
408.668700	2887.250289
409.049661	2870.173381
409.430560	2853.247707
409.811399	2825.297029
410.192176	2813.450317
410.572891	2805.419759
410.953545	2794.556073
411.334138	2762.264962
411.714669	2755.484610
412.095139	2722.885989
412.475547	2713.937941
412.855894	2702.340766
413.236180	2693.070084
413.616405	2668.713749
413.996568	2660.985661
414.376670	2645.894967
414.756711	2633.047586
415.136691	2624.086935
415.516609	2616.507560
415.896466	2606.147989
416.276262	2595.780856
416.655997	2589.207192
417.035670	2582.878023
417.415283	2578.131777
417.794834	2569.730694
418.174324	2560.238201
418.553753	2550.566747
418.933121	2544.595501
419.312428	2539.400592
419.691674	2527.959693
420.070859	2525.590351
420.449983	2518.686490
420.829045	2518.023579
421.208047	2507.676610
421.586988	2506.862464
421.965867	2503.946157
422.344686	2502.819459
422.723444	2500.523213
423.102141	2491.807058
423.480777	2495.504744
423.859352	2486.274392
424.237866	2490.148518
424.616319	2487.068373
424.994712	2487.252376
425.373044	2483.952940
425.751314	2482.259113
426.129524	2478.571509
426.507673	2480.141828
426.885762	2477.641416
427.263789	2480.948413
427.641756	2479.655357
428.019662	2481.475213
428.397508	2479.209215
428.775292	2479.809112
429.153016	2479.985552
429.530679	2480.139307
429.908282	2478.687455
430.285824	2477.038998
430.663305	2474.246199
431.040726	2475.178812
431.418086	2475.377938
431.795385	2479.108392
432.172624	2474.326857
432.549802	2474.682258
432.926920	2474.599079
433.303977	2472.791826
433.680974	2473.996662
434.057910	2475.982876
434.434786	2475.448514
434.811601	2473.981538
435.188355	2473.643781
435.565050	2475.597228
435.941683	2471.912144
436.318257	2476.176961
436.694770	2476.124028
437.071222	2475.642598
437.447614	2476.116467
437.823946	2476.862558
438.200218	2474.145376
438.576429	2475.551857
438.952580	2476.794502
439.328670	2474.067238
439.704700	2473.358956
440.080670	2476.812146
440.456580	2476.623103
440.832429	2476.124028
441.208218	2473.439614
441.583947	2475.370376
441.959616	2477.031436
442.335224	2474.951960
442.710773	2476.396251
443.086261	2476.759214
443.461689	2476.008082
443.837057	2476.978504
444.212365	2480.174596
444.587612	2474.730149
444.962800	2473.308544
445.337927	2475.020016
445.712995	2473.492546
446.088002	2479.761221
446.462949	2478.715182
446.837837	2479.345326
447.212664	2479.569657
447.587431	2480.603094
447.962139	2481.588639
448.336786	2486.934783
448.711374	2483.181644
449.085901	2483.486634
449.460369	2481.407158
449.834776	2480.925727
450.209124	2481.881026
450.583412	2481.513022
450.957640	2482.402786
451.331808	2484.018475
451.705917	2480.724081
452.079965	2484.076449
452.453954	2481.202991
452.827883	2481.611324
453.201752	2481.573516
453.575562	2484.656181
453.949311	2481.747436
454.323001	2484.759525
454.696632	2482.617035
455.070202	2488.434526
455.443713	2485.092241
455.817164	2484.676346
456.190556	2485.858497
456.563888	2488.968888
456.937160	2486.556696
457.310373	2485.674494
457.683526	2485.593836
458.056619	2484.454535
458.429653	2484.842704
458.802628	2487.396048
459.175542	2488.167345
459.548398	2486.438229
459.921194	2485.810606
460.293930	2488.343785
460.666607	2488.855462
461.039224	2492.437202
461.411782	2493.589106
461.784280	2491.892758
462.156719	2493.510968
462.529099	2491.091214
462.901419	2491.517192
463.273680	2486.859166
463.645882	2486.231542
464.018024	2487.509474
464.390106	2486.110554
464.762130	2490.486276
465.134094	2496.192862
465.505999	2498.433655
465.877845	2501.438183
466.249631	2506.365910
466.621358	2504.384737
466.993026	2505.455982
467.364634	2503.348780
467.736184	2503.540344
468.107674	2499.618326
468.479105	2498.703357
468.850477	2497.380054
469.221790	2497.309478
469.593043	2498.519354
469.964238	2495.383757
470.335373	2497.412821
470.706449	2496.386946
471.077467	2497.380054
471.448425	2504.488081
471.819324	2503.240395
472.190164	2502.837103
472.560945	2501.675117
472.931667	2498.058089
473.302330	2497.622029
473.672934	2497.969869
474.043479	2501.236536
474.413965	2496.626401
474.784393	2496.386946
475.154761	2498.239570
475.525070	2497.884169
475.895321	2498.468943
476.265513	2495.587923
476.635645	2498.226968
477.005719	2496.702018
477.375734	2497.564056
477.745691	2497.299395
478.115588	2501.990189
478.485427	2500.127482
478.855207	2507.031343
479.224928	2505.937412
479.594591	2507.457320
479.964194	2507.674090
480.333739	2509.493946
480.703226	2508.624347
481.072653	2510.701303
481.442022	2509.957732
481.811333	2507.545540
482.180584	2503.983965
482.549777	2510.305572
482.918912	2498.985661
483.287988	2507.719460
483.657005	2507.911024
484.025964	2506.628050
484.394864	2508.311796
484.763706	2508.236178
485.132489	2508.455469
485.501213	2506.451610
485.869879	2506.023112
486.238487	2507.328771
486.607036	2505.093019
486.975527	2508.798267
487.343959	2506.431445
487.712333	2509.899759
488.080648	2506.222238
488.448905	2506.998575
488.817104	2506.575118
489.185244	2509.292300
489.553326	2512.087620
489.921350	2514.003258
490.289315	2516.344874
490.657222	2515.898732
491.025070	2518.323527
491.392861	2518.000893
491.760593	2514.638444
492.128267	2512.354801
492.495883	2510.597959
492.863440	2512.669873
493.230939	2509.463699
493.598380	2510.907990
493.965763	2506.542351
494.333088	2508.768020
494.700354	2506.217196
495.067563	2510.451766
495.434713	2508.478154
495.801805	2509.448576
496.168839	2507.641322
496.535815	2509.211642
496.902733	2507.341374
497.269593	2507.550582
497.636395	2510.174502
498.003139	2508.284069
498.369825	2508.735253
498.736453	2505.942453
499.103023	2507.555623
499.469535	2508.006806
499.835989	2508.836076
500.202385	2505.977742
500.568723	2506.570077
500.935003	2504.523369
501.301226	2503.631084
501.667390	2510.376148
502.033497	2508.021929
502.399546	2508.362207
502.765537	2510.048473
503.131470	2508.974708
503.497345	2509.534276
503.863163	2505.367762
504.228923	2505.944974
504.594625	2508.349604
504.960269	2507.520335
505.325856	2507.333812
505.691385	2507.399347
506.056856	2508.261384
506.422270	2507.772392
506.787625	2508.208452
507.152924	2508.692403
507.518164	2507.356497
507.883347	2505.927330
508.248472	2507.112001
508.613540	2508.417660
508.978550	2507.931189
509.343503	2507.563184
509.708398	2507.278359
510.073236	2507.747187
510.438016	2506.827176
510.802738	2504.364572
511.167403	2509.441014
511.532010	2506.897752
511.896561	2510.033350
512.261053	2507.353977
512.625488	2508.407578
512.989866	2506.048318
513.354186	2508.127794
513.718449	2505.319871
514.082655	2510.499657
514.446803	2508.689882
514.810894	2511.147445
515.174927	2508.097547
515.538904	2508.218534
515.902822	2505.345077
516.266684	2506.045797
516.630488	2508.636950
516.994235	2510.592918
517.357925	2509.226765
517.721558	2512.077538
518.085133	2508.521004
518.448651	2507.953874
518.812112	2504.087309
519.175516	2507.096878
519.538863	2506.088647
519.902152	2508.233658
520.265385	2509.113339
520.628560	2509.347753
520.991678	2507.805160
521.354739	2508.082423
521.717743	2509.907321
522.080690	2509.017557
522.443580	2509.771210
522.806413	2508.609224
523.169189	2507.598472
523.531908	2506.691065
523.894569	2510.721467
524.257174	2509.481343
524.619722	2509.965294
524.982213	2507.938750
525.344647	2505.745848
525.707025	2508.500839
526.069345	2508.730212
526.431608	2507.880777
526.793815	2508.483195
527.155964	2509.317506
527.518057	2509.335150
527.880093	2510.043432
528.242072	2510.106447
528.603995	2509.650222
528.965860	2508.155520
529.327669	2507.492608
529.689421	2508.432783
530.051117	2509.549399
530.412755	2509.743483
530.774337	2509.675428
531.135862	2509.095695
531.497331	2508.614265
531.858743	2509.879595
532.220098	2511.248268
532.581396	2510.224914
532.942638	2509.577125
533.303824	2507.696775
533.664953	2510.638288
534.026025	2505.897083
534.387040	2507.200221
534.747999	2506.857423
535.108902	2508.778103
535.469748	2506.060921
535.830537	2510.184584
536.191270	2507.517814
536.551947	2505.950015
536.912567	2500.858450
537.273131	2503.333656
537.633638	2503.580673
537.994089	2506.620489
538.354483	2507.593431
538.714821	2507.648884
539.075103	2509.093175
539.435328	2506.265087
539.795497	2507.916065
540.155609	2505.902124
540.515665	2507.956394
540.875665	2508.992352
541.235609	2507.296003
541.595496	2507.379182
541.955328	2510.766838
542.315102	2507.290962
542.674821	2506.900273
543.034483	2509.045284
543.394090	2508.049656
543.753640	2506.784326
544.113134	2505.297186
544.472571	2506.164264
544.831953	2509.667866
545.191278	2505.529079
545.550548	2506.864985
545.909761	2505.483708
546.268918	2506.658297
546.628019	2507.464882
546.987064	2508.042094
547.346053	2505.733246
547.704986	2507.807680
548.063863	2507.711898
548.422684	2506.307937
548.781449	2505.521517
549.140158	2506.640653
549.498811	2507.376662
549.857408	2506.759120
550.215949	2506.774244
550.574434	2504.667042
550.932864	2506.388596
551.291237	2512.997548
551.649555	2507.575787
552.007817	2508.778103
552.366022	2505.140910
552.724173	2507.802639
553.082267	2509.914883
553.440305	2507.721981
553.798288	2509.002434
554.156215	2505.438338
554.514086	2503.336177
554.871902	2501.402894
555.229661	2506.302896
555.587365	2500.992040
555.945014	2506.222237
556.302606	2505.574449
556.660143	2506.489419
557.017625	2506.146620
557.375050	2506.819614
557.732421	2507.548061
558.089735	2505.637464
558.446994	2505.864316
558.804197	2508.445386
559.161345	2508.783144
559.518437	2506.703668
559.875474	2504.485560
560.232455	2507.759789
560.589381	2506.829697
560.946251	2508.304234
561.303065	2508.775582
561.659825	2508.780623
562.016528	2506.108812
562.373177	2508.125273
562.729770	2504.881291
563.086307	2510.139214
563.442789	2504.853564
563.799216	2507.711898
564.155587	2509.206601
564.511904	2510.169461
564.868164	2507.076713
565.224370	2506.078565
565.580520	2504.515807
565.936615	2508.780623
566.292654	2507.064110
566.648638	2509.037722
567.004567	2506.769203
567.360441	2507.638802
567.716260	2506.837258
568.072023	2508.115191
568.427732	2505.110663
568.783385	2507.598473
569.138982	2507.749707
569.494525	2507.303565
569.850013	2509.524193
570.205445	2508.609224
570.560823	2506.504542
570.916145	2508.969666
571.271412	2506.522186
571.626625	2506.474295
571.981782	2504.667042
572.336884	2508.127794
572.691931	2505.897083
573.046923	2504.145282
573.401860	2505.254336
573.756743	2508.478154
574.111570	2507.230468
574.466342	2507.081754
574.821059	2507.323730
575.175722	2507.217865
575.530330	2505.934892
575.884882	2506.749038
576.239380	2505.652587
576.593823	2508.059738
576.948211	2506.539830
577.302544	2505.957577
577.656823	2505.478667
578.011047	2504.019253
578.365216	2505.017402
578.719330	2506.733915
579.073389	2503.351300
579.427394	2506.239882
579.781344	2504.634274
580.135239	2504.815756
580.489080	2505.929851
580.842866	2503.086640
581.196597	2507.706857
581.550273	2507.943792
581.903895	2505.100581
582.257463	2507.366579
582.610975	2505.498832
582.964434	2504.477998
583.317837	2505.395488
583.671186	2506.401198
584.024481	2504.604027
584.377721	2506.680983
584.730906	2501.831393
585.084037	2503.656290
585.437113	2505.055210
585.790135	2504.636795
586.143103	2504.281393
586.496016	2503.023625
586.848874	2504.911538
587.201679	2506.025632
587.554428	2503.928513
587.907124	2504.256187
588.259765	2502.728718
588.612352	2504.077227
588.964884	2502.915241
589.317362	2503.908348
589.669786	2506.287773
590.022155	2502.280055
590.374470	2501.445744
590.726731	2503.873060
591.078937	2497.659838
591.431090	2504.092350
591.783188	2501.849037
592.135232	2503.149654
592.487222	2503.283245
592.839157	2506.189470
593.191038	2505.203924
593.542866	2503.994047
593.894639	2503.215189
594.246358	2502.388440
594.598022	2502.738800
594.949633	2502.948008
595.301190	2503.610920
595.652692	2505.035046
596.004141	2502.176712
596.355535	2502.224602
596.706876	2504.041938
597.058162	2500.997082
597.409395	2502.522031
597.760573	2504.702330
598.111698	2503.893224
598.462768	2500.795435
598.813785	2503.938595
599.164748	2503.316012
599.515657	2501.448265
599.866511	2502.378358
600.217312	2503.484891
600.568060	2500.256032
600.918753	2505.642505
601.269392	2503.371465
601.619978	2500.820641
601.970510	2502.910199
602.320988	2500.992040
602.671412	2501.591938
603.021783	2502.774088
603.372100	2500.666886
603.722363	2503.951198
604.072572	2499.918275
604.422728	2501.818790
604.772830	2499.666217
605.122878	2504.112515
605.472872	2503.174860
605.822813	2504.266270
606.172701	2502.895076
606.522534	2503.767196
606.872314	2502.532113
607.222041	2500.203100
607.571714	2500.424911
607.921333	2498.670589
608.270899	2498.262256
608.620411	2499.729231
608.969870	2499.104128
609.319276	2500.805518
609.668627	2503.184942
610.017926	2503.411794
610.367171	2505.040087
610.716362	2504.021774
611.065500	2503.716784
611.414585	2501.833913
611.763616	2501.952380
612.112594	2501.786022
612.461518	2504.757782
612.810389	2501.465909
613.159207	2503.875580
613.507971	2504.074706
613.856682	2503.479850
614.205340	2505.476147
614.553945	2501.687720
614.902496	2502.327946
615.250994	2504.556136
615.599439	2505.292145
615.947830	2501.924654
616.296169	2505.559326
616.644454	2501.102946
616.992686	2502.083450
617.340864	2504.815756
617.688990	2503.358862
618.037063	2503.295848
618.385082	2504.838441
618.733048	2504.573780
619.080961	2503.810045
619.428821	2503.752072
619.776628	2504.379696
620.124382	2502.232164
620.472083	2504.266270
620.819731	2502.320384
621.167326	2501.090343
621.514868	2502.920282
621.862357	2502.975734
622.209793	2502.456496
622.557176	2502.668224
622.904506	2502.148985
623.251783	2500.452637
623.599007	2499.651093
623.946179	2501.289468
624.293297	2501.193687
624.640363	2501.347442
624.987376	2498.761330
625.334336	2497.743017
625.681243	2499.073881
626.028097	2498.393326
626.374899	2503.648728
626.721647	2499.600682
627.068343	2501.281907
627.414987	2499.789725
627.761577	2500.477843
628.108115	2501.823831
628.454600	2498.282420
628.801032	2499.169663
629.147412	2499.661176
629.493739	2498.824344
629.840014	2500.266114
630.186236	2499.318377
630.532405	2501.163440
630.878521	2501.291989
631.224585	2500.238388
631.570597	2499.144458
631.916556	2501.541526
632.262462	2498.836947
632.608316	2498.993223
632.954117	2499.073881
633.299866	2499.641011
633.645562	2499.812410
633.991206	2499.663696
634.336797	2498.463902
634.682336	2498.148830
635.027823	2499.930877
635.373257	2499.061278
635.718639	2498.761330
636.063968	2498.053048
636.409245	2497.047338
636.754470	2496.344097
637.099642	2495.096411
637.444762	2495.010711
637.789829	2498.264776
638.134845	2498.380723
638.479808	2497.193531
638.824719	2497.838799
639.169577	2497.238901
639.514383	2495.797131
639.859137	2496.540702
640.203839	2496.696977
640.548489	2494.975423
640.893086	2494.824189
641.237632	2492.696822
641.582125	2492.573313
641.926566	2494.814106
642.270955	2494.428458
642.615292	2492.230515
642.959576	2492.757316
643.303809	2488.331183
643.647990	2495.519868
643.992118	2497.188490
644.336195	2494.148674
