Dividing Wavelength (nm)	Counts (n)	Blue Motor Position (mm): 0.000000	Red Motor Position (mm): 26.000000	
326.493990	2049.287012
326.888308	2049.287012
327.282561	2049.287012
327.676750	2026.473270
328.070874	2029.941584
328.464933	2031.549712
328.858929	2039.292924
329.252859	2053.128371
329.646726	2064.576831
330.040528	2083.055181
330.434265	2098.526482
330.827938	2120.142950
331.221547	2139.596762
331.615091	2157.739875
332.008571	2181.876920
332.401986	2201.522296
332.795338	2219.877137
333.188625	2241.944788
333.581847	2261.081008
333.975006	2276.582556
334.368100	2293.276337
334.761129	2310.259985
335.154095	2324.387818
335.546996	2345.553103
335.939833	2363.267717
336.332606	2376.503267
336.725315	2384.523742
337.117960	2396.289796
337.510540	2407.221538
337.903056	2416.792168
338.295508	2424.888261
338.687896	2430.521751
339.080220	2436.220775
339.472480	2440.455344
339.864676	2444.515994
340.256807	2447.429781
340.648875	2449.320213
341.040879	2449.395831
341.432818	2453.126285
341.824694	2451.888681
342.216506	2451.419854
342.608253	2455.659464
342.999937	2451.651747
343.391557	2451.888681
343.783113	2449.002621
344.174605	2450.051181
344.566033	2448.468258
344.957397	2448.014555
345.348697	2446.918104
345.739934	2441.176229
346.131106	2442.567588
346.522215	2440.725046
346.913260	2438.204469
347.304241	2435.371341
347.695159	2432.780188
348.086012	2436.208172
348.476802	2429.039652
348.867528	2427.449167
349.258191	2422.765936
349.648789	2423.413724
350.039324	2422.108065
350.429796	2424.968920
350.820203	2425.286513
351.210548	2424.948755
351.600828	2421.709814
351.991045	2422.768456
352.381198	2423.270051
352.771288	2423.441450
353.161314	2422.080339
353.551276	2423.539753
353.941175	2422.861717
354.331010	2422.922211
354.720782	2421.863569
355.110490	2424.051430
355.500135	2423.653179
355.889717	2424.439599
356.279235	2425.067222
356.668689	2424.432037
357.058080	2425.994795
357.447408	2422.871800
357.836672	2427.101328
358.225873	2424.724424
358.615010	2425.659558
359.004084	2426.352717
359.393095	2426.975299
359.782043	2427.827254
360.170927	2427.000505
360.559748	2429.016966
360.948505	2430.088212
361.337199	2431.678696
361.725830	2429.793304
362.114398	2432.949066
362.502903	2431.358582
362.891344	2433.622060
363.279722	2432.354210
363.668037	2432.951587
364.056289	2434.418563
364.444478	2434.947884
364.832603	2435.565425
365.220665	2438.786722
365.608665	2434.698347
365.996601	2436.992072
366.384474	2434.668100
366.772284	2435.704057
367.160031	2438.239757
367.547715	2438.338060
367.935336	2436.296392
368.322893	2436.762699
368.710388	2435.147009
369.097820	2434.418563
369.485189	2435.257915
369.872495	2441.405602
370.259738	2441.677824
370.646918	2442.749069
371.034035	2442.481888
371.421090	2443.530448
371.808081	2446.895418
372.195010	2448.221242
372.581875	2445.050356
372.968678	2448.067487
373.355418	2447.084462
373.742096	2451.359360
374.128710	2453.607715
374.515262	2455.188117
374.901751	2455.909002
375.288177	2463.952163
375.674540	2466.578604
376.060841	2467.680096
376.447079	2471.957515
376.833254	2479.057980
377.219367	2481.916314
377.605417	2488.704228
377.991404	2490.776142
378.377329	2502.673265
378.763191	2506.164264
379.148991	2516.266737
379.534727	2525.575227
379.920402	2534.467823
380.306013	2542.997455
380.691563	2556.507747
381.077049	2567.341187
381.462474	2577.962898
381.847835	2590.132243
382.233134	2604.796960
382.618371	2616.424381
383.003545	2632.523306
383.388657	2648.539052
383.773706	2665.822648
384.158693	2681.039371
384.543618	2695.832637
384.928480	2710.275542
385.313280	2734.621795
385.698017	2753.982346
386.082692	2774.595624
386.467305	2791.758232
386.851856	2814.771100
387.236344	2843.152796
387.620770	2860.262472
388.005133	2879.643188
388.389435	2914.984197
388.773674	2930.016918
389.157851	2962.222329
389.541965	2984.307624
389.926018	3000.580469
390.310008	3032.228833
390.693936	3057.248079
391.077802	3085.763366
391.461606	3118.992132
391.845348	3134.654997
392.229027	3163.233298
392.612645	3206.012529
392.996200	3233.312898
393.379694	3272.984258
393.763125	3315.662667
394.146494	3338.332735
394.529801	3377.749517
394.913047	3421.189140
395.296230	3427.054523
395.679351	3452.673666
396.062410	3501.575379
396.445408	3479.830362
396.828343	3520.348636
397.211217	3554.870458
397.594028	3526.584543
397.976778	3577.376689
398.359466	3608.737707
398.742092	3621.721199
399.124656	3636.295175
399.507158	3694.417158
399.889598	3699.531408
400.271977	3766.210750
400.654294	3754.981580
401.036549	3813.153975
401.418742	3811.276145
401.800874	3882.056466
402.182944	3908.830034
402.564952	3995.343796
402.946898	3989.579236
403.328783	3984.845593
403.710606	4033.258314
404.092367	4104.822534
404.474067	4169.371988
404.855705	4152.005213
405.237282	4126.333137
405.618797	4220.166654
406.000250	4296.063746
406.381642	4384.646901
406.762972	4382.958115
407.144240	4352.451572
407.525447	4416.436417
407.906593	4433.483079
408.287677	4518.073641
408.668700	4540.244635
409.049661	4582.136624
409.430560	4618.659783
409.811399	4597.428964
410.192176	4654.898118
410.572891	4729.353440
410.953545	4844.014484
411.334138	4736.315273
411.714669	4845.531871
412.095139	4762.433491
412.475547	4872.706211
412.855894	4881.591245
413.236180	4977.647911
413.616405	4903.444647
413.996568	5009.258466
414.376670	5011.085884
414.756711	5005.931304
415.136691	5077.770267
415.516609	5162.501981
415.896466	5199.330130
416.276262	5275.358292
416.655997	5387.234099
417.035670	5484.051979
417.415283	5624.904338
417.794834	5696.024937
418.174324	5656.666128
418.553753	5661.626623
418.933121	5827.548640
419.312428	5840.239745
419.691674	5761.557416
420.070859	5992.207848
420.449983	5867.156986
420.829045	6065.135701
421.208047	5986.143340
421.586988	6148.934801
421.965867	6221.839968
422.344686	6298.362163
422.723444	6470.341126
423.102141	6086.457261
423.480777	6476.559389
423.859352	6289.252798
424.237866	6658.497152
424.616319	6649.629763
424.994712	6818.994888
425.373044	6734.157310
425.751314	7049.405866
426.129524	6767.446569
426.507673	7029.662187
426.885762	7077.843014
427.263789	7121.189376
427.641756	7198.344235
428.019662	7285.253728
428.397508	7327.075140
428.775292	7306.454300
429.153016	7480.502657
429.530679	7406.246461
429.908282	7453.585416
430.285824	7397.469812
430.663305	7683.217536
431.040726	7564.662200
431.418086	7569.279897
431.795385	7702.068931
432.172624	7893.801655
432.549802	7775.561392
432.926920	7905.620641
433.303977	7847.395314
433.680974	7889.705718
434.057910	8092.637366
434.434786	8142.927917
434.811601	8097.285310
435.188355	8433.527751
435.565050	8326.297367
435.941683	8334.529572
436.318257	8671.513062
436.694770	8620.529353
437.071222	8855.061474
437.447614	8623.468345
437.823946	8589.264117
438.200218	8745.570133
438.576429	8617.141697
438.952580	8789.619735
439.328670	8793.158625
439.704700	8865.017752
440.080670	8757.696628
440.456580	9027.257207
440.832429	8999.344338
441.208218	8739.828258
441.583947	8848.538221
441.959616	8971.597827
442.335224	9004.161160
442.710773	9079.334847
443.086261	9256.818750
443.461689	8965.649266
443.837057	9136.967838
444.212365	9351.731074
444.587612	9325.506992
444.962800	9214.306700
445.337927	9342.536009
445.712995	8879.445535
446.088002	9542.465650
446.462949	9593.126726
446.837837	9567.142098
447.212664	9578.837575
447.587431	10383.375482
447.962139	11364.971315
448.336786	12272.802464
448.711374	12055.377499
449.085901	10855.832421
449.460369	10768.567527
449.834776	10520.807418
450.209124	11401.441543
450.583412	11197.194153
450.957640	11480.101187
451.331808	11065.415871
451.705917	10481.105811
452.079965	10347.308547
452.453954	10510.223516
452.827883	10425.685887
453.201752	10367.463080
453.575562	10342.390902
453.949311	10635.907043
454.323001	10654.705506
454.696632	10537.352485
455.070202	11046.824096
455.443713	11055.068903
455.817164	11164.409009
456.190556	11404.816595
456.563888	11236.240411
456.937160	11430.460945
457.310373	10913.979610
457.683526	10871.596109
458.056619	10829.293266
458.429653	10826.941568
458.802628	10891.843903
459.175542	10874.472087
459.548398	11267.228383
459.921194	11668.962974
460.293930	11831.870382
460.666607	12472.369142
461.039224	13074.729054
461.411782	13291.551601
461.784280	12929.609358
462.156719	12795.849902
462.529099	12636.365439
462.901419	12018.317457
463.273680	11617.926333
463.645882	11685.772702
464.018024	11494.549134
464.390106	11671.924652
464.762130	12366.068852
465.134094	13397.088157
465.505999	14925.878555
465.877845	16456.934951
466.249631	17263.144000
466.621358	16807.632901
466.993026	16089.223107
467.364634	15404.400001
467.736184	14685.125650
468.107674	14109.009985
468.479105	13862.278272
468.850477	13548.158935
469.221790	13120.646403
469.593043	12541.306921
469.964238	12158.368272
470.335373	12047.115048
470.706449	12344.412055
471.077467	12724.600754
471.448425	14068.602617
471.819324	15042.200659
472.190164	14859.529408
472.560945	13710.852093
472.931667	12625.476546
473.302330	12271.925304
473.672934	11828.170175
474.043479	11906.781928
474.413965	11656.039977
474.784393	11425.056828
475.154761	11630.279680
475.525070	11569.644682
475.895321	11342.419713
476.265513	11460.012189
476.635645	11613.802669
477.005719	11512.896413
477.375734	11535.667305
477.745691	11684.741786
478.115588	11821.319247
478.485427	12196.323119
478.855207	12851.526926
479.224928	13494.266480
479.594591	13940.373307
479.964194	13625.830513
480.333739	13632.389054
480.703226	13531.268549
481.072653	13509.833563
481.442022	13530.351059
481.811333	13503.877439
482.180584	13154.868276
482.549777	12864.109646
482.918912	12577.590626
483.287988	12366.162113
483.657005	12137.933955
484.025964	11836.833397
484.394864	11716.803524
484.763706	11522.910665
485.132489	11175.713797
485.501213	11022.621516
485.869879	10907.327807
486.238487	10725.770652
486.607036	10643.657817
486.975527	10384.681141
487.343959	10317.996758
487.712333	10257.560885
488.080648	10083.303320
488.448905	10037.189365
488.817104	9846.482515
489.185244	9893.607222
489.553326	9964.495927
489.921350	10262.102965
490.289315	10700.350633
490.657222	10746.653631
491.025070	10704.864987
491.392861	10462.640065
491.760593	10104.667730
492.128267	9703.943890
492.495883	9314.668511
492.863440	8948.721071
493.230939	8587.834949
493.598380	8314.375038
493.965763	8121.795400
494.333088	7885.902167
494.700354	7695.729680
495.067563	7541.233438
495.434713	7375.036678
495.801805	7275.730988
496.168839	7117.360619
496.535815	6952.608150
496.902733	6838.725964
497.269593	6683.579413
497.636395	6573.352064
498.003139	6481.429144
498.369825	6322.713456
498.736453	6247.862404
499.103023	6108.424089
499.469535	6000.994580
499.835989	5894.076748
500.202385	5758.973825
500.568723	5647.206403
500.935003	5564.954937
501.301226	5447.463284
501.667390	5406.176234
502.033497	5325.293442
502.399546	5203.355492
502.765537	5064.630500
503.131470	4997.434439
503.497345	4940.285399
503.863163	4761.435343
504.228923	4725.640630
504.594625	4666.016383
504.960269	4547.874422
505.325856	4497.788038
505.691385	4398.835229
506.056856	4338.210313
506.422270	4287.632416
506.787625	4185.586859
507.152924	4135.661792
507.518164	4074.631063
507.883347	3988.175275
508.248472	3930.847273
508.613540	3894.624062
508.978550	3843.526927
509.343503	3778.377575
509.708398	3733.652458
510.073236	3696.879762
510.438016	3655.411230
510.802738	3591.189451
511.167403	3557.222156
511.532010	3521.636651
511.896561	3494.174965
512.261053	3467.507262
512.625488	3424.279367
512.989866	3381.497615
513.354186	3346.678366
513.718449	3308.902479
514.082655	3295.036786
514.446803	3259.761312
514.810894	3241.464444
515.174927	3214.491750
515.538904	3186.485620
515.902822	3173.446675
516.266684	3146.363076
516.630488	3127.962865
516.994235	3103.321705
517.357925	3095.066815
517.721558	3080.712130
518.085133	3064.991292
518.448651	3048.771379
518.812112	3031.497865
519.175516	3020.692152
519.538863	3009.354597
519.902152	2997.986795
520.265385	2993.923625
520.628560	2981.325782
520.991678	2967.996971
521.354739	2958.438943
521.717743	2950.879733
522.080690	2943.161727
522.443580	2942.791202
522.806413	2932.487083
523.169189	2923.407965
523.531908	2918.548293
523.894569	2909.494381
524.257174	2899.659089
524.619722	2897.619943
524.982213	2893.912174
525.344647	2883.456821
525.707025	2880.969012
526.069345	2876.318547
526.431608	2870.233874
526.793815	2866.019470
527.155964	2858.230887
527.518057	2853.555217
527.880093	2849.665967
528.242072	2845.741428
528.603995	2838.860253
528.965860	2834.373627
529.327669	2827.764674
529.689421	2824.838284
530.051117	2822.327789
530.412755	2819.960968
530.774337	2815.794454
531.135862	2808.560398
531.497331	2805.971766
531.858743	2801.122176
532.220098	2803.718370
532.581396	2795.544139
532.942638	2789.159518
533.303824	2787.072480
533.664953	2786.245731
534.026025	2779.525873
534.387040	2779.571243
534.747999	2776.735594
535.108902	2775.649225
535.469748	2764.173039
535.830537	2765.672782
536.191270	2761.783532
536.551947	2759.572986
536.912567	2754.856986
537.273131	2752.802716
537.633638	2747.224679
537.994089	2750.380442
538.354483	2746.319792
538.714821	2748.144690
539.075103	2748.426995
539.435328	2743.355594
539.795497	2739.844430
540.155609	2737.752351
540.515665	2736.043400
540.875665	2729.966289
541.235609	2733.621126
541.595496	2730.523337
541.955328	2732.754047
542.315102	2726.669375
542.674821	2725.885475
543.034483	2724.189127
543.394090	2720.335165
543.753640	2721.595453
544.113134	2724.413458
544.472571	2716.841645
544.831953	2721.116544
545.191278	2716.342571
545.550548	2710.232693
545.909761	2713.537169
546.268918	2713.688403
546.628019	2712.521376
546.987064	2708.362424
547.346053	2702.557536
547.704986	2706.219934
548.063863	2706.971066
548.422684	2702.605427
548.781449	2698.567462
549.140158	2698.693491
549.498811	2699.240457
549.857408	2692.465146
550.215949	2695.358768
550.574434	2696.951773
550.932864	2694.325332
551.291237	2696.067050
551.649555	2697.314736
552.007817	2693.168387
552.366022	2691.945907
552.724173	2691.482121
553.082267	2693.327183
553.440305	2692.172759
553.798288	2687.688652
554.156215	2689.740402
554.514086	2685.926769
554.871902	2682.183712
555.229661	2683.386028
555.587365	2679.383352
555.945014	2685.221008
556.302606	2681.372087
556.660143	2684.449711
557.017625	2682.967612
557.375050	2685.495751
557.732421	2681.906449
558.089735	2682.985256
558.446994	2682.453414
558.804197	2682.720595
559.161345	2683.983404
559.518437	2681.858558
559.875474	2678.423012
560.232455	2681.896367
560.589381	2679.605162
560.946251	2677.399657
561.303065	2678.899401
561.659825	2677.293793
562.016528	2678.322189
562.373177	2672.058555
562.729770	2680.310924
563.086307	2673.492763
563.442789	2675.839420
563.799216	2677.873526
564.155587	2677.419822
564.511904	2670.223575
564.868164	2673.354132
565.224370	2673.369255
565.580520	2672.171981
565.936615	2675.221879
566.292654	2673.427228
566.648638	2676.285562
567.004567	2672.028308
567.360441	2673.480160
567.716260	2670.765499
568.072023	2674.054852
568.427732	2674.412774
568.783385	2671.105777
569.138982	2672.706343
569.494525	2672.812207
569.850013	2670.702485
570.205445	2669.724501
570.560823	2669.742145
570.916145	2668.413801
571.271412	2668.479336
571.626625	2668.416321
571.981782	2668.091167
572.336884	2662.888696
572.691931	2666.450271
573.046923	2663.642349
573.401860	2664.942966
573.756743	2661.888027
574.111570	2665.512617
574.466342	2666.004129
574.821059	2665.845333
575.175722	2663.798624
575.530330	2664.481701
575.884882	2663.317194
576.239380	2661.189827
576.593823	2664.020435
576.948211	2663.949859
577.302544	2660.264776
577.656823	2659.339724
578.011047	2660.093376
578.365216	2660.352996
578.719330	2657.172028
579.073389	2658.376863
579.427394	2660.736123
579.781344	2657.303098
580.135239	2658.936432
580.489080	2657.222439
580.842866	2655.379897
581.196597	2656.705721
581.550273	2658.139929
581.903895	2655.347130
582.257463	2656.872079
582.610975	2656.874600
582.964434	2655.997439
583.317837	2653.088693
583.671186	2652.960144
584.024481	2653.570123
584.377721	2652.884526
584.730906	2655.531132
585.084037	2654.573313
585.437113	2650.989052
585.790135	2654.328817
586.143103	2650.676501
586.496016	2650.779845
586.848874	2651.407468
587.201679	2652.347643
587.554428	2651.606594
587.907124	2654.091883
588.259765	2648.944865
588.612352	2649.764052
588.964884	2648.140801
589.317362	2650.850421
589.669786	2649.547282
590.022155	2645.900008
590.374470	2647.205667
590.726731	2646.046201
591.078937	2641.002527
591.431090	2646.416726
591.783188	2643.881026
592.135232	2644.632157
592.487222	2645.249699
592.839157	2645.330357
593.191038	2644.422950
593.542866	2642.711478
593.894639	2640.793319
594.246358	2642.187198
594.598022	2643.089564
594.949633	2639.661580
595.301190	2640.339615
595.652692	2641.541930
596.004141	2642.159472
596.355535	2639.298617
596.706876	2635.205200
597.058162	2633.317288
597.409395	2638.988586
597.760573	2641.047897
598.111698	2636.644449
598.462768	2636.263842
598.813785	2637.332567
599.164748	2633.415590
599.515657	2635.109418
599.866511	2632.636732
600.217312	2635.769809
600.568060	2629.770836
600.918753	2636.228554
601.269392	2636.258801
601.619978	2635.399284
601.970510	2634.897689
602.320988	2633.362658
602.671412	2635.124541
603.021783	2633.229067
603.372100	2632.540950
603.722363	2633.672689
604.072572	2634.726290
604.422728	2633.251753
604.772830	2631.688995
605.122878	2633.173615
605.472872	2632.848460
605.822813	2634.214613
606.172701	2632.664458
606.522534	2632.863584
606.872314	2635.381640
607.222041	2631.573048
607.571714	2630.809314
607.921333	2627.061216
608.270899	2628.109776
608.620411	2629.624642
608.969870	2631.845271
609.319276	2633.450878
609.668627	2634.133955
610.017926	2634.847278
610.367171	2634.801908
610.716362	2634.769140
611.065500	2633.539098
611.414585	2631.799900
611.763616	2637.077988
612.112594	2635.747124
612.461518	2635.648821
612.810389	2635.676548
613.159207	2635.369037
613.507971	2633.922226
613.856682	2635.459778
614.205340	2635.248050
614.553945	2637.382978
614.902496	2636.142854
615.250994	2635.472381
615.599439	2637.100674
615.947830	2637.768627
616.296169	2639.780047
616.644454	2636.735190
616.992686	2638.678555
617.340864	2641.047897
617.688990	2638.068575
618.037063	2639.336425
618.385082	2638.418935
618.733048	2643.008906
619.080961	2637.267032
619.428821	2639.482619
619.776628	2639.860705
620.124382	2639.696868
620.472083	2639.885911
620.819731	2640.269039
621.167326	2636.410036
621.514868	2638.499594
621.862357	2636.231075
622.209793	2638.290386
622.557176	2636.843575
622.904506	2632.251084
623.251783	2633.347535
623.599007	2627.850156
623.946179	2630.310239
624.293297	2629.780918
624.640363	2625.551390
624.987376	2624.144908
625.334336	2622.093159
625.681243	2621.926801
626.028097	2620.621142
626.374899	2624.308746
626.721647	2621.190792
627.068343	2623.255145
627.414987	2624.457460
627.761577	2621.117695
628.108115	2621.984774
628.454600	2618.067797
628.801032	2617.150307
629.147412	2618.909670
629.493739	2618.627365
629.840014	2616.696603
630.186236	2616.074021
630.532405	2617.525873
630.878521	2617.238527
631.224585	2617.205760
631.570597	2615.365739
631.916556	2617.031840
632.262462	2614.690224
632.608316	2613.308948
632.954117	2615.285080
633.299866	2614.206273
633.645562	2615.965636
633.991206	2615.075872
634.336797	2607.708226
634.682336	2607.433483
635.027823	2609.954060
635.373257	2605.618668
635.718639	2606.155551
636.063968	2609.404574
636.409245	2606.246292
636.754470	2606.382403
637.099642	2602.536002
637.444762	2601.648759
637.789829	2600.290168
638.134845	2601.066506
638.479808	2602.266301
638.824719	2601.631115
639.169577	2600.622884
639.514383	2599.097935
639.859137	2598.402256
640.203839	2599.929726
640.548489	2596.554673
640.893086	2597.368820
641.237632	2598.296392
641.582125	2594.482759
641.926566	2595.574169
642.270955	2592.723396
642.615292	2590.603591
