Dividing Wavelength (nm)	Counts (n)	Blue Motor Position (mm): 0.000000	Red Motor Position (mm): 18.000000	
326.493990	2053.075439
326.888308	2053.075439
327.282561	2053.075439
327.676750	2028.777077
328.070874	2028.923271
328.464933	2036.888294
328.858929	2043.174613
329.252859	2053.524102
329.646726	2066.016081
330.040528	2085.636252
330.434265	2100.217789
330.827938	2120.079935
331.221547	2144.690848
331.615091	2161.777839
332.008571	2181.813905
332.401986	2203.490867
332.795338	2219.798999
333.188625	2240.445045
333.581847	2261.764085
333.975006	2279.342588
334.368100	2297.904117
334.761129	2313.536735
335.154095	2331.319405
335.546996	2344.698627
335.939833	2358.294619
336.332606	2372.790457
336.725315	2382.673639
337.117960	2396.040258
337.510540	2404.166598
337.903056	2414.531211
338.295508	2419.668147
338.687896	2427.759198
339.080220	2430.287337
339.472480	2436.961825
339.864676	2440.137752
340.256807	2443.051539
340.648875	2447.339040
341.040879	2447.691921
341.432818	2450.598146
341.824694	2450.870368
342.216506	2450.764504
342.608253	2448.773248
342.999937	2449.814247
343.391557	2446.950871
343.783113	2442.088678
344.174605	2446.045984
344.566033	2443.782506
344.957397	2441.947526
345.348697	2437.770930
345.739934	2435.762030
346.131106	2439.137083
346.522215	2436.261104
346.913260	2432.991916
347.304241	2432.417225
347.695159	2427.539908
348.086012	2429.354724
348.476802	2424.056471
348.867528	2425.183169
349.258191	2421.435071
349.648789	2422.100503
350.039324	2418.997673
350.429796	2420.784762
350.820203	2420.053795
351.210548	2419.184196
351.600828	2419.126222
351.991045	2418.319638
352.381198	2419.476583
352.771288	2420.386511
353.161314	2420.305853
353.551276	2418.740574
353.941175	2417.583629
354.331010	2416.411561
354.720782	2417.603794
355.110490	2418.092786
355.500135	2419.993301
355.889717	2417.349216
356.279235	2418.559093
356.668689	2420.643610
357.058080	2421.475400
357.447408	2418.894329
357.836672	2420.928435
358.225873	2421.205698
358.615010	2421.422468
359.004084	2422.586975
359.393095	2420.716707
359.782043	2426.110741
360.170927	2424.895823
360.559748	2425.999836
360.948505	2425.954465
361.337199	2425.475556
361.725830	2423.912798
362.114398	2430.854467
362.502903	2427.975968
362.891344	2426.007397
363.279722	2428.719538
363.668037	2431.852615
364.056289	2428.986719
364.444478	2430.438572
364.832603	2432.434869
365.220665	2430.209199
365.608665	2432.938984
365.996601	2430.398243
366.384474	2430.872111
366.772284	2435.378902
367.160031	2435.273038
367.547715	2435.704057
367.935336	2435.159612
368.322893	2431.288006
368.710388	2428.883376
369.097820	2433.254056
369.485189	2430.526792
369.872495	2437.322267
370.259738	2436.046855
370.646918	2437.866712
371.034035	2439.711774
371.421090	2438.988369
371.808081	2439.477361
372.195010	2442.267639
372.581875	2441.677824
372.968678	2444.818463
373.355418	2444.200922
373.742096	2447.205449
374.128710	2448.115378
374.515262	2449.390790
374.901751	2452.745677
375.288177	2456.544187
375.674540	2461.202213
376.060841	2464.184056
376.447079	2468.227061
376.833254	2472.713688
377.219367	2477.989255
377.605417	2484.164669
377.991404	2489.462922
378.377329	2497.811072
378.763191	2505.292145
379.148991	2511.326406
379.534727	2519.820750
379.920402	2530.641587
380.306013	2537.774819
380.691563	2552.043805
381.077049	2561.342214
381.462474	2572.437793
381.847835	2585.423806
382.233134	2600.975765
382.618371	2609.472630
383.003545	2629.291926
383.388657	2641.065541
383.773706	2662.424910
384.158693	2676.131807
384.543618	2694.738706
384.928480	2708.261601
385.313280	2730.901423
385.698017	2751.761718
386.082692	2774.028494
386.467305	2790.583644
386.851856	2813.115081
387.236344	2840.342353
387.620770	2857.885568
388.005133	2874.526417
388.389435	2914.434711
388.773674	2923.725558
389.157851	2955.966257
389.541965	2984.080772
389.926018	2996.461846
390.310008	3030.855118
390.693936	3054.964437
391.077802	3084.402254
391.461606	3112.055504
391.845348	3135.958135
392.229027	3163.127433
392.612645	3205.052189
392.996200	3234.177456
393.379694	3270.924947
393.763125	3311.717964
394.146494	3339.545133
394.529801	3376.232130
394.913047	3420.654778
395.296230	3425.461518
395.679351	3448.615538
396.062410	3500.715862
396.445408	3479.515290
396.828343	3528.417003
397.211217	3554.888102
397.594028	3530.904812
397.976778	3578.939447
398.359466	3610.209724
398.742092	3618.578039
399.124656	3635.402890
399.507158	3693.010676
399.889598	3701.842778
400.271977	3767.745782
400.654294	3755.062239
401.036549	3815.465344
401.418742	3816.337464
401.800874	3884.776168
402.182944	3913.054521
402.564952	3993.407992
402.946898	3992.298939
403.328783	3984.898525
403.710606	4034.753016
404.092367	4103.395887
404.474067	4172.631094
404.855705	4152.239627
405.237282	4127.752222
405.618797	4220.585070
406.000250	4300.754540
406.381642	4380.571128
406.762972	4385.128332
407.144240	4349.152137
407.525447	4415.231582
407.906593	4428.245320
408.287677	4513.017363
408.668700	4534.656516
409.049661	4569.201023
409.430560	4605.139409
409.811399	4580.019339
410.192176	4635.174603
410.572891	4711.984144
410.953545	4815.259742
411.334138	4709.324935
411.714669	4810.256397
412.095139	4720.372624
412.475547	4821.319209
412.855894	4818.450793
413.236180	4908.553856
413.616405	4823.696113
413.996568	4917.799332
414.376670	4912.576697
414.756711	4889.813367
415.136691	4945.679433
415.516609	5016.681565
415.896466	5035.278381
416.276262	5090.295014
416.655997	5176.430689
417.035670	5246.913582
417.415283	5359.260736
417.794834	5398.077621
418.174324	5345.758006
418.553753	5318.316485
418.933121	5439.064722
419.312428	5424.679790
419.691674	5335.526984
420.070859	5498.452035
420.449983	5366.930852
420.829045	5503.054608
421.208047	5405.737654
421.586988	5503.503271
421.965867	5530.738105
422.344686	5560.349842
422.723444	5654.616899
423.102141	5310.127130
423.480777	5580.660651
423.859352	5395.723402
424.237866	5632.675277
424.616319	5583.400518
424.994712	5660.429349
425.373044	5548.840888
425.751314	5722.395212
426.129524	5473.536132
426.507673	5606.733499
426.885762	5585.371610
427.263789	5556.498401
427.641756	5557.078134
428.019662	5557.705757
428.397508	5524.628226
428.775292	5452.801866
429.153016	5494.746787
429.530679	5395.317589
429.908282	5363.926324
430.285824	5270.175986
430.663305	5361.715778
431.040726	5244.640021
431.418086	5175.409855
431.795385	5186.928892
432.172624	5220.376948
432.549802	5099.530408
432.926920	5098.217187
433.303977	5002.871324
433.680974	4960.843224
434.057910	4987.253829
434.434786	4944.552736
434.811601	4860.635168
435.188355	4933.212660
435.565050	4819.625382
435.941683	4759.958285
436.318257	4816.711595
436.694770	4734.878544
437.071222	4749.210545
437.447614	4605.356178
437.823946	4528.226525
438.200218	4512.321684
438.576429	4406.908637
438.952580	4394.341040
439.328670	4333.998429
439.704700	4288.300369
440.080670	4206.369016
440.456580	4212.483936
440.832429	4146.283503
441.208218	4022.762631
441.583947	3993.355060
441.959616	3964.776759
442.335224	3914.846651
442.710773	3876.775857
443.086261	3853.437835
443.461689	3750.391610
443.837057	3727.386304
444.212365	3717.992114
444.587612	3660.558248
444.962800	3587.774069
445.337927	3562.462435
445.712995	3444.418777
446.088002	3498.974144
446.462949	3464.512816
446.837837	3413.987852
447.212664	3369.459340
447.587431	3422.870365
447.962139	3490.010972
448.336786	3552.327196
448.711374	3483.233141
449.085901	3316.764159
449.460369	3260.620828
449.834776	3195.657999
450.209124	3229.857187
450.583412	3180.479085
450.957640	3170.011129
451.331808	3101.116200
451.705917	3026.232380
452.079965	2989.212667
452.453954	2967.293730
452.827883	2933.971703
453.201752	2905.799215
453.575562	2883.696276
453.949311	2873.538351
454.323001	2852.184023
454.696632	2823.958603
455.070202	2825.120589
455.443713	2804.935809
455.817164	2793.820064
456.190556	2786.903601
456.563888	2763.772267
456.937160	2752.550658
457.310373	2720.683004
457.683526	2707.785212
458.056619	2694.710980
458.429653	2679.703465
458.802628	2671.385561
459.175542	2661.262924
459.548398	2662.399704
459.921194	2661.842657
460.293930	2660.743685
460.666607	2661.925836
461.039224	2664.983296
461.411782	2663.728048
461.784280	2649.111223
462.156719	2638.061013
462.529099	2633.637401
462.901419	2618.052674
463.273680	2606.395006
463.645882	2601.484922
464.018024	2595.763212
464.390106	2593.038468
464.762130	2600.431321
465.134094	2615.897581
465.505999	2630.600106
465.877845	2643.676859
466.249631	2649.481747
466.621358	2643.288690
466.993026	2633.274438
467.364634	2626.148767
467.736184	2614.304576
468.107674	2602.793101
468.479105	2601.684047
468.850477	2595.750609
469.221790	2592.836822
469.593043	2584.251737
469.964238	2578.721592
470.335373	2575.154975
470.706449	2578.514904
471.077467	2580.279308
471.448425	2593.590475
471.819324	2604.562546
472.190164	2601.021136
472.560945	2590.308684
472.931667	2576.669842
473.302330	2574.613051
473.672934	2568.069633
474.043479	2569.599624
474.413965	2566.521999
474.784393	2563.643500
475.154761	2568.193142
475.525070	2564.810527
475.895321	2563.388922
476.265513	2565.420507
476.635645	2566.884962
477.005719	2563.474622
477.375734	2565.377657
477.745691	2568.624160
478.115588	2571.038873
478.485427	2573.002402
478.855207	2583.127560
479.224928	2587.790627
479.594591	2594.671802
479.964194	2591.485793
480.333739	2589.502099
480.703226	2592.272213
481.072653	2593.769436
481.442022	2592.925042
481.811333	2592.244487
482.180584	2585.736357
482.549777	2585.325503
482.918912	2581.388362
483.287988	2586.217787
483.657005	2585.338106
484.025964	2584.259299
484.394864	2582.855338
484.763706	2584.309711
485.132489	2579.361818
485.501213	2580.523804
485.869879	2581.564802
486.238487	2580.014647
486.607036	2580.836356
486.975527	2576.453072
487.343959	2578.862744
487.712333	2580.170923
488.080648	2582.966243
488.448905	2583.175451
488.817104	2578.943402
489.185244	2588.602253
489.553326	2586.852973
489.921350	2595.395208
490.289315	2604.403750
490.657222	2609.772579
491.025070	2606.778133
491.392861	2605.573297
491.760593	2605.094388
492.128267	2601.273193
492.495883	2598.971907
492.863440	2594.132399
493.230939	2590.157449
493.598380	2591.982347
493.965763	2587.677201
494.333088	2583.084710
494.700354	2583.631675
495.067563	2582.683938
495.434713	2580.866602
495.801805	2585.300297
496.168839	2585.133939
496.535815	2585.171748
496.902733	2580.725450
497.269593	2584.886923
497.636395	2582.777200
498.003139	2583.740060
498.369825	2583.301480
498.736453	2585.872468
499.103023	2583.414906
499.469535	2585.093610
499.835989	2584.503795
500.202385	2581.181675
500.568723	2578.552713
500.935003	2584.047571
501.301226	2578.600604
501.667390	2585.943044
502.033497	2589.996132
502.399546	2586.525298
502.765537	2585.484299
503.131470	2582.999011
503.497345	2586.590833
503.863163	2584.811305
504.228923	2584.468507
504.594625	2587.846080
504.960269	2585.927921
505.325856	2590.023858
505.691385	2585.375915
506.056856	2588.879517
506.422270	2587.657037
506.787625	2587.442788
507.152924	2588.821543
507.518164	2590.515371
507.883347	2586.038826
508.248472	2587.573858
508.613540	2589.522264
508.978550	2588.997984
509.343503	2590.028900
509.708398	2590.265834
510.073236	2592.720876
510.438016	2595.735486
510.802738	2593.466967
511.167403	2592.786411
511.532010	2595.029724
511.896561	2596.630291
512.261053	2597.633480
512.625488	2595.312029
512.989866	2594.467636
513.354186	2597.217585
513.718449	2594.268510
514.082655	2598.918974
514.446803	2595.979982
514.810894	2598.593820
515.174927	2599.246649
515.538904	2596.723552
515.902822	2599.796135
516.266684	2598.379571
516.630488	2600.398553
516.994235	2598.271186
517.357925	2600.030549
517.721558	2600.980806
518.085133	2597.356217
518.448651	2601.013574
518.812112	2598.593820
519.175516	2597.000815
519.538863	2593.517378
519.902152	2598.712287
520.265385	2600.078440
520.628560	2599.284458
520.991678	2596.718511
521.354739	2596.806731
521.717743	2599.551639
522.080690	2596.335383
522.443580	2597.638521
522.806413	2598.740013
523.169189	2597.252873
523.531908	2596.826896
523.894569	2596.605085
524.257174	2598.634149
524.619722	2598.069540
524.982213	2595.823706
525.344647	2597.033583
525.707025	2598.414859
526.069345	2595.798500
526.431608	2596.204313
526.793815	2595.344796
527.155964	2593.988726
527.518057	2595.674992
527.880093	2593.983685
528.242072	2592.133581
528.603995	2593.713983
528.965860	2589.829774
529.327669	2590.497727
529.689421	2590.926225
530.051117	2591.127871
530.412755	2591.722727
530.774337	2590.341451
531.135862	2587.493199
531.497331	2589.176945
531.858743	2587.042016
532.220098	2588.264496
532.581396	2590.772470
532.942638	2588.077973
533.303824	2585.847262
533.664953	2588.211564
534.026025	2584.564289
534.387040	2586.129567
534.747999	2584.584453
535.108902	2587.382294
535.469748	2585.471697
535.830537	2589.736513
536.191270	2585.491861
536.551947	2580.687642
536.912567	2580.425502
537.273131	2583.024216
537.633638	2582.149576
537.994089	2585.958168
538.354483	2582.371387
538.714821	2586.827767
539.075103	2584.685277
539.435328	2586.253075
539.795497	2584.889443
540.155609	2584.811305
540.515665	2586.578230
540.875665	2582.646130
541.235609	2583.175451
541.595496	2581.463979
541.955328	2583.304000
542.315102	2584.236614
542.674821	2582.434401
543.034483	2580.929617
543.394090	2582.666294
543.753640	2583.813157
544.113134	2584.362643
544.472571	2580.788465
544.831953	2584.503795
545.191278	2581.022878
545.550548	2580.143197
545.909761	2581.663105
546.268918	2584.274422
546.628019	2582.270564
546.987064	2579.097157
547.346053	2579.906263
547.704986	2582.888105
548.063863	2582.497416
548.422684	2581.451376
548.781449	2581.418609
549.140158	2580.438104
549.498811	2579.576067
549.857408	2578.613207
550.215949	2578.330902
550.574434	2581.481623
550.932864	2580.637230
551.291237	2582.399113
551.649555	2578.840059
552.007817	2579.250913
552.366022	2579.949112
552.724173	2582.452045
553.082267	2578.159503
553.440305	2584.292067
553.798288	2582.263002
554.156215	2579.936510
554.514086	2579.518094
554.871902	2577.355439
555.229661	2578.139338
555.587365	2575.170099
555.945014	2579.011458
556.302606	2576.616910
556.660143	2579.571026
557.017625	2579.510532
557.375050	2578.247723
557.732421	2580.826273
558.089735	2581.025399
558.446994	2580.914493
558.804197	2582.585636
559.161345	2579.649164
559.518437	2580.964905
559.875474	2577.078175
560.232455	2576.841241
560.589381	2580.296952
560.946251	2584.224011
561.303065	2584.153435
561.659825	2581.970615
562.016528	2578.845100
562.373177	2577.007599
562.729770	2580.438104
563.086307	2579.631520
563.442789	2579.651684
563.799216	2581.279977
564.155587	2579.291242
564.511904	2582.421798
564.868164	2582.603280
565.224370	2577.811663
565.580520	2581.010275
565.936615	2581.133784
566.292654	2577.567167
566.648638	2578.645974
567.004567	2580.808629
567.360441	2578.792168
567.716260	2579.712178
568.072023	2581.514391
568.427732	2578.436766
568.783385	2579.707137
569.138982	2577.519276
569.494525	2579.860892
569.850013	2580.843917
570.205445	2577.171437
570.560823	2576.992476
570.916145	2574.839903
571.271412	2577.942733
571.626625	2577.879719
571.981782	2578.073803
572.336884	2574.227403
572.691931	2571.696744
573.046923	2574.449214
573.401860	2570.983420
573.756743	2572.422670
574.111570	2577.408371
574.466342	2577.168916
574.821059	2575.734708
575.175722	2573.690520
575.530330	2573.647670
575.884882	2575.454924
576.239380	2571.928637
576.593823	2575.076837
576.948211	2576.747980
577.302544	2571.404357
577.656823	2570.325550
578.011047	2575.883422
578.365216	2570.277659
578.719330	2571.527865
579.073389	2572.899059
579.427394	2572.122721
579.781344	2569.372772
580.135239	2569.808832
580.489080	2573.556929
580.842866	2570.282700
581.196597	2570.043245
581.550273	2572.405026
581.903895	2572.515931
582.257463	2569.208934
582.610975	2568.740107
582.964434	2570.557443
583.317837	2567.840261
583.671186	2569.750858
584.024481	2569.534089
584.377721	2566.746331
584.730906	2570.557443
585.084037	2568.387226
585.437113	2567.699109
585.790135	2566.479149
586.143103	2565.949828
586.496016	2567.885631
586.848874	2564.818089
587.201679	2572.430232
587.554428	2565.375137
587.907124	2567.111814
588.259765	2567.542833
588.612352	2567.013512
588.964884	2566.595096
589.317362	2565.213820
589.669786	2566.597617
590.022155	2563.751885
590.374470	2563.114179
590.726731	2563.630897
591.078937	2556.638817
591.431090	2565.420507
591.783188	2564.707184
592.135232	2560.996895
592.487222	2561.380022
592.839157	2563.278017
593.191038	2562.121072
593.542866	2563.346072
593.894639	2559.290464
594.246358	2566.310271
594.598022	2558.831719
594.949633	2557.747871
595.301190	2558.304918
595.652692	2560.316339
596.004141	2559.290464
596.355535	2559.056050
596.706876	2556.195196
597.058162	2558.743499
597.409395	2557.460525
597.760573	2561.843808
598.111698	2558.020093
598.462768	2558.806513
598.813785	2556.737120
599.164748	2558.831719
599.515657	2559.577810
599.866511	2557.773077
600.217312	2556.265772
600.568060	2554.818961
600.918753	2556.979095
601.269392	2557.710062
601.619978	2555.562531
601.970510	2557.236194
602.320988	2553.785524
602.671412	2556.923642
603.021783	2559.217367
603.372100	2554.128323
603.722363	2556.953889
604.072572	2554.327448
604.422728	2558.751061
604.772830	2556.205278
605.122878	2555.534804
605.472872	2555.444064
605.822813	2556.507747
606.172701	2555.295350
606.522534	2556.863148
606.872314	2554.690411
607.222041	2556.162428
607.571714	2554.077911
607.921333	2551.242262
608.270899	2552.810061
608.620411	2551.637993
608.969870	2554.113199
609.319276	2554.057746
609.668627	2555.592778
610.017926	2555.489434
610.367171	2556.313663
610.716362	2556.999260
611.065500	2556.424568
611.414585	2558.456153
611.763616	2553.853580
612.112594	2555.300391
612.461518	2557.999929
612.810389	2557.127809
613.159207	2555.567572
613.507971	2555.915412
613.856682	2556.079249
614.205340	2557.132850
614.553945	2557.294167
614.902496	2556.076728
615.250994	2557.959599
615.599439	2555.572613
615.947830	2559.933211
616.296169	2557.296688
616.644454	2556.825340
616.992686	2558.025134
617.340864	2558.811554
617.688990	2557.377346
618.037063	2557.883982
618.385082	2557.397511
618.733048	2558.448591
619.080961	2557.382387
619.428821	2557.578992
619.776628	2559.383725
620.124382	2557.576472
620.472083	2559.043447
620.819731	2559.398849
621.167326	2558.962789
621.514868	2555.093703
621.862357	2557.364743
622.209793	2556.275854
622.557176	2555.933056
622.904506	2554.166131
623.251783	2555.086142
623.599007	2551.201933
623.946179	2551.834598
624.293297	2554.350133
624.640363	2552.510112
624.987376	2548.976263
625.334336	2549.329144
625.681243	2548.883002
626.028097	2545.714637
626.374899	2550.549103
626.721647	2548.341078
627.068343	2548.499874
627.414987	2549.762683
627.761577	2546.294369
628.108115	2549.858465
628.454600	2546.438042
628.801032	2546.180943
629.147412	2545.815460
629.493739	2546.269164
629.840014	2548.514998
630.186236	2548.845193
630.532405	2544.923176
630.878521	2544.708927
631.224585	2547.650440
631.570597	2543.829245
631.916556	2544.527445
632.262462	2544.928217
632.608316	2545.253371
632.954117	2544.471992
633.299866	2546.536345
633.645562	2545.384441
633.991206	2542.158103
634.336797	2543.209183
634.682336	2540.597866
635.027823	2543.095757
635.373257	2541.744728
635.718639	2542.387475
636.063968	2540.481919
636.409245	2540.557536
636.754470	2539.052752
637.099642	2538.420087
637.444762	2541.023843
637.789829	2536.315405
638.134845	2539.143493
638.479808	2533.809952
638.824719	2536.512010
639.169577	2538.714995
639.514383	2536.441434
639.859137	2536.436393
640.203839	2535.460930
640.548489	2533.900693
640.893086	2533.759540
641.237632	2533.109232
641.582125	2533.215096
641.926566	2533.310878
642.270955	2531.236443
642.615292	2531.697708
642.959576	2533.192411
643.303809	2528.340300
643.647990	2533.454551
643.992118	2532.315250
644.336195	2533.736855
