Dividing Wavelength (nm)	Counts (n)	Blue Motor Position (mm): 0.000000	Red Motor Position (mm): 10.500000	
326.493990	2055.679195
326.888308	2055.679195
327.282561	2055.679195
327.676750	2028.398991
328.070874	2032.336132
328.464933	2036.850485
328.858929	2045.964891
329.252859	2053.599719
329.646726	2067.016750
330.040528	2083.771025
330.434265	2100.600917
330.827938	2125.378188
331.221547	2144.605149
331.615091	2163.769095
332.008571	2185.168793
332.401986	2204.882225
332.795338	2225.498024
333.188625	2244.019223
333.581847	2261.454054
333.975006	2281.185130
334.368100	2297.571400
334.761129	2313.753504
335.154095	2329.618015
335.546996	2344.968329
335.939833	2360.522809
336.332606	2374.073431
336.725315	2385.337889
337.117960	2394.321225
337.510540	2404.592576
337.903056	2415.005079
338.295508	2420.908270
338.687896	2428.563263
339.080220	2432.263469
339.472480	2437.307144
339.864676	2438.640529
340.256807	2443.626230
340.648875	2445.940120
341.040879	2445.458690
341.432818	2446.698813
341.824694	2451.225770
342.216506	2447.994390
342.608253	2449.766356
342.999937	2447.147476
343.391557	2449.413475
343.783113	2446.560182
344.174605	2443.432146
344.566033	2444.528597
344.957397	2443.575819
345.348697	2439.721857
345.739934	2438.232196
346.131106	2437.453337
346.522215	2436.188008
346.913260	2432.371854
347.304241	2430.476380
347.695159	2430.398243
348.086012	2427.073602
348.476802	2427.179466
348.867528	2423.287695
349.258191	2420.129412
349.648789	2420.840215
350.039324	2414.684966
350.429796	2422.523960
350.820203	2420.504978
351.210548	2419.242169
351.600828	2415.604977
351.991045	2420.149577
352.381198	2416.340985
352.771288	2420.227715
353.161314	2418.105389
353.551276	2418.186047
353.941175	2417.097158
354.331010	2417.389545
354.720782	2417.356778
355.110490	2420.353743
355.500135	2417.019020
355.889717	2419.426171
356.279235	2419.474062
356.668689	2420.162180
357.058080	2418.019689
357.447408	2419.151428
357.836672	2418.178486
358.225873	2419.549679
358.615010	2421.727458
359.004084	2423.559917
359.393095	2421.571182
359.782043	2423.111255
360.170927	2424.439599
360.559748	2423.728796
360.948505	2423.794331
361.337199	2427.648293
361.725830	2428.099476
362.114398	2424.865576
362.502903	2429.231215
362.891344	2425.621749
363.279722	2428.064188
363.668037	2428.192738
364.056289	2427.701225
364.444478	2431.280444
364.832603	2430.247008
365.220665	2431.078798
365.608665	2433.415373
365.996601	2430.526792
366.384474	2428.704415
366.772284	2431.209868
367.160031	2434.221958
367.547715	2430.877152
367.935336	2431.484611
368.322893	2432.641556
368.710388	2429.516041
369.097820	2432.346648
369.485189	2428.850608
369.872495	2436.407298
370.259738	2433.304468
370.646918	2437.899479
371.034035	2434.766402
371.421090	2436.613985
371.808081	2439.694130
372.195010	2440.049532
372.581875	2441.196394
372.968678	2442.650767
373.355418	2440.848554
373.742096	2445.307455
374.128710	2446.938268
374.515262	2448.934565
374.901751	2450.933383
375.288177	2454.162242
375.674540	2458.787500
376.060841	2460.239353
376.447079	2465.348562
376.833254	2468.645477
377.219367	2477.918679
377.605417	2481.220635
377.991404	2484.688949
378.377329	2493.606750
378.763191	2499.076402
379.148991	2507.076713
379.534727	2518.835204
379.920402	2527.258973
380.306013	2534.087215
380.691563	2547.713454
381.077049	2557.987326
381.462474	2570.310426
381.847835	2582.116809
382.233134	2595.858994
382.618371	2607.448607
383.003545	2623.698766
383.388657	2637.652680
383.773706	2657.570279
384.158693	2671.894717
384.543618	2686.476255
384.928480	2704.100129
385.313280	2726.354302
385.698017	2744.777199
386.082692	2765.634973
386.467305	2779.301541
386.851856	2800.829789
387.236344	2831.525375
387.620770	2844.839062
388.005133	2863.720704
388.389435	2895.767319
388.773674	2904.859040
389.157851	2940.658794
389.541965	2962.597895
389.926018	2969.700881
390.310008	3001.248422
390.693936	3022.819519
391.077802	3043.914227
391.461606	3068.063875
391.845348	3079.159454
392.229027	3102.126951
392.612645	3132.106693
392.996200	3153.362718
393.379694	3180.771472
393.763125	3211.446893
394.146494	3222.754201
394.529801	3246.364445
394.913047	3272.621295
395.296230	3264.923453
395.679351	3277.715381
396.062410	3303.586582
396.445408	3276.389558
396.828343	3293.902526
397.211217	3307.843837
397.594028	3271.018208
397.976778	3293.466466
398.359466	3300.405614
398.742092	3291.944038
399.124656	3284.972122
399.507158	3309.525062
399.889598	3297.131385
400.271977	3321.475117
400.654294	3292.148204
401.036549	3311.695278
401.418742	3288.064870
401.800874	3304.741007
402.182944	3298.414359
402.564952	3328.532732
402.946898	3298.691622
403.328783	3269.132817
403.710606	3271.855040
404.092367	3282.764097
404.474067	3289.622586
404.855705	3252.554982
405.237282	3211.023436
405.618797	3225.645303
406.000250	3231.382136
406.381642	3236.398084
406.762972	3206.478836
407.144240	3161.221877
407.525447	3160.581651
407.906593	3130.359933
408.287677	3133.974441
408.668700	3111.954681
409.049661	3095.283585
409.430560	3076.303641
409.811399	3042.560678
410.192176	3028.871424
410.572891	3021.397914
410.953545	3016.326513
411.334138	2965.161322
411.714669	2957.430713
412.095139	2914.038981
412.475547	2906.081519
412.855894	2884.333982
413.236180	2875.269987
413.616405	2840.664987
413.996568	2832.654593
414.376670	2807.786581
414.756711	2786.112140
415.136691	2773.138731
415.516609	2761.844026
415.896466	2747.123856
416.276262	2733.048955
416.655997	2725.540156
417.035670	2716.471120
417.415283	2712.871737
417.794834	2696.896320
418.174324	2678.342353
418.553753	2660.317708
418.933121	2656.569610
419.312428	2639.573360
419.691674	2621.571399
420.070859	2620.457304
420.449983	2601.827720
420.829045	2597.300764
421.208047	2583.828280
421.586988	2576.722774
421.965867	2570.275138
422.344686	2562.274827
422.723444	2559.456822
423.102141	2538.939326
423.480777	2543.625078
423.859352	2530.555887
424.237866	2531.445651
424.616319	2524.516585
424.994712	2525.676050
425.373044	2513.637775
425.751314	2514.237672
426.129524	2501.410456
426.507673	2506.575118
426.885762	2498.582369
427.263789	2501.624705
427.641756	2499.739314
428.019662	2496.838130
428.397508	2494.047851
428.775292	2491.376039
429.153016	2493.211019
429.530679	2490.546770
429.908282	2488.071563
430.285824	2488.147180
430.663305	2490.362768
431.040726	2485.677015
431.418086	2488.253045
431.795385	2484.726758
432.172624	2486.115595
432.549802	2485.034268
432.926920	2481.384472
433.303977	2484.376397
433.680974	2482.680049
434.057910	2483.191726
434.434786	2483.652992
434.811601	2481.628968
435.188355	2482.554020
435.565050	2480.416571
435.941683	2480.272898
436.318257	2483.524442
436.694770	2480.630820
437.071222	2482.596870
437.447614	2482.846407
437.823946	2482.916983
438.200218	2481.082003
438.576429	2479.247023
438.952580	2481.671818
439.328670	2478.039667
439.704700	2480.746767
440.080670	2479.667960
440.456580	2482.511170
440.832429	2483.511839
441.208218	2480.101499
441.583947	2482.243989
441.959616	2480.988742
442.335224	2479.055459
442.710773	2481.026551
443.086261	2479.277270
443.461689	2478.379945
443.837057	2476.527321
444.212365	2479.622589
444.587612	2479.015130
444.962800	2477.422126
445.337927	2478.614358
445.712995	2473.868112
446.088002	2480.759369
446.462949	2482.584267
446.837837	2482.511170
447.212664	2479.642754
447.587431	2485.432519
447.962139	2487.393528
448.336786	2488.689104
448.711374	2489.513333
449.085901	2487.207005
449.460369	2481.780203
449.834776	2484.573002
450.209124	2487.398569
450.583412	2488.225318
450.957640	2487.892602
451.331808	2487.101141
451.705917	2483.116109
452.079965	2486.617190
452.453954	2485.417396
452.827883	2486.755822
453.201752	2482.811119
453.575562	2486.987715
453.949311	2487.431337
454.323001	2488.343785
454.696632	2487.917808
455.070202	2486.440750
455.443713	2488.295894
455.817164	2488.510143
456.190556	2489.631800
456.563888	2489.677171
456.937160	2489.329331
457.310373	2488.000987
457.683526	2488.931080
458.056619	2490.345123
458.429653	2487.607777
458.802628	2491.668426
459.175542	2487.791779
459.548398	2492.296050
459.921194	2493.014414
460.293930	2493.117758
460.666607	2494.630104
461.039224	2495.350989
461.411782	2497.725373
461.784280	2497.117914
462.156719	2496.248315
462.529099	2496.654127
462.901419	2494.511637
463.273680	2492.313694
463.645882	2490.579537
464.018024	2492.515340
464.390106	2491.333190
464.762130	2499.187307
465.134094	2501.433141
465.505999	2505.541682
465.877845	2511.780110
466.249631	2512.654750
466.621358	2511.628875
466.993026	2508.387413
467.364634	2510.295490
467.736184	2508.896570
468.107674	2504.999758
468.479105	2505.324912
468.850477	2504.672083
469.221790	2504.145282
469.593043	2502.721156
469.964238	2500.641680
470.335373	2498.597492
470.706449	2504.140241
471.077467	2505.740807
471.448425	2508.213493
471.819324	2510.681138
472.190164	2511.830521
472.560945	2507.154851
472.931667	2503.661331
473.302330	2504.611589
473.672934	2502.799294
474.043479	2503.396671
474.413965	2501.380209
474.784393	2501.811228
475.154761	2505.710560
475.525070	2501.309633
475.895321	2502.544716
476.265513	2501.838954
476.635645	2505.599655
477.005719	2502.781650
477.375734	2504.034377
477.745691	2503.918430
478.115588	2507.169974
478.485427	2505.748369
478.855207	2511.822959
479.224928	2516.178516
479.594591	2517.101047
479.964194	2516.596932
480.333739	2517.380832
480.703226	2515.026613
481.072653	2519.707324
481.442022	2518.691532
481.811333	2516.307066
482.180584	2514.731705
482.549777	2517.229597
482.918912	2511.739780
483.287988	2517.804288
483.657005	2514.910666
484.025964	2517.191788
484.394864	2513.756242
484.763706	2514.431757
485.132489	2515.172806
485.501213	2517.035513
485.869879	2511.107116
486.238487	2514.449401
486.607036	2515.545852
486.975527	2515.409740
487.343959	2513.534431
487.712333	2517.194309
488.080648	2515.253465
488.448905	2515.387055
488.817104	2516.304545
489.185244	2516.120543
489.553326	2520.213960
489.921350	2521.741430
490.289315	2526.873324
490.657222	2525.204702
491.025070	2527.034641
491.392861	2525.403828
491.760593	2527.135464
492.128267	2525.852491
492.495883	2521.564989
492.863440	2521.363343
493.230939	2517.615245
493.598380	2521.910308
493.965763	2516.687673
494.333088	2514.343536
494.700354	2515.427384
495.067563	2516.344874
495.434713	2517.453928
495.801805	2516.745646
496.168839	2516.508712
496.535815	2514.968639
496.902733	2516.576768
497.269593	2519.034330
497.636395	2516.712879
498.003139	2519.278826
498.369825	2514.381345
498.736453	2517.370749
499.103023	2514.749349
499.469535	2515.528207
499.835989	2517.274967
500.202385	2515.276150
500.568723	2511.333968
500.935003	2515.984432
501.301226	2511.472599
501.667390	2516.324710
502.033497	2515.568537
502.399546	2518.257992
502.765537	2515.787827
503.131470	2518.152128
503.497345	2517.118692
503.863163	2513.194153
504.228923	2515.089627
504.594625	2515.389576
504.960269	2514.111643
505.325856	2515.944103
505.691385	2514.688855
506.056856	2515.868485
506.422270	2516.075173
506.787625	2514.691376
507.152924	2515.054339
507.518164	2516.279339
507.883347	2514.648526
508.248472	2514.943434
508.613540	2515.959226
508.978550	2514.280522
509.343503	2514.968639
509.708398	2514.169617
510.073236	2517.050636
510.438016	2517.431243
510.802738	2512.059894
511.167403	2516.299504
511.532010	2515.031654
511.896561	2516.929648
512.261053	2518.351254
512.625488	2516.493588
512.989866	2518.212622
513.354186	2513.874709
513.718449	2514.411592
514.082655	2515.442508
514.446803	2516.065090
514.810894	2517.222035
515.174927	2517.695904
515.538904	2515.195491
515.902822	2515.427384
516.266684	2516.357477
516.630488	2518.124402
516.994235	2514.220028
517.357925	2515.409740
517.721558	2516.554082
518.085133	2515.568537
518.448651	2515.442508
518.812112	2511.364214
519.175516	2513.761283
519.538863	2510.136693
519.902152	2517.758918
520.265385	2517.516943
520.628560	2512.697600
520.991678	2516.884278
521.354739	2516.281860
521.717743	2516.922087
522.080690	2516.218846
522.443580	2516.491068
522.806413	2518.265554
523.169189	2515.984432
523.531908	2517.181706
523.894569	2518.903260
524.257174	2517.680780
524.619722	2516.236490
524.982213	2517.428722
525.344647	2517.940400
525.707025	2515.971829
526.069345	2517.675739
526.431608	2513.199194
526.793815	2519.853517
527.155964	2516.052487
527.518057	2514.519977
527.880093	2516.465862
528.242072	2515.107271
528.603995	2515.460152
528.965860	2513.809174
529.327669	2512.838752
529.689421	2515.329082
530.051117	2517.219515
530.412755	2517.282529
530.774337	2514.766993
531.135862	2516.057529
531.497331	2516.080214
531.858743	2515.931500
532.220098	2515.997035
532.581396	2514.192302
532.942638	2514.978722
533.303824	2513.476458
533.664953	2515.129956
534.026025	2512.606859
534.387040	2515.245903
534.747999	2516.458300
535.108902	2513.141221
535.469748	2511.719616
535.830537	2513.695748
536.191270	2515.553413
536.551947	2512.826149
536.912567	2511.195336
537.273131	2515.172806
537.633638	2507.747187
537.994089	2513.925121
538.354483	2513.274812
538.714821	2513.990656
539.075103	2514.479648
539.435328	2513.743639
539.795497	2511.155007
540.155609	2511.674245
540.515665	2514.474606
540.875665	2513.494102
541.235609	2512.163237
541.595496	2514.945954
541.955328	2513.708351
542.315102	2512.813546
542.674821	2517.544669
543.034483	2512.848834
543.394090	2513.930162
543.753640	2513.836900
544.113134	2515.291273
544.472571	2514.459483
544.831953	2514.986283
545.191278	2514.504853
545.550548	2512.523680
545.909761	2515.165244
546.268918	2514.172137
546.628019	2516.329751
546.987064	2513.247085
547.346053	2511.785151
547.704986	2513.279853
548.063863	2514.580471
548.422684	2513.282373
548.781449	2514.129287
549.140158	2509.113339
549.498811	2515.049298
549.857408	2513.078207
550.215949	2514.325892
550.574434	2512.896725
550.932864	2511.606190
551.291237	2515.306397
551.649555	2512.362363
552.007817	2513.567199
552.366022	2512.006962
552.724173	2514.900584
553.082267	2515.697086
553.440305	2515.102230
553.798288	2512.110305
554.156215	2514.129287
554.514086	2511.901097
554.871902	2506.439007
555.229661	2513.879750
555.587365	2508.493277
555.945014	2512.982425
556.302606	2510.630727
556.660143	2514.046108
557.017625	2514.177178
557.375050	2511.691889
557.732421	2514.177178
558.089735	2514.809843
558.446994	2512.596777
558.804197	2514.840090
559.161345	2514.590553
559.518437	2514.406551
559.875474	2512.168278
560.232455	2515.382014
560.589381	2513.415964
560.946251	2512.528721
561.303065	2515.439987
561.659825	2511.475120
562.016528	2512.304390
562.373177	2510.610562
562.729770	2512.949657
563.086307	2513.320182
563.442789	2514.235152
563.799216	2512.551406
564.155587	2511.938906
564.511904	2513.405882
564.868164	2513.373114
565.224370	2511.868330
565.580520	2511.180212
565.936615	2515.008969
566.292654	2514.918228
566.648638	2511.762466
567.004567	2511.409585
567.360441	2513.307579
567.716260	2511.492764
568.072023	2513.725995
568.427732	2513.037877
568.783385	2512.382527
569.138982	2513.163906
569.494525	2515.520646
569.850013	2513.577281
570.205445	2514.436798
570.560823	2512.347239
570.916145	2510.971004
571.271412	2512.153155
571.626625	2513.262209
571.981782	2513.967970
572.336884	2512.437980
572.691931	2509.335150
573.046923	2511.089472
573.401860	2506.499501
573.756743	2511.626354
574.111570	2511.306241
574.466342	2513.113495
574.821059	2513.075686
575.175722	2510.784482
575.530330	2513.234483
575.884882	2510.139214
576.239380	2512.553927
576.593823	2512.337157
576.948211	2512.075017
577.302544	2510.613083
577.656823	2513.216838
578.011047	2507.699296
578.365216	2511.586025
578.719330	2512.753052
579.073389	2509.370438
579.427394	2511.722136
579.781344	2511.782630
580.135239	2513.249606
580.489080	2511.583505
580.842866	2509.168792
581.196597	2511.069307
581.550273	2510.688700
581.903895	2510.015706
582.257463	2510.408916
582.610975	2511.948988
582.964434	2508.611744
583.317837	2508.473113
583.671186	2511.157527
584.024481	2512.833711
584.377721	2511.210459
584.730906	2508.241220
585.084037	2509.647702
585.437113	2512.125429
585.790135	2509.390603
586.143103	2508.538648
586.496016	2512.253978
586.848874	2511.258350
587.201679	2510.519821
587.554428	2507.200221
587.907124	2511.001251
588.259765	2508.616786
588.612352	2511.081910
588.964884	2510.482013
589.317362	2510.965963
589.669786	2512.259019
590.022155	2509.955212
590.374470	2506.350787
590.726731	2509.594769
591.078937	2507.449758
591.431090	2511.528052
591.783188	2508.566374
592.135232	2508.100067
592.487222	2507.311127
592.839157	2512.117867
593.191038	2507.099398
593.542866	2509.234327
593.894639	2509.249450
594.246358	2510.401354
594.598022	2506.373472
594.949633	2508.896570
595.301190	2507.018740
595.652692	2508.357166
596.004141	2507.326250
596.355535	2505.589573
596.706876	2510.242558
597.058162	2507.837927
597.409395	2507.603514
597.760573	2508.964625
598.111698	2504.931702
598.462768	2510.779441
598.813785	2507.021260
599.164748	2507.424553
599.515657	2505.634943
599.866511	2506.653256
600.217312	2506.842299
600.568060	2507.729542
600.918753	2508.641991
601.269392	2505.823986
601.619978	2509.168792
601.970510	2504.566218
602.320988	2506.474295
602.671412	2508.377331
603.021783	2506.345746
603.372100	2508.924296
603.722363	2509.287259
604.072572	2505.738287
604.422728	2506.401198
604.772830	2509.352794
605.122878	2509.262053
605.472872	2506.136538
605.822813	2506.423884
606.172701	2502.827020
606.522534	2505.919768
606.872314	2508.626868
607.222041	2506.323061
607.571714	2502.534633
607.921333	2500.656804
608.270899	2504.230982
608.620411	2501.165960
608.969870	2507.419512
609.319276	2507.013699
609.668627	2509.574605
610.017926	2508.301713
610.367171	2507.505211
610.716362	2505.594614
611.065500	2506.663338
611.414585	2507.895901
611.763616	2507.381703
612.112594	2507.527896
612.461518	2509.188957
612.810389	2507.056548
613.159207	2508.420181
613.507971	2505.271980
613.856682	2510.275325
614.205340	2508.039573
614.553945	2508.125273
614.902496	2505.829027
615.250994	2508.909172
615.599439	2505.413132
615.947830	2509.022598
616.296169	2506.116373
616.644454	2508.727691
616.992686	2506.935561
617.340864	2510.187105
617.688990	2509.829183
618.037063	2505.879439
618.385082	2508.858761
618.733048	2512.833711
619.080961	2508.702485
619.428821	2507.623678
619.776628	2510.618124
620.124382	2508.515963
620.472083	2506.933040
620.819731	2507.485047
621.167326	2508.765500
621.514868	2509.766169
621.862357	2508.394975
622.209793	2507.328771
622.557176	2505.493791
622.904506	2507.033863
623.251783	2506.749038
623.599007	2507.154851
623.946179	2507.212824
624.293297	2506.444048
624.640363	2504.989675
624.987376	2503.242916
625.334336	2502.355673
625.681243	2502.436331
626.028097	2502.275014
626.374899	2506.950684
626.721647	2505.922289
627.068343	2503.784840
627.414987	2504.714933
627.761577	2504.777947
628.108115	2503.003461
628.454600	2502.648059
628.801032	2502.890035
629.147412	2505.690396
629.493739	2504.659480
629.840014	2501.975065
630.186236	2505.214007
630.532405	2504.173008
630.878521	2505.161075
631.224585	2507.790036
631.570597	2504.392299
631.916556	2502.723677
632.262462	2505.944974
632.608316	2501.508759
632.954117	2501.697802
633.299866	2501.755775
633.645562	2503.391630
633.991206	2501.927174
634.336797	2503.494973
634.682336	2502.350631
635.027823	2501.150837
635.373257	2498.108500
635.718639	2499.837616
636.063968	2501.743172
636.409245	2503.283245
636.754470	2501.284427
637.099642	2502.922802
637.444762	2501.246619
637.789829	2500.787874
638.134845	2499.663696
638.479808	2498.607575
638.824719	2501.677637
639.169577	2498.564725
639.514383	2500.868532
639.859137	2499.756958
640.203839	2498.355517
640.548489	2501.952380
640.893086	2498.279900
641.237632	2497.274189
641.582125	2498.015239
641.926566	2497.841319
642.270955	2494.350320
642.615292	2495.270331
642.959576	2498.786536
643.303809	2495.706391
643.647990	2500.742503
643.992118	2499.477174
644.336195	2500.321567
