Dividing Wavelength (nm)	Counts (n)	Blue Motor Position (mm): 0.000000	Red Motor Position (mm): 41.000000	
326.493990	2056.072405
326.888308	2056.072405
327.282561	2056.072405
327.676750	2030.382685
328.070874	2028.918230
328.464933	2033.341842
328.858929	2043.131763
329.252859	2056.984854
329.646726	2065.335525
330.040528	2083.183730
330.434265	2099.701071
330.827938	2122.713938
331.221547	2138.933851
331.615091	2162.561739
332.008571	2183.888340
332.401986	2202.996834
332.795338	2223.000132
333.188625	2247.011148
333.581847	2260.884403
333.975006	2280.885181
334.368100	2296.114507
334.761129	2313.156128
335.154095	2327.218426
335.546996	2360.648838
335.939833	2414.374935
336.332606	2429.160639
336.725315	2438.695982
337.117960	2449.670574
337.510540	2459.185752
337.903056	2468.292596
338.295508	2475.728298
338.687896	2486.060143
339.080220	2487.746409
339.472480	2490.445947
339.864676	2496.152533
340.256807	2498.771412
340.648875	2503.058913
341.040879	2501.980107
341.432818	2502.514469
341.824694	2503.313492
342.216506	2503.386588
342.608253	2505.017402
342.999937	2503.167298
343.391557	2503.603358
343.783113	2501.682678
344.174605	2497.969869
344.566033	2499.739314
344.957397	2498.985661
345.348697	2499.489777
345.739934	2495.913078
346.131106	2494.680516
346.522215	2492.507778
346.913260	2491.066008
347.304241	2488.096769
347.695159	2486.433188
348.086012	2487.706079
348.476802	2483.721047
348.867528	2482.647282
349.258191	2477.661580
349.648789	2479.284832
350.039324	2473.822742
350.429796	2481.182826
350.820203	2478.543782
351.210548	2478.752990
351.600828	2475.629995
351.991045	2477.061683
352.381198	2476.857516
352.771288	2477.696868
353.161314	2475.244347
353.551276	2476.885243
353.941175	2475.435911
354.331010	2474.737711
354.720782	2476.527321
355.110490	2477.439770
355.500135	2477.205356
355.889717	2475.030098
356.279235	2476.602938
356.668689	2477.346508
357.058080	2477.530510
357.447408	2478.790799
357.836672	2479.574698
358.225873	2480.771972
358.615010	2481.898670
359.004084	2482.221304
359.393095	2481.850779
359.782043	2482.924545
360.170927	2481.651654
360.559748	2482.833804
360.948505	2484.089052
361.337199	2487.552324
361.725830	2488.910915
362.114398	2488.568117
362.502903	2486.909577
362.891344	2485.850935
363.279722	2483.035450
363.668037	2489.556183
364.056289	2486.738178
364.444478	2488.429485
364.832603	2487.864876
365.220665	2490.657675
365.608665	2490.824033
365.996601	2489.714979
366.384474	2488.449650
366.772284	2491.791935
367.160031	2494.027686
367.547715	2492.401914
367.935336	2493.400063
368.322893	2491.260093
368.710388	2491.444095
369.097820	2491.484424
369.485189	2491.323107
369.872495	2497.072543
370.259738	2498.302585
370.646918	2499.300733
371.034035	2497.052379
371.421090	2500.069509
371.808081	2500.142606
372.195010	2501.274345
372.581875	2502.101094
372.968678	2503.603358
373.355418	2506.368431
373.742096	2506.701147
374.128710	2509.617455
374.515262	2513.826818
374.901751	2516.675070
375.288177	2517.441325
375.674540	2522.409383
376.060841	2527.715197
376.447079	2530.371885
376.833254	2536.653163
377.219367	2542.606765
377.605417	2546.705223
377.991404	2553.296532
378.377329	2557.667212
378.763191	2567.068964
379.148991	2574.227403
379.534727	2583.828280
379.920402	2593.600557
380.306013	2603.196393
380.691563	2615.196860
381.077049	2622.922428
381.462474	2634.857360
381.847835	2647.505615
382.233134	2659.962306
382.618371	2672.078720
383.003545	2687.189578
383.388657	2701.919830
383.773706	2721.693756
384.158693	2734.641959
384.543618	2754.355392
384.928480	2767.961466
385.313280	2791.128088
385.698017	2810.070224
386.082692	2831.727021
386.467305	2847.462982
386.851856	2871.660521
387.236344	2899.588513
387.620770	2918.439908
388.005133	2935.350459
388.389435	2971.472847
388.773674	2988.206957
389.157851	3020.732481
389.541965	3044.360369
389.926018	3058.561300
390.310008	3090.474324
390.693936	3120.063377
391.077802	3145.894249
391.461606	3177.887932
391.845348	3195.053061
392.229027	3224.619428
392.612645	3269.258845
392.996200	3293.337917
393.379694	3330.972651
393.763125	3377.915875
394.146494	3403.550143
394.529801	3435.208589
394.913047	3485.615086
395.296230	3487.598780
395.679351	3514.669776
396.062410	3563.568969
396.445408	3544.808315
396.828343	3584.136876
397.211217	3619.687093
397.594028	3594.186417
397.976778	3642.155516
398.359466	3674.754137
398.742092	3684.995241
399.124656	3700.080894
399.507158	3760.363012
399.889598	3766.971965
400.271977	3832.564938
400.654294	3821.449194
401.036549	3880.594531
401.418742	3879.367010
401.800874	3950.288483
402.182944	3974.702791
402.564952	4063.243097
402.946898	4055.290677
403.328783	4053.889236
403.710606	4099.620063
404.092367	4169.737472
404.474067	4238.211464
404.855705	4223.163620
405.237282	4196.952141
405.618797	4289.724495
406.000250	4370.342627
406.381642	4453.183908
406.762972	4452.223569
407.144240	4420.625616
407.525447	4485.076768
407.906593	4500.384232
408.287677	4585.849434
408.668700	4612.814566
409.049661	4655.321575
409.430560	4691.660732
409.811399	4676.295295
410.192176	4726.043922
410.572891	4808.000481
410.953545	4912.901851
411.334138	4812.114062
411.714669	4917.484260
412.095139	4829.037216
412.475547	4942.415286
412.855894	4948.096667
413.236180	5050.358993
413.616405	4974.285461
413.996568	5087.555147
414.376670	5089.813584
414.756711	5081.472995
415.136691	5151.587883
415.516609	5234.656016
415.896466	5269.858393
416.276262	5349.140620
416.655997	5468.316017
417.035670	5566.174896
417.415283	5708.378284
417.794834	5774.266165
418.174324	5738.080763
418.553753	5740.472790
418.933121	5907.844139
419.312428	5919.872332
419.691674	5839.080280
420.070859	6075.250776
420.449983	5948.737979
420.829045	6151.369678
421.208047	6073.806485
421.586988	6230.493108
421.965867	6304.315765
422.344686	6386.869701
422.723444	6551.470936
423.102141	6169.573285
423.480777	6567.897535
423.859352	6377.851077
424.237866	6745.625935
424.616319	6741.202322
424.994712	6907.245327
425.373044	6820.088818
425.751314	7144.303066
426.129524	6856.743048
426.507673	7124.100642
426.885762	7166.738721
427.263789	7210.667336
427.641756	7300.722508
428.019662	7378.744446
428.397508	7425.912002
428.775292	7397.258084
429.153016	7578.391783
429.530679	7503.381934
429.908282	7557.975110
430.285824	7497.690471
430.663305	7786.170500
431.040726	7668.303282
431.418086	7675.708737
431.795385	7805.425187
432.172624	7999.870053
432.549802	7882.610294
432.926920	8019.482662
433.303977	7957.398332
433.680974	8001.672265
434.057910	8203.288172
434.434786	8251.118640
434.811601	8216.319555
435.188355	8557.517450
435.565050	8441.729708
435.941683	8454.383004
436.318257	8795.850601
436.694770	8746.434691
437.071222	8970.609761
437.447614	8749.600535
437.823946	8720.371925
438.200218	8862.534984
438.576429	8744.604752
438.952580	8910.219258
439.328670	8922.864993
439.704700	8993.912495
440.080670	8895.310046
440.456580	9170.877159
440.832429	9146.530907
441.208218	8874.432107
441.583947	8987.500147
441.959616	9112.298952
442.335224	9144.950505
442.710773	9229.694822
443.086261	9408.320547
443.461689	9127.107341
443.837057	9296.285943
444.212365	9512.163275
444.587612	9498.635338
444.962800	9386.091579
445.337927	9526.270944
445.712995	9061.894975
446.088002	9746.798739
446.462949	9797.883272
446.837837	9788.015213
447.212664	9806.433069
447.587431	10652.066462
447.962139	11665.499702
448.336786	12629.625416
448.711374	12401.699727
449.085901	11172.167345
449.460369	11094.498288
449.834776	10870.164421
450.209124	11795.294290
450.583412	11613.422062
450.957640	11934.984663
451.331808	11525.680779
451.705917	10941.368199
452.079965	10811.724845
452.453954	11021.116732
452.827883	10957.956115
453.201752	10936.856366
453.575562	10939.366861
453.949311	11294.443052
454.323001	11364.421829
454.696632	11272.498910
455.070202	11867.705424
455.443713	11923.032087
455.817164	12095.507604
456.190556	12424.662183
456.563888	12287.701595
456.937160	12550.839743
457.310373	12033.566947
457.683526	12038.109027
458.056619	12063.629868
458.429653	12129.358952
458.802628	12273.987136
459.175542	12331.748676
459.548398	12885.484138
459.921194	13465.690699
460.293930	13739.634561
460.666607	14610.866933
461.039224	15427.128043
461.411782	15786.055677
461.784280	15447.912721
462.156719	15394.025307
462.529099	15309.807790
462.901419	14653.270599
463.273680	14250.421912
463.645882	14464.078615
464.018024	14347.648126
464.390106	14719.594539
464.762130	15792.803261
465.134094	17344.099890
465.505999	19661.389764
465.877845	21947.903393
466.249631	23226.140883
466.621358	22765.618876
466.993026	21953.536883
467.364634	21204.736493
467.736184	20398.073740
468.107674	19765.673593
468.479105	19627.160329
468.850477	19347.492237
469.221790	18920.836702
469.593043	18237.462928
469.964238	17842.480962
470.335373	17895.624806
470.706449	18632.719636
471.077467	19472.162492
471.448425	21979.776088
471.819324	23894.116453
472.190164	23810.214009
472.560945	22049.475081
472.931667	20442.738363
473.302330	20096.539643
473.672934	19541.909376
474.043479	19965.416711
474.413965	19748.092569
474.784393	19561.388395
475.154761	20250.987994
475.525070	20375.297807
475.895321	20201.806497
476.265513	20738.487736
476.635645	21349.823421
477.005719	21407.738717
477.375734	21770.858070
477.745691	22410.295668
478.115588	23059.200553
478.485427	24268.631334
478.855207	26103.815500
479.224928	27940.648124
479.594591	29394.494208
479.964194	29046.442865
480.333739	29498.425157
480.703226	29735.760159
481.072653	30165.243782
481.442022	30695.038804
481.811333	31123.690636
482.180584	30685.931960
482.549777	30464.612703
482.918912	30216.701360
483.287988	30155.809262
483.657005	29999.483082
484.025964	29639.191816
484.394864	29844.341572
484.763706	29768.905746
485.132489	29217.774040
485.501213	29295.932089
485.869879	29479.296498
486.238487	29417.436500
486.607036	29678.197744
486.975527	29366.946823
487.343959	29717.105369
487.712333	30089.913820
488.080648	30037.402641
488.448905	30488.202782
488.817104	30370.471675
489.185244	31187.594823
489.553326	32163.126148
489.921350	34082.636215
490.289315	36635.670607
490.657222	37574.048628
491.025070	38177.605814
491.392861	37897.443689
491.760593	37135.138048
492.128267	36115.410928
492.495883	35114.318432
492.863440	34208.922160
493.230939	33214.224369
493.598380	32643.021309
493.965763	32472.950422
494.333088	31965.157516
494.700354	31769.628802
495.067563	31727.467112
495.434713	31608.894132
495.801805	31908.870512
496.168839	31731.706722
496.535815	31584.046285
496.902733	31728.893758
497.269593	31532.187935
497.636395	31685.335668
498.003139	31959.287092
498.369825	31703.866950
498.736453	32136.886942
499.103023	31961.429582
499.469535	32060.707546
499.835989	32172.243074
500.202385	32045.132901
500.568723	32082.583633
500.935003	32390.318349
501.301226	32261.466456
501.667390	32998.336955
502.033497	33218.975656
502.399546	33007.504293
502.765537	32612.290435
503.131470	33110.265694
503.497345	33533.901578
503.863163	32450.255147
504.228923	33264.819909
504.594625	33649.061697
504.960269	33109.968266
505.325856	33789.740136
505.691385	33459.219404
506.056856	33777.900986
506.422270	34280.977893
506.787625	33796.187772
507.152924	34278.117038
507.518164	34439.441523
507.883347	34011.467726
508.248472	34147.904034
508.613540	34859.208321
508.978550	35082.044965
509.343503	34924.571922
509.708398	35273.278616
510.073236	35868.608638
510.438016	35975.652499
510.802738	35641.688660
511.167403	36200.765224
511.532010	36455.043545
511.896561	36987.694381
512.261053	37735.836899
512.625488	37531.506331
512.989866	37430.968079
513.354186	37488.530495
513.718449	37453.587737
514.082655	38353.859676
514.446803	38035.352014
514.810894	38662.804269
515.174927	38665.445833
515.538904	38678.318420
515.902822	39322.373714
516.266684	39006.517700
516.630488	39367.272751
516.994235	39371.993792
517.357925	39947.542326
517.721558	40208.928674
518.085133	40598.385535
518.448651	40778.301795
518.812112	40676.084839
519.175516	40817.869812
519.538863	41284.693261
519.902152	41345.161901
520.265385	41897.140521
520.628560	41904.046902
520.991678	41868.461397
521.354739	42090.062958
521.717743	42459.211531
522.080690	42349.848739
522.443580	43066.650404
522.806413	43070.675766
523.169189	43199.177298
523.531908	43419.122840
523.894569	43273.723360
524.257174	43469.957836
524.619722	43809.708920
524.982213	43973.294362
525.344647	44016.635682
525.707025	44143.156041
526.069345	44583.596611
526.431608	44491.431716
526.793815	44884.339247
527.155964	44422.337661
527.518057	44671.335373
527.880093	44524.489082
528.242072	45167.210992
528.603995	44878.002516
528.965860	44793.416996
529.327669	45024.004414
529.689421	45075.772023
530.051117	45051.912242
530.412755	45321.072048
530.774337	45379.017591
531.135862	45310.036963
531.497331	45468.757692
531.858743	45466.675695
532.220098	45881.905455
532.581396	45588.079283
532.942638	45348.974835
533.303824	45610.202386
533.664953	45665.720613
534.026025	45329.153018
534.387040	45912.419559
534.747999	45961.134749
535.108902	46300.091852
535.469748	45622.744777
535.830537	45881.177008
536.191270	46144.814231
536.551947	45867.109668
536.912567	46152.194480
537.273131	46273.802234
537.633638	45913.987358
537.994089	46073.066009
538.354483	45829.137177
538.714821	46491.038157
539.075103	46771.303625
539.435328	46641.067936
539.795497	46386.870274
540.155609	46519.248453
540.515665	47119.889331
540.875665	46413.994202
541.235609	46669.328645
541.595496	46820.268353
541.955328	47387.849343
542.315102	46820.901017
542.674821	46719.717498
543.034483	46609.578369
543.394090	46638.890158
543.753640	46604.459077
544.113134	47672.629165
544.472571	46768.064684
544.831953	47923.552598
545.191278	47169.592588
545.550548	46852.251953
545.909761	47502.175151
546.268918	47632.234400
546.628019	48039.952840
546.987064	47468.580902
547.346053	46788.977911
547.704986	47714.523674
548.063863	47343.772015
548.422684	47546.880103
548.781449	47108.198896
549.140158	47648.265269
549.498811	47406.395748
549.857408	46787.069834
550.215949	47631.674832
550.574434	47475.383939
550.932864	47421.713294
551.291237	48138.855238
551.649555	47874.469404
552.007817	48053.435406
552.366022	47764.610058
552.724173	47822.406887
553.082267	48223.324812
553.440305	48605.474520
553.798288	47839.761059
554.156215	48229.061645
554.514086	48440.240620
554.871902	48002.834825
555.229661	48190.574956
555.587365	47870.134011
555.945014	47993.785953
556.302606	48031.055204
556.660143	48115.731465
557.017625	48357.573259
557.375050	48007.419754
557.732421	48420.370913
558.089735	48504.348974
558.446994	48353.139564
558.804197	48826.047686
559.161345	48690.821255
559.518437	48039.410916
559.875474	48277.517215
560.232455	48496.308333
560.589381	48526.764464
560.946251	48375.358450
561.303065	49018.758395
561.659825	48695.925423
562.016528	48477.837546
562.373177	48075.694621
562.729770	48722.179752
563.086307	48225.348835
563.442789	48766.551988
563.799216	48626.395308
564.155587	48532.949960
564.511904	48482.079677
564.868164	48536.100681
565.224370	48861.345845
565.580520	48581.637424
565.936615	48770.433677
566.292654	48412.824305
566.648638	48767.371176
567.004567	48714.665912
567.360441	48787.462694
567.716260	48487.811469
568.072023	48903.356301
568.427732	48794.079209
568.783385	48323.389195
569.138982	48753.588661
569.494525	48891.993540
569.850013	48485.679061
570.205445	48628.613416
570.560823	48379.393893
570.916145	48254.174152
571.271412	48492.595524
571.626625	48117.659706
571.981782	48186.252166
572.336884	47795.774472
572.691931	48119.605592
573.046923	47752.203779
573.401860	47567.924400
573.756743	47597.077393
574.111570	47736.137622
574.466342	47650.737955
574.821059	47804.382242
575.175722	47282.005277
575.530330	47366.462248
575.884882	47000.124119
576.239380	46889.004485
576.593823	46987.808580
576.948211	46935.430992
577.302544	46454.711602
577.656823	46457.564895
578.011047	46701.138325
578.365216	46539.080353
578.719330	46233.455360
579.073389	46202.419496
579.427394	46264.082890
579.781344	46132.962478
580.135239	45896.058494
580.489080	45954.220807
580.842866	45443.027642
581.196597	45917.077585
581.550273	45892.736374
581.903895	45819.037225
582.257463	46251.152330
582.610975	45673.773857
582.964434	45990.950654
583.317837	45456.260671
583.671186	45439.012363
584.024481	45696.010386
584.377721	45215.714454
584.730906	45401.090283
585.084037	45545.506738
585.437113	45246.145379
585.790135	45376.696140
586.143103	44910.137352
586.496016	45063.428758
586.848874	45173.469584
587.201679	45178.162899
587.554428	44647.364687
587.907124	44906.351445
588.259765	44659.992777
588.612352	44807.728832
588.964884	44231.363630
589.317362	44516.597156
589.669786	44510.333522
590.022155	44361.117889
590.374470	44831.253376
590.726731	44379.792843
591.078937	43695.983009
591.431090	44041.284404
591.783188	43508.426881
592.135232	43321.637007
592.487222	43550.439857
592.839157	43682.707131
593.191038	43324.273531
593.542866	43116.146973
593.894639	42468.336019
594.246358	42752.614246
594.598022	42732.134559
594.949633	42251.147988
595.301190	42221.722773
595.652692	42151.791887
596.004141	42633.038077
596.355535	41495.930210
596.706876	41498.508760
597.058162	41175.322907
597.409395	41649.128354
597.760573	41856.448327
598.111698	41432.071393
598.462768	41322.605258
598.813785	41308.757208
599.164748	40907.446074
599.515657	41148.314926
599.866511	40622.424277
600.217312	41267.704572
600.568060	40207.786853
600.918753	40996.165341
601.269392	40853.488084
601.619978	40553.625130
601.970510	40737.531463
602.320988	40826.593528
602.671412	41064.599004
603.021783	40894.044167
603.372100	40443.196134
603.722363	40500.269557
604.072572	40492.748156
604.422728	40458.954781
604.772830	40210.456143
605.122878	40354.212207
605.472872	40177.111431
605.822813	40389.117156
606.172701	40086.980642
606.522534	40373.078725
606.872314	40513.064006
607.222041	40330.997694
607.571714	40595.983425
607.921333	40058.059542
608.270899	40215.335980
608.620411	40551.389378
608.969870	40265.505543
609.319276	40250.245971
609.668627	40213.443027
610.017926	40549.060365
610.367171	40651.433597
610.716362	40643.551753
611.065500	40485.488894
611.414585	40641.769705
611.763616	40734.242110
612.112594	40599.950813
612.461518	40667.570330
612.810389	40968.580147
613.159207	40708.433923
613.507971	40625.113733
613.856682	41052.026367
614.205340	40822.812663
614.553945	41431.499222
614.902496	40747.853226
615.250994	41076.869173
615.599439	41099.927410
615.947830	41135.822946
616.296169	41073.778945
616.644454	41022.311285
616.992686	41097.845414
617.340864	41435.035592
617.688990	40900.857286
618.037063	41488.436534
618.385082	41222.838303
618.733048	41460.190949
619.080961	41284.221913
619.428821	41249.437951
619.776628	41219.102808
620.124382	40975.375622
620.472083	41017.045800
620.819731	41086.217992
621.167326	40614.287855
621.514868	40565.444115
621.862357	39989.991362
622.209793	40037.184124
622.557176	39592.113254
622.904506	39296.744488
623.251783	38920.470245
623.599007	38554.797547
623.946179	38420.266795
624.293297	38109.593087
624.640363	37552.348982
624.987376	37343.277208
625.334336	37097.611699
625.681243	36682.039141
626.028097	36513.929263
626.374899	36293.829965
626.721647	36202.741356
627.068343	35905.701448
627.414987	35573.572589
627.761577	35270.856342
628.108115	35488.361965
628.454600	34756.648567
628.801032	34875.428234
629.147412	34694.702868
629.493739	34523.548134
629.840014	34060.523194
630.186236	34349.706464
630.532405	33752.851493
630.878521	33882.782192
631.224585	33616.710092
631.570597	33228.939497
631.916556	33314.109791
632.262462	33139.305261
632.608316	32992.574916
632.954117	32808.751762
633.299866	32697.110369
633.645562	32558.602146
633.991206	32044.795143
634.336797	31630.886166
634.682336	31468.462709
635.027823	31199.249971
635.373257	31037.902801
635.718639	30690.053103
636.063968	30544.008355
636.409245	29927.218141
636.754470	29816.050617
