Dividing Wavelength (nm)	Counts (n)	Blue Motor Position (mm): 0.000000	Red Motor Position (mm): 6.000000	
326.493990	2056.480738
326.888308	2056.480738
327.282561	2056.480738
327.676750	2028.298168
328.070874	2030.843950
328.464933	2037.836031
328.858929	2042.748635
329.252859	2055.182641
329.646726	2068.400547
330.040528	2086.994843
330.434265	2101.783067
330.827938	2124.755605
331.221547	2144.085910
331.615091	2164.298416
332.008571	2183.999245
332.401986	2203.984900
332.795338	2224.973744
333.188625	2241.884294
333.581847	2262.777357
333.975006	2281.706889
334.368100	2298.171298
334.761129	2313.481282
335.154095	2329.202120
335.546996	2344.368432
335.939833	2358.269413
336.332606	2375.263143
336.725315	2382.784544
337.117960	2394.956410
337.510540	2404.839593
337.903056	2412.071128
338.295508	2422.203847
338.687896	2426.645103
339.080220	2431.222471
339.472480	2435.210024
339.864676	2440.689758
340.256807	2443.941302
340.648875	2444.359718
341.040879	2443.583380
341.432818	2448.412806
341.824694	2451.092179
342.216506	2447.477672
342.608253	2449.708382
342.999937	2444.871395
343.391557	2446.492126
343.783113	2446.121601
344.174605	2442.781837
344.566033	2443.384255
344.957397	2441.098092
345.348697	2440.546085
345.739934	2436.765220
346.131106	2436.692123
346.522215	2434.416042
346.913260	2433.128027
347.304241	2429.808428
347.695159	2429.316915
348.086012	2429.085022
348.476802	2423.932963
348.867528	2422.491193
349.258191	2420.590678
349.648789	2421.251069
350.039324	2414.753022
350.429796	2418.778383
350.820203	2420.341141
351.210548	2419.043043
351.600828	2418.790986
351.991045	2417.931469
352.381198	2416.358629
352.771288	2416.625810
353.161314	2417.145049
353.551276	2416.081366
353.941175	2416.298135
354.331010	2417.424833
354.720782	2418.806109
355.110490	2419.642941
355.500135	2417.941551
355.889717	2419.070770
356.279235	2419.458939
356.668689	2417.379463
357.058080	2419.383321
357.447408	2418.604463
357.836672	2421.457756
358.225873	2418.932138
358.615010	2421.049423
359.004084	2420.265523
359.393095	2421.818199
359.782043	2419.859710
360.170927	2422.418096
360.559748	2421.341810
360.948505	2424.989084
361.337199	2424.681574
361.725830	2423.862387
362.114398	2428.006215
362.502903	2424.351378
362.891344	2425.962027
363.279722	2424.323652
363.668037	2427.640731
364.056289	2428.986719
364.444478	2428.754826
364.832603	2426.052768
365.220665	2430.831782
365.608665	2428.994281
365.996601	2429.223654
366.384474	2429.992430
366.772284	2428.079312
367.160031	2430.753644
367.547715	2430.983016
367.935336	2430.730959
368.322893	2426.660227
368.710388	2425.531008
369.097820	2431.063675
369.485189	2428.845567
369.872495	2434.146340
370.259738	2433.163315
370.646918	2434.768923
371.034035	2433.619540
371.421090	2434.441248
371.808081	2435.116763
372.195010	2434.723552
372.581875	2438.138934
372.968678	2438.396033
373.355418	2440.392330
373.742096	2442.313010
374.128710	2441.700509
374.515262	2444.324430
374.901751	2447.669236
375.288177	2453.572427
375.674540	2454.167283
376.060841	2460.468725
376.447079	2458.369085
376.833254	2465.240177
377.219367	2470.737556
377.605417	2475.841724
377.991404	2479.373052
378.377329	2483.060656
378.763191	2488.376553
379.148991	2495.129178
379.534727	2501.297030
379.920402	2508.329440
380.306013	2514.018382
380.691563	2525.436595
381.077049	2528.690660
381.462474	2533.121834
381.847835	2544.025850
382.233134	2551.025492
382.618371	2556.608570
383.003545	2567.671382
383.388657	2574.595407
383.773706	2587.417582
384.158693	2593.081318
384.543618	2599.939808
384.928480	2608.003134
385.313280	2620.248096
385.698017	2626.471401
386.082692	2634.582617
386.467305	2643.301293
386.851856	2652.143477
387.236344	2663.677637
387.620770	2666.742658
388.005133	2673.573422
388.389435	2686.718230
388.773674	2684.419464
389.157851	2702.378575
389.541965	2706.222455
389.926018	2707.323947
390.310008	2714.825184
390.693936	2718.389279
391.077802	2723.291802
391.461606	2729.994016
391.845348	2725.094014
392.229027	2727.221381
392.612645	2735.670355
392.996200	2736.446692
393.379694	2743.378279
393.763125	2750.403127
394.146494	2742.700244
394.529801	2743.060686
394.913047	2744.066397
395.296230	2731.939901
395.679351	2729.137019
396.062410	2732.028121
396.445408	2713.149000
396.828343	2709.688248
397.211217	2701.950077
397.594028	2684.732016
397.976778	2681.641788
398.359466	2673.916220
398.742092	2664.511948
399.124656	2650.278250
399.507158	2650.071562
399.889598	2637.950108
400.271977	2633.977679
400.654294	2619.073507
401.036549	2617.488065
401.418742	2602.606578
401.800874	2599.642380
402.182944	2591.972264
402.564952	2585.862386
402.946898	2574.245047
403.328783	2562.453788
403.710606	2558.398180
404.092367	2552.830225
404.474067	2545.213042
404.855705	2535.778522
405.237282	2527.493386
405.618797	2525.373581
406.000250	2520.602129
406.381642	2515.497961
406.762972	2507.999244
407.144240	2499.741834
407.525447	2497.042296
407.906593	2487.794300
408.287677	2492.931235
408.668700	2487.806902
409.049661	2485.253558
409.430560	2479.778865
409.811399	2477.843062
410.192176	2477.558237
410.572891	2474.241158
410.953545	2474.906590
411.334138	2468.915178
411.714669	2471.574387
412.095139	2467.014663
412.475547	2467.397791
412.855894	2465.482153
413.236180	2465.719087
413.616405	2464.242029
413.996568	2464.920064
414.376670	2463.533747
414.756711	2464.935188
415.136691	2466.240846
415.516609	2461.933180
415.896466	2465.174642
416.276262	2461.676082
416.655997	2461.474435
417.035670	2459.049640
417.415283	2464.720938
417.794834	2460.501493
418.174324	2463.987451
418.553753	2461.048458
418.933121	2463.372430
419.312428	2462.303705
419.691674	2458.497634
420.070859	2461.398818
420.449983	2463.427882
420.829045	2461.928139
421.208047	2463.548870
421.586988	2463.037193
421.965867	2463.632049
422.344686	2463.881586
422.723444	2462.858232
423.102141	2459.626853
423.480777	2463.642132
423.859352	2462.323870
424.237866	2462.177676
424.616319	2463.453088
424.994712	2464.247070
425.373044	2463.939560
425.751314	2466.056844
426.129524	2459.427727
426.507673	2461.204734
426.885762	2457.292798
427.263789	2463.004426
427.641756	2463.017028
428.019662	2463.500979
428.397508	2464.269755
428.775292	2461.408900
429.153016	2462.212964
429.530679	2463.291771
429.908282	2464.214303
430.285824	2466.187914
430.663305	2465.179683
431.040726	2464.118521
431.418086	2463.185907
431.795385	2464.380661
432.172624	2464.640280
432.549802	2464.236988
432.926920	2464.809159
433.303977	2467.435600
433.680974	2463.745475
434.057910	2467.854016
434.434786	2463.989971
434.811601	2467.576752
435.188355	2465.625826
435.565050	2465.651031
435.941683	2466.150106
436.318257	2464.783953
436.694770	2464.776391
437.071222	2464.554580
437.447614	2467.596917
437.823946	2466.727318
438.200218	2466.729838
438.576429	2469.305868
438.952580	2467.763275
439.328670	2468.607668
439.704700	2466.765126
440.080670	2470.147741
440.456580	2467.143213
440.832429	2468.085909
441.208218	2469.313430
441.583947	2465.202369
441.959616	2466.276134
442.335224	2470.941722
442.710773	2468.317802
443.086261	2471.864253
443.461689	2467.906948
443.837057	2469.683954
444.212365	2466.893676
444.587612	2465.577935
444.962800	2466.558439
445.337927	2467.163377
445.712995	2465.966103
446.088002	2470.503142
446.462949	2467.924592
446.837837	2467.614561
447.212664	2470.435086
447.587431	2471.881897
447.962139	2472.696044
448.336786	2472.176805
448.711374	2475.325006
449.085901	2472.902731
449.460369	2469.643625
449.834776	2473.074130
450.209124	2472.353245
450.583412	2476.229893
450.957640	2473.724439
451.331808	2471.221506
451.705917	2470.417442
452.079965	2473.094295
452.453954	2471.455920
452.827883	2474.021867
453.201752	2472.186887
453.575562	2472.698564
453.949311	2474.873822
454.323001	2470.223358
454.696632	2473.185036
455.070202	2474.304172
455.443713	2473.747124
455.817164	2473.991620
456.190556	2473.724439
456.563888	2475.350211
456.937160	2476.330716
457.310373	2472.877525
457.683526	2471.493729
458.056619	2474.508339
458.429653	2472.701085
458.802628	2477.044039
459.175542	2475.433390
459.548398	2476.076137
459.921194	2477.228041
460.293930	2478.009420
460.666607	2476.217290
461.039224	2476.623103
461.411782	2477.132259
461.784280	2480.114102
462.156719	2476.602938
462.529099	2480.083855
462.901419	2476.897846
463.273680	2477.107053
463.645882	2471.657566
464.018024	2477.439770
464.390106	2473.280818
464.762130	2480.217445
465.134094	2480.373721
465.505999	2480.988742
465.877845	2483.640389
466.249631	2485.054433
466.621358	2483.403455
466.993026	2480.671149
467.364634	2488.996615
467.736184	2482.367497
468.107674	2481.233238
468.479105	2481.376911
468.850477	2483.660553
469.221790	2481.649133
469.593043	2480.207363
469.964238	2481.003865
470.335373	2478.972280
470.706449	2479.383134
471.077467	2483.040492
471.448425	2480.313227
471.819324	2486.793631
472.190164	2487.670791
472.560945	2480.524956
472.931667	2480.736684
473.302330	2479.279791
473.672934	2480.066211
474.043479	2481.760038
474.413965	2481.888588
474.784393	2483.237097
475.154761	2481.326499
475.525070	2479.506643
475.895321	2484.469659
476.265513	2480.920686
476.635645	2480.850110
477.005719	2482.795996
477.375734	2481.535707
477.745691	2483.852117
478.115588	2483.272385
478.485427	2482.425471
478.855207	2485.946717
479.224928	2485.646768
479.594591	2486.095431
479.964194	2485.918990
480.333739	2486.637355
480.703226	2488.021152
481.072653	2488.684063
481.442022	2487.156594
481.811333	2484.830101
482.180584	2484.532673
482.549777	2487.499392
482.918912	2483.191726
483.287988	2486.201295
483.657005	2488.386635
484.025964	2486.501244
484.394864	2487.660709
484.763706	2486.733137
485.132489	2487.567448
485.501213	2485.656850
485.869879	2486.390338
486.238487	2484.988898
486.607036	2484.923363
486.975527	2486.672643
487.343959	2487.345637
487.712333	2485.354381
488.080648	2486.163486
488.448905	2486.314721
488.817104	2486.241624
489.185244	2484.762046
489.553326	2488.716831
489.921350	2490.657675
490.289315	2488.452170
490.657222	2491.116420
491.025070	2492.563231
491.392861	2490.113230
491.760593	2491.343272
492.128267	2489.047026
492.495883	2491.567603
492.863440	2486.226501
493.230939	2486.607108
493.598380	2488.527788
493.965763	2488.283292
494.333088	2486.072746
494.700354	2487.484269
495.067563	2488.984012
495.434713	2485.755153
495.801805	2487.504433
496.168839	2486.891933
496.535815	2489.188179
496.902733	2482.979998
497.269593	2485.067035
497.636395	2485.896305
498.003139	2485.188023
498.369825	2489.800679
498.736453	2485.293887
499.103023	2486.418065
499.469535	2487.222129
499.835989	2486.831439
500.202385	2481.082003
500.568723	2482.120481
500.935003	2486.140801
501.301226	2482.017137
501.667390	2486.972592
502.033497	2488.893271
502.399546	2487.375884
502.765537	2485.722385
503.131470	2484.966212
503.497345	2490.203971
503.863163	2487.204485
504.228923	2487.789258
504.594625	2488.842860
504.960269	2488.119454
505.325856	2490.496358
505.691385	2488.399238
506.056856	2486.327324
506.422270	2486.413023
506.787625	2487.443939
507.152924	2488.863024
507.518164	2489.087356
507.883347	2485.465287
508.248472	2488.613487
508.613540	2487.673312
508.978550	2486.937303
509.343503	2488.663899
509.708398	2486.975112
510.073236	2491.363437
510.438016	2486.876810
510.802738	2489.876296
511.167403	2487.471666
511.532010	2488.575678
511.896561	2489.735144
512.261053	2487.643065
512.625488	2486.186172
512.989866	2488.467294
513.354186	2487.113744
513.718449	2486.135760
514.082655	2489.213384
514.446803	2487.456542
514.810894	2489.808241
515.174927	2484.184833
515.538904	2490.009887
515.902822	2488.326141
516.266684	2488.598364
516.630488	2488.169866
516.994235	2490.042654
517.357925	2487.567448
517.721558	2490.297233
518.085133	2487.728765
518.448651	2487.272540
518.812112	2484.555358
519.175516	2486.886892
519.538863	2484.885554
519.902152	2487.396048
520.265385	2488.363950
520.628560	2486.609628
520.991678	2489.077273
521.354739	2490.289671
521.717743	2488.303456
522.080690	2490.803868
522.443580	2487.522077
522.806413	2490.564414
523.169189	2489.999804
523.531908	2487.761532
523.894569	2489.588950
524.257174	2488.396718
524.619722	2490.108189
524.982213	2489.485607
525.344647	2489.011738
525.707025	2487.169197
526.069345	2488.736995
526.431608	2489.485607
526.793815	2489.755308
527.155964	2492.028869
527.518057	2491.063488
527.880093	2488.734475
528.242072	2489.901502
528.603995	2490.869403
528.965860	2490.408138
529.327669	2488.237921
529.689421	2488.711790
530.051117	2487.045688
530.412755	2489.538539
530.774337	2488.729434
531.135862	2489.752788
531.497331	2491.154229
531.858743	2489.929228
532.220098	2488.923518
532.581396	2487.948055
532.942638	2491.653303
533.303824	2488.666419
533.664953	2486.932262
534.026025	2488.900833
534.387040	2487.738847
534.747999	2489.644403
535.108902	2488.368991
535.469748	2487.466625
535.830537	2490.367809
536.191270	2486.826398
536.551947	2491.365957
536.912567	2484.058805
537.273131	2487.113744
537.633638	2484.946048
537.994089	2490.405617
538.354483	2488.137098
538.714821	2487.408651
539.075103	2486.962509
539.435328	2488.810092
539.795497	2488.061481
540.155609	2490.907212
540.515665	2487.794300
540.875665	2488.248003
541.235609	2489.941831
541.595496	2487.433857
541.955328	2485.495533
542.315102	2490.854280
542.674821	2489.961996
543.034483	2485.649289
543.394090	2489.644403
543.753640	2488.331183
544.113134	2489.573827
544.472571	2490.745895
544.831953	2487.958137
545.191278	2488.752119
545.550548	2489.727582
545.909761	2490.486276
546.268918	2488.439567
546.628019	2489.001656
546.987064	2490.037613
547.346053	2488.709269
547.704986	2488.638693
548.063863	2489.677171
548.422684	2490.035093
548.781449	2488.374032
549.140158	2489.893940
549.498811	2489.813282
549.857408	2489.871255
550.215949	2487.169197
550.574434	2486.597026
550.932864	2489.667088
551.291237	2489.276399
551.649555	2487.040647
552.007817	2490.665237
552.366022	2490.382932
552.724173	2489.251193
553.082267	2486.589464
553.440305	2490.314877
553.798288	2489.384784
554.156215	2490.793786
554.514086	2486.407982
554.871902	2485.435040
555.229661	2488.421923
555.587365	2482.163331
555.945014	2490.468632
556.302606	2491.055926
556.660143	2488.124495
557.017625	2490.849239
557.375050	2489.997284
557.732421	2490.360247
558.089735	2489.505771
558.446994	2488.565596
558.804197	2487.383446
559.161345	2486.261789
559.518437	2491.353354
559.875474	2489.558703
560.232455	2487.272540
560.589381	2487.756491
560.946251	2491.068529
561.303065	2487.035606
561.659825	2490.216574
562.016528	2490.153560
562.373177	2489.432675
562.729770	2490.670278
563.086307	2489.425113
563.442789	2489.276399
563.799216	2487.595174
564.155587	2485.588795
564.511904	2489.475524
564.868164	2489.112561
565.224370	2489.714979
565.580520	2489.425113
565.936615	2489.430154
566.292654	2488.298415
566.648638	2490.130874
567.004567	2489.369660
567.360441	2490.345123
567.716260	2488.890751
568.072023	2491.517192
568.427732	2488.134577
568.783385	2490.715648
569.138982	2490.788745
569.494525	2491.681029
569.850013	2489.052067
570.205445	2491.275216
570.560823	2491.151708
570.916145	2488.376553
571.271412	2487.930411
571.626625	2491.917963
571.981782	2491.116420
572.336884	2488.462253
572.691931	2484.875472
573.046923	2489.974599
573.401860	2483.867241
573.756743	2489.815802
574.111570	2488.857983
574.466342	2488.086687
574.821059	2491.086173
575.175722	2489.906543
575.530330	2490.279588
575.884882	2488.636172
576.239380	2489.001656
576.593823	2490.012407
576.948211	2490.115751
577.302544	2489.737664
577.656823	2489.220946
578.011047	2489.142808
578.365216	2488.817654
578.719330	2488.419403
579.073389	2486.965030
579.427394	2489.442757
579.781344	2488.260606
580.135239	2488.709269
580.489080	2488.358909
580.842866	2490.090545
581.196597	2491.113899
581.550273	2491.746564
581.903895	2486.455873
582.257463	2488.595843
582.610975	2488.474855
582.964434	2489.094917
583.317837	2488.747078
583.671186	2490.808910
584.024481	2487.590133
584.377721	2488.066522
584.730906	2488.094248
585.084037	2487.960658
585.437113	2488.701707
585.790135	2488.096769
586.143103	2489.152891
586.496016	2490.667757
586.848874	2487.138950
587.201679	2489.941831
587.554428	2493.836122
587.907124	2485.979484
588.259765	2491.625577
588.612352	2491.771770
588.964884	2489.488127
589.317362	2488.600884
589.669786	2489.029382
590.022155	2487.580051
590.374470	2485.258599
590.726731	2490.181286
591.078937	2486.765904
591.431090	2488.585761
591.783188	2486.455873
592.135232	2488.242962
592.487222	2487.544762
592.839157	2490.367809
593.191038	2486.539052
593.542866	2490.458549
593.894639	2486.924701
594.246358	2487.108703
594.598022	2487.542242
594.949633	2488.588281
595.301190	2488.880668
595.652692	2486.105513
596.004141	2487.396048
596.355535	2488.245483
596.706876	2485.198105
597.058162	2487.804382
597.409395	2486.745740
597.760573	2487.932931
598.111698	2487.184320
598.462768	2488.184989
598.813785	2486.128198
599.164748	2485.677015
599.515657	2490.617346
599.866511	2487.174238
600.217312	2488.956286
600.568060	2486.498723
600.918753	2487.391007
601.269392	2488.656337
601.619978	2488.666419
601.970510	2486.201295
602.320988	2487.333034
602.671412	2487.834629
603.021783	2486.067704
603.372100	2489.014259
603.722363	2487.469145
604.072572	2486.937303
604.422728	2486.256748
604.772830	2489.790597
605.122878	2485.598877
605.472872	2485.961840
605.822813	2487.184320
606.172701	2488.159783
606.522534	2484.492344
606.872314	2488.747078
607.222041	2486.314721
607.571714	2486.571820
607.921333	2484.540235
608.270899	2486.221460
608.620411	2482.904380
608.969870	2487.388487
609.319276	2487.622900
609.668627	2487.990905
610.017926	2486.007211
610.367171	2488.812613
610.716362	2488.270689
611.065500	2486.102992
611.414585	2486.042499
611.763616	2489.011738
612.112594	2488.081645
612.461518	2486.909577
612.810389	2489.157932
613.159207	2490.181286
613.507971	2485.853455
613.856682	2490.773622
614.205340	2488.346306
614.553945	2487.748929
614.902496	2487.804382
615.250994	2487.902684
615.599439	2486.970071
615.947830	2488.573158
616.296169	2486.939824
616.644454	2489.856132
616.992686	2486.609628
617.340864	2487.113744
617.688990	2489.518374
618.037063	2486.271871
618.385082	2487.731285
618.733048	2489.220946
619.080961	2486.339927
619.428821	2487.557365
619.776628	2486.148363
620.124382	2486.528970
620.472083	2488.510143
620.819731	2489.041985
621.167326	2487.080976
621.514868	2488.628611
621.862357	2487.063332
622.209793	2487.259937
622.557176	2487.713641
622.904506	2489.019300
623.251783	2487.842191
623.599007	2487.811944
623.946179	2487.088538
624.293297	2487.771614
624.640363	2487.948055
624.987376	2483.607621
625.334336	2482.047384
625.681243	2484.638537
626.028097	2480.976139
626.374899	2487.154073
626.721647	2488.416882
627.068343	2486.077787
627.414987	2487.348158
627.761577	2487.010400
628.108115	2486.150883
628.454600	2485.540904
628.801032	2483.461428
629.147412	2484.807416
629.493739	2487.499392
629.840014	2483.920173
630.186236	2486.909577
630.532405	2486.453353
630.878521	2487.358240
631.224585	2487.307828
631.570597	2483.892447
631.916556	2487.668271
632.262462	2484.935965
632.608316	2487.635503
632.954117	2484.434371
633.299866	2485.245996
633.645562	2486.705410
633.991206	2484.235245
634.336797	2484.076449
634.682336	2484.028558
635.027823	2487.650627
635.373257	2483.968064
635.718639	2483.133753
636.063968	2485.462766
636.409245	2483.433702
636.754470	2484.449494
637.099642	2485.220791
637.444762	2485.303970
637.789829	2484.300780
638.134845	2484.525111
638.479808	2482.601911
638.824719	2482.748105
639.169577	2484.366315
639.514383	2483.708444
639.859137	2483.179123
640.203839	2483.259782
640.548489	2483.678198
640.893086	2483.395893
641.237632	2483.174082
641.582125	2484.197436
641.926566	2484.139463
642.270955	2481.795327
642.615292	2479.231900
642.959576	2479.267188
643.303809	2478.253916
643.647990	2482.077631
643.992118	2483.589977
644.336195	2480.666108
