Dividing Wavelength (nm)	Counts (n)	Blue Motor Position (mm): 0.000000	Red Motor Position (mm): 5.000000	
326.493990	2052.921684
326.888308	2052.921684
327.282561	2052.921684
327.676750	2031.441327
328.070874	2032.472243
328.464933	2038.216638
328.858929	2046.620241
329.252859	2057.430996
329.646726	2068.103118
330.040528	2085.142218
330.434265	2103.008068
330.827938	2123.984309
331.221547	2143.957360
331.615091	2162.967552
332.008571	2184.369770
332.401986	2201.139168
332.795338	2223.358054
333.188625	2242.070817
333.581847	2263.586462
333.975006	2279.246806
334.368100	2299.406380
334.761129	2313.690490
335.154095	2330.253201
335.546996	2346.919255
335.939833	2356.441995
336.332606	2372.755169
336.725315	2385.879813
337.117960	2395.432799
337.510540	2402.568553
337.903056	2412.640778
338.295508	2417.986922
338.687896	2426.526636
339.080220	2433.007040
339.472480	2437.045004
339.864676	2437.624737
340.256807	2442.045828
340.648875	2444.463062
341.040879	2445.725871
341.432818	2446.524894
341.824694	2449.395831
342.216506	2449.015224
342.608253	2446.116560
342.999937	2447.820470
343.391557	2447.434822
343.783113	2448.115378
344.174605	2444.768052
344.566033	2441.710592
344.957397	2441.254367
345.348697	2439.220262
345.739934	2436.719849
346.131106	2435.799839
346.522215	2434.552153
346.913260	2434.988213
347.304241	2430.473860
347.695159	2428.233067
348.086012	2429.546288
348.476802	2423.340627
348.867528	2422.420617
349.258191	2419.584967
349.648789	2421.261151
350.039324	2416.832498
350.429796	2420.300811
350.820203	2420.184865
351.210548	2421.578744
351.600828	2415.733526
351.991045	2416.812333
352.381198	2414.412744
352.771288	2413.560789
353.161314	2416.353588
353.551276	2416.648495
353.941175	2417.145049
354.331010	2414.042219
354.720782	2414.102713
355.110490	2417.707138
355.500135	2416.887950
355.889717	2416.656057
356.279235	2415.874678
356.668689	2418.022210
357.058080	2418.075142
357.447408	2419.295101
357.836672	2417.379463
358.225873	2421.349371
358.615010	2421.641758
359.004084	2421.069587
359.393095	2419.020358
359.782043	2419.852149
360.170927	2421.709814
360.559748	2421.306522
360.948505	2424.318611
361.337199	2426.766091
361.725830	2423.328024
362.114398	2424.792479
362.502903	2426.151070
362.891344	2428.064188
363.279722	2426.035124
363.668037	2426.244332
364.056289	2428.044024
364.444478	2425.543611
364.832603	2427.252563
365.220665	2429.145516
365.608665	2429.057296
365.996601	2428.361616
366.384474	2426.718200
366.772284	2428.568304
367.160031	2427.761719
367.547715	2429.150557
367.935336	2429.311874
368.322893	2427.708787
368.710388	2428.318767
369.097820	2429.460588
369.485189	2425.304157
369.872495	2432.235743
370.259738	2432.089550
370.646918	2433.778336
371.034035	2432.855805
371.421090	2431.698860
371.808081	2433.100301
372.195010	2435.262956
372.581875	2435.557863
372.968678	2439.673966
373.355418	2440.004161
373.742096	2441.503904
374.128710	2442.802002
374.515262	2443.371652
374.901751	2446.766869
375.288177	2449.869699
375.674540	2450.908177
376.060841	2456.314814
376.447079	2456.259362
376.833254	2461.345886
377.219367	2464.352934
377.605417	2468.216979
377.991404	2470.241002
378.377329	2474.369707
378.763191	2478.879019
379.148991	2482.173413
379.534727	2488.812613
379.920402	2492.354023
380.306013	2497.027173
380.691563	2502.723677
381.077049	2508.374810
381.462474	2513.292456
381.847835	2516.647344
382.233134	2522.479959
382.618371	2529.466998
383.003545	2533.895652
383.388657	2540.570139
383.773706	2550.571788
384.158693	2553.505740
384.543618	2557.699980
384.928480	2561.916905
385.313280	2573.350242
385.698017	2573.733370
386.082692	2583.803075
386.467305	2586.618559
386.851856	2595.044848
387.236344	2601.220261
387.620770	2603.846702
388.005133	2602.672113
388.389435	2615.945472
388.773674	2613.392127
389.157851	2624.139867
389.541965	2627.318315
389.926018	2626.544497
390.310008	2631.633542
390.693936	2634.476753
391.077802	2633.707977
391.461606	2638.088740
391.845348	2638.184522
392.229027	2636.359624
392.612645	2639.442290
392.996200	2640.536220
393.379694	2642.161992
393.763125	2643.124852
394.146494	2638.134110
394.529801	2638.245016
394.913047	2634.325518
395.296230	2630.088429
395.679351	2621.697428
396.062410	2622.652727
396.445408	2606.498349
396.828343	2606.251333
397.211217	2598.964345
397.594028	2586.421954
397.976778	2583.803075
398.359466	2577.219328
398.742092	2569.821434
399.124656	2559.847512
399.507158	2557.281564
399.889598	2551.406099
400.271977	2544.570295
400.654294	2536.567463
401.036549	2531.664941
401.418742	2525.338293
401.800874	2520.002232
402.182944	2514.071314
402.564952	2517.650533
402.946898	2509.274656
403.328783	2501.171001
403.710606	2500.750065
404.092367	2495.585403
404.474067	2494.274703
404.855705	2487.292705
405.237282	2480.469503
405.618797	2480.489668
406.000250	2478.813484
406.381642	2476.058493
406.762972	2473.409367
407.144240	2467.826289
407.525447	2468.965590
407.906593	2460.143571
408.287677	2468.068265
408.668700	2464.466360
409.049661	2467.458285
409.430560	2463.253963
409.811399	2461.020732
410.192176	2462.270938
410.572891	2460.345217
410.953545	2462.880917
411.334138	2461.449230
411.714669	2459.331945
412.095139	2462.177676
412.475547	2459.425206
412.855894	2456.423199
413.236180	2459.556276
413.616405	2459.919239
413.996568	2458.553087
414.376670	2456.589557
414.756711	2459.977213
415.136691	2457.842284
415.516609	2457.438992
415.896466	2459.286575
416.276262	2458.870679
416.655997	2459.412603
417.035670	2460.287244
417.415283	2458.479990
417.794834	2460.899744
418.174324	2456.077880
418.553753	2458.016204
418.933121	2457.073508
419.312428	2459.029476
419.691674	2458.792542
420.070859	2459.952007
420.449983	2461.915536
420.829045	2459.359671
421.208047	2460.506534
421.586988	2458.268262
421.965867	2459.125258
422.344686	2458.220371
422.723444	2461.613067
423.102141	2460.640124
423.480777	2460.809003
423.859352	2458.961420
424.237866	2460.980402
424.616319	2459.079887
424.994712	2460.146091
425.373044	2458.900926
425.751314	2457.590226
426.129524	2456.418158
426.507673	2457.940587
426.885762	2455.707355
427.263789	2459.715073
427.641756	2459.198354
428.019662	2461.580300
428.397508	2459.750361
428.775292	2461.547532
429.153016	2463.059878
429.530679	2462.185238
429.908282	2462.696915
430.285824	2463.543829
430.663305	2461.461832
431.040726	2464.194138
431.418086	2461.769343
431.795385	2464.723459
432.172624	2463.858901
432.549802	2463.911833
432.926920	2462.260855
433.303977	2460.950155
433.680974	2462.253294
434.057910	2464.773871
434.434786	2464.824282
434.811601	2467.138172
435.188355	2465.610702
435.565050	2463.687502
435.941683	2466.881073
436.318257	2463.899230
436.694770	2461.509723
437.071222	2465.698922
437.447614	2466.603809
437.823946	2464.090794
438.200218	2466.258490
438.576429	2463.531226
438.952580	2464.204220
439.328670	2464.715897
439.704700	2464.610033
440.080670	2464.378140
440.456580	2465.913171
440.832429	2464.146247
441.208218	2465.066257
441.583947	2468.229582
441.959616	2467.478450
442.335224	2468.897534
442.710773	2464.214303
443.086261	2466.802935
443.461689	2467.226392
443.837057	2468.171608
444.212365	2471.990282
444.587612	2465.106587
444.962800	2463.531226
445.337927	2467.470888
445.712995	2462.223047
446.088002	2469.187401
446.462949	2468.627833
446.837837	2467.783439
447.212664	2468.917699
447.587431	2467.271762
447.962139	2469.308388
448.336786	2473.893318
448.711374	2470.273769
449.085901	2470.235961
449.460369	2472.214614
449.834776	2470.319140
450.209124	2468.683285
450.583412	2470.634212
450.957640	2469.865436
451.331808	2470.689665
451.705917	2472.517083
452.079965	2467.629684
452.453954	2471.193780
452.827883	2469.356279
453.201752	2468.922740
453.575562	2474.412557
453.949311	2471.667648
454.323001	2472.398616
454.696632	2473.641260
455.070202	2469.837710
455.443713	2473.051445
455.817164	2472.993472
456.190556	2471.367700
456.563888	2471.894500
456.937160	2473.636219
457.310373	2470.593883
457.683526	2471.576908
458.056619	2472.312916
458.429653	2470.503142
458.802628	2472.834676
459.175542	2471.854171
459.548398	2474.142855
459.921194	2472.880046
460.293930	2474.246199
460.666607	2478.236272
461.039224	2475.756024
461.411782	2472.834676
461.784280	2474.518421
462.156719	2473.333750
462.529099	2474.825931
462.901419	2473.124542
463.273680	2471.284521
463.645882	2469.683954
464.018024	2472.774182
464.390106	2469.200004
464.762130	2476.408854
465.134094	2476.716364
465.505999	2477.638895
465.877845	2478.337095
466.249631	2478.455562
466.621358	2480.580408
466.993026	2479.347846
467.364634	2480.081334
467.736184	2477.701910
468.107674	2478.039667
468.479105	2477.023874
468.850477	2475.720736
469.221790	2478.964719
469.593043	2477.253247
469.964238	2477.084368
470.335373	2477.890953
470.706449	2475.745942
471.077467	2478.082517
471.448425	2478.727784
471.819324	2480.373721
472.190164	2481.263485
472.560945	2476.318113
472.931667	2477.338947
473.302330	2475.619913
473.672934	2476.764255
474.043479	2476.212249
474.413965	2475.135962
474.784393	2475.057824
475.154761	2479.892291
475.525070	2477.966570
475.895321	2477.217959
476.265513	2475.294759
476.635645	2477.815336
477.005719	2475.161168
477.375734	2477.724595
477.745691	2479.352888
478.115588	2479.252064
478.485427	2481.134935
478.855207	2478.140490
479.224928	2481.432363
479.594591	2482.450677
479.964194	2479.557054
480.333739	2480.741725
480.703226	2481.366828
481.072653	2482.501088
481.442022	2482.291880
481.811333	2479.332723
482.180584	2476.176961
482.549777	2479.713330
482.918912	2476.192084
483.287988	2479.738536
483.657005	2478.364821
484.025964	2481.626448
484.394864	2479.914976
484.763706	2481.034112
485.132489	2476.880202
485.501213	2482.198619
485.869879	2482.107878
486.238487	2480.371201
486.607036	2480.986221
486.975527	2480.472024
487.343959	2478.717702
487.712333	2481.185347
488.080648	2483.317755
488.448905	2480.414050
488.817104	2483.398413
489.185244	2481.719709
489.553326	2482.811119
489.921350	2483.153918
490.289315	2484.308342
490.657222	2482.574185
491.025070	2484.487303
491.392861	2484.086531
491.760593	2481.253402
492.128267	2483.272385
492.495883	2482.924545
492.863440	2482.851448
493.230939	2482.876654
493.598380	2484.673825
493.965763	2479.022692
494.333088	2482.453197
494.700354	2480.683752
495.067563	2481.550831
495.434713	2480.928248
495.801805	2481.828094
496.168839	2486.128198
496.535815	2482.256592
496.902733	2481.084524
497.269593	2482.062508
497.636395	2481.742394
498.003139	2484.081490
498.369825	2480.880357
498.736453	2479.839359
499.103023	2481.238279
499.469535	2484.305821
499.835989	2482.007055
500.202385	2480.383803
500.568723	2475.652681
500.935003	2478.276601
501.301226	2476.776858
501.667390	2483.645430
502.033497	2481.439925
502.399546	2483.877323
502.765537	2480.945892
503.131470	2479.851962
503.497345	2483.194247
503.863163	2480.933289
504.228923	2483.302632
504.594625	2482.619555
504.960269	2482.977477
505.325856	2479.816674
505.691385	2483.741212
506.056856	2479.136118
506.422270	2483.940337
506.787625	2484.358753
507.152924	2481.891108
507.518164	2482.312045
507.883347	2482.319607
508.248472	2481.833135
508.613540	2483.627786
508.978550	2483.826912
509.343503	2481.581077
509.708398	2483.592498
510.073236	2480.915645
510.438016	2485.533342
510.802738	2481.651654
511.167403	2482.748105
511.532010	2481.772641
511.896561	2486.264309
512.261053	2485.447643
512.625488	2483.070738
512.989866	2483.617704
513.354186	2485.145173
513.718449	2485.004021
514.082655	2483.584936
514.446803	2482.017137
514.810894	2482.997642
515.174927	2484.202477
515.538904	2485.051912
515.902822	2483.572333
516.266684	2484.141984
516.630488	2483.100985
516.994235	2483.509319
517.357925	2483.600060
517.721558	2482.143166
518.085133	2481.339102
518.448651	2481.850779
518.812112	2480.676190
519.175516	2480.603094
519.538863	2480.696355
519.902152	2481.477734
520.265385	2483.436222
520.628560	2483.839514
520.991678	2485.263640
521.354739	2484.149545
521.717743	2487.605256
522.080690	2480.487147
522.443580	2484.439412
522.806413	2484.033599
523.169189	2483.108547
523.531908	2484.315903
523.894569	2485.833291
524.257174	2488.106851
524.619722	2484.013434
524.982213	2483.743733
525.344647	2482.947230
525.707025	2485.606439
526.069345	2483.617704
526.431608	2485.379587
526.793815	2484.386480
527.155964	2484.215080
527.518057	2484.678867
527.880093	2484.910760
528.242072	2483.232055
528.603995	2485.734988
528.965860	2482.979998
529.327669	2483.915132
529.689421	2482.153248
530.051117	2485.951758
530.412755	2485.366984
530.774337	2483.587457
531.135862	2481.472693
531.497331	2483.698362
531.858743	2483.020327
532.220098	2482.488485
532.581396	2483.403455
532.942638	2482.705255
533.303824	2485.588795
533.664953	2486.634834
534.026025	2485.929073
534.387040	2483.763897
534.747999	2484.799854
535.108902	2481.666777
535.469748	2483.000162
535.830537	2483.070738
536.191270	2483.186685
536.551947	2482.175934
536.912567	2478.785758
537.273131	2482.019658
537.633638	2476.791981
537.994089	2482.216263
538.354483	2482.138125
538.714821	2484.898157
539.075103	2483.537045
539.435328	2482.682570
539.795497	2487.201964
540.155609	2485.624083
540.515665	2484.323465
540.875665	2482.755666
541.235609	2486.266830
541.595496	2485.248517
541.955328	2485.992087
542.315102	2484.240286
542.674821	2481.402117
543.034483	2485.714824
543.394090	2483.204329
543.753640	2485.702221
544.113134	2485.397231
544.472571	2482.004534
544.831953	2485.379587
545.191278	2483.945379
545.550548	2484.517550
545.909761	2484.988897
546.268918	2481.828094
546.628019	2484.356233
546.987064	2485.883702
547.346053	2485.964361
547.704986	2482.072590
548.063863	2486.513847
548.422684	2483.400934
548.781449	2481.800368
549.140158	2484.278095
549.498811	2481.737353
549.857408	2484.860348
550.215949	2484.220122
550.574434	2483.857158
550.932864	2485.929073
551.291237	2486.360091
551.649555	2484.628455
552.007817	2485.354381
552.366022	2484.613332
552.724173	2483.836994
553.082267	2483.131232
553.440305	2486.163486
553.798288	2488.421923
554.156215	2485.979484
554.514086	2480.227528
554.871902	2480.300624
555.229661	2481.888588
555.587365	2477.646457
555.945014	2485.944196
556.302606	2484.278095
556.660143	2479.854482
557.017625	2485.432519
557.375050	2484.522591
557.732421	2483.201808
558.089735	2485.165338
558.446994	2485.009062
558.804197	2485.878661
559.161345	2484.772128
559.518437	2485.107365
559.875474	2483.010245
560.232455	2486.213898
560.589381	2483.579895
560.946251	2484.865389
561.303065	2486.566779
561.659825	2485.281284
562.016528	2486.463435
562.373177	2486.672643
562.729770	2486.392859
563.086307	2482.543938
563.442789	2487.103662
563.799216	2489.546101
564.155587	2485.122488
564.511904	2486.705410
564.868164	2486.027375
565.224370	2485.442601
565.580520	2488.288333
565.936615	2485.213229
566.292654	2483.990749
566.648638	2488.268168
567.004567	2487.189361
567.360441	2485.916470
567.716260	2486.286995
568.072023	2485.445122
568.427732	2485.757673
568.783385	2484.250368
569.138982	2486.256748
569.494525	2483.698362
569.850013	2486.881851
570.205445	2486.740698
570.560823	2486.793631
570.916145	2483.955461
571.271412	2486.370174
571.626625	2484.126860
571.981782	2487.131388
572.336884	2480.469503
572.691931	2480.877837
573.046923	2480.542600
573.401860	2479.093268
573.756743	2485.245996
574.111570	2484.078969
574.466342	2482.228866
574.821059	2483.060656
575.175722	2483.312714
575.530330	2486.176089
575.884882	2487.935452
576.239380	2481.369349
576.593823	2486.750781
576.948211	2484.532673
577.302544	2485.140132
577.656823	2483.640389
578.011047	2485.561068
578.365216	2484.693990
578.719330	2483.794144
579.073389	2483.199288
579.427394	2485.117447
579.781344	2482.964874
580.135239	2484.711634
580.489080	2484.207519
580.842866	2483.756335
581.196597	2486.775987
581.550273	2483.441263
581.903895	2483.476551
582.257463	2485.903867
582.610975	2484.731799
582.964434	2485.767756
583.317837	2483.191726
583.671186	2486.972592
584.024481	2483.738691
584.377721	2484.825060
584.730906	2483.423619
585.084037	2483.151397
585.437113	2484.406644
585.790135	2485.979484
586.143103	2484.298259
586.496016	2486.430667
586.848874	2482.821201
587.201679	2486.372694
587.554428	2486.163486
587.907124	2486.453353
588.259765	2485.130050
588.612352	2486.080307
588.964884	2482.967395
589.317362	2484.210039
589.669786	2485.654330
590.022155	2481.573516
590.374470	2483.161479
590.726731	2482.554020
591.078937	2481.134935
591.431090	2482.301962
591.783188	2483.048053
592.135232	2485.913949
592.487222	2486.599546
592.839157	2484.736840
593.191038	2483.791623
593.542866	2484.446973
593.894639	2484.898157
594.246358	2485.472848
594.598022	2480.734164
594.949633	2481.787765
595.301190	2484.008393
595.652692	2484.288177
596.004141	2483.743733
596.355535	2484.106696
596.706876	2483.814309
597.058162	2480.779534
597.409395	2482.569144
597.760573	2485.498054
598.111698	2481.780203
598.462768	2482.208701
598.813785	2481.946561
599.164748	2485.593836
599.515657	2485.661892
599.866511	2483.826912
600.217312	2480.139308
600.568060	2483.479072
600.918753	2487.844711
601.269392	2481.381952
601.619978	2484.492344
601.970510	2483.879844
602.320988	2482.281798
602.671412	2484.240286
603.021783	2483.032930
603.372100	2482.455718
603.722363	2483.917652
604.072572	2483.405975
604.422728	2483.640389
604.772830	2484.159628
605.122878	2480.126705
605.472872	2482.632158
605.822813	2480.945892
606.172701	2482.276757
606.522534	2484.499906
606.872314	2486.113075
607.222041	2482.974957
607.571714	2480.988742
607.921333	2480.635861
608.270899	2480.161993
608.620411	2478.432877
608.969870	2482.937148
609.319276	2482.032261
609.668627	2482.911942
610.017926	2482.705255
610.367171	2487.511995
610.716362	2482.077631
611.065500	2483.733650
611.414585	2480.807260
611.763616	2483.484113
612.112594	2483.529483
612.461518	2484.426809
612.810389	2482.352374
613.159207	2484.391521
613.507971	2484.086531
613.856682	2485.200626
614.205340	2481.122333
614.553945	2484.386480
614.902496	2484.988897
615.250994	2484.968733
615.599439	2482.700214
615.947830	2483.443784
616.296169	2482.899339
616.644454	2483.965543
616.992686	2481.124853
617.340864	2484.141984
617.688990	2483.741212
618.037063	2482.117960
618.385082	2482.463279
618.733048	2485.419916
619.080961	2483.897488
619.428821	2481.578557
619.776628	2485.815647
620.124382	2482.707775
620.472083	2483.829432
620.819731	2482.007055
621.167326	2484.615852
621.514868	2482.415388
621.862357	2484.187354
622.209793	2482.896819
622.557176	2484.628455
622.904506	2480.898001
623.251783	2481.757518
623.599007	2483.012765
623.946179	2481.883547
624.293297	2482.707775
624.640363	2482.763228
624.987376	2478.863896
625.334336	2479.025212
625.681243	2479.254585
626.028097	2480.943372
626.374899	2482.813640
626.721647	2480.847590
627.068343	2482.417909
627.414987	2478.047229
627.761577	2482.143166
628.108115	2480.991263
628.454600	2480.048567
628.801032	2479.438587
629.147412	2483.582416
629.493739	2480.865234
629.840014	2483.463948
630.186236	2481.896150
630.532405	2480.829946
630.878521	2479.340285
631.224585	2482.896819
631.570597	2481.288691
631.916556	2481.258444
632.262462	2482.488485
632.608316	2482.107878
632.954117	2481.172744
633.299866	2481.986890
633.645562	2478.460603
633.991206	2481.742394
634.336797	2482.430512
634.682336	2481.228197
635.027823	2481.883547
635.373257	2479.617548
635.718639	2480.499750
636.063968	2478.160655
636.409245	2481.928917
636.754470	2481.790285
637.099642	2481.432363
637.444762	2480.421612
637.789829	2480.295583
638.134845	2480.923207
638.479808	2480.509832
638.824719	2482.548979
639.169577	2482.864051
639.514383	2482.201139
639.859137	2483.206850
640.203839	2479.494040
640.548489	2480.051087
640.893086	2479.972949
641.237632	2481.208032
641.582125	2483.544607
641.926566	2480.721561
642.270955	2478.563947
642.615292	2477.903556
642.959576	2482.586788
643.303809	2473.737042
643.647990	2481.399596
643.992118	2480.376242
644.336195	2480.086375
