Dividing Wavelength (nm)	Counts (n)	Blue Motor Position (mm): 0.000000	Red Motor Position (mm): 20.500000	
326.493990	2054.912939
326.888308	2054.912939
327.282561	2054.912939
327.676750	2026.732889
328.070874	2028.088960
328.464933	2035.617923
328.858929	2043.386341
329.252859	2053.536704
329.646726	2064.024825
330.040528	2082.856055
330.434265	2098.055134
330.827938	2120.868876
331.221547	2139.841258
331.615091	2163.433858
332.008571	2184.049657
332.401986	2201.897862
332.795338	2220.918136
333.188625	2240.497977
333.581847	2259.639238
333.975006	2278.016765
334.368100	2293.664506
334.761129	2310.842238
335.154095	2325.688436
335.546996	2343.428256
335.939833	2361.107583
336.332606	2372.583770
336.725315	2386.938455
337.117960	2395.392470
337.510540	2404.890004
337.903056	2410.896539
338.295508	2419.955492
338.687896	2428.774991
339.080220	2432.573500
339.472480	2438.446445
339.864676	2440.926692
340.256807	2445.569595
340.648875	2444.223607
341.040879	2447.283587
341.432818	2450.126798
341.824694	2451.838270
342.216506	2448.654781
342.608253	2448.909359
342.999937	2450.023454
343.391557	2446.174533
343.783113	2445.466251
344.174605	2445.254523
344.566033	2443.865685
344.957397	2440.878801
345.348697	2441.934923
345.739934	2434.589962
346.131106	2438.338060
346.522215	2434.854623
346.913260	2435.716660
347.304241	2432.145002
347.695159	2432.114755
348.086012	2431.751792
348.476802	2425.548653
348.867528	2424.532860
349.258191	2422.138312
349.648789	2420.545307
350.039324	2418.221335
350.429796	2423.834660
350.820203	2420.056315
351.210548	2419.277457
351.600828	2418.644792
351.991045	2419.552200
352.381198	2420.187385
352.771288	2419.365677
353.161314	2421.508168
353.551276	2418.115471
353.941175	2418.748136
354.331010	2419.617735
354.720782	2418.886768
355.110490	2420.038671
355.500135	2418.763259
355.889717	2421.520771
356.279235	2421.198137
356.668689	2420.482293
357.058080	2423.144022
357.447408	2423.428847
357.836672	2421.669485
358.225873	2420.275606
358.615010	2423.312901
359.004084	2424.278282
359.393095	2425.435227
359.782043	2423.920360
360.170927	2425.956986
360.559748	2424.210226
360.948505	2422.271902
361.337199	2429.226174
361.725830	2428.328849
362.114398	2427.239960
362.502903	2425.997315
362.891344	2428.066709
363.279722	2430.471339
363.668037	2430.254570
364.056289	2428.417069
364.444478	2433.795980
364.832603	2431.071237
365.220665	2433.556525
365.608665	2429.291709
365.996601	2433.629622
366.384474	2434.511824
366.772284	2436.253543
367.160031	2432.306319
367.547715	2435.832606
367.935336	2434.915116
368.322893	2432.833120
368.710388	2427.552511
369.097820	2435.598193
369.485189	2433.919488
369.872495	2438.383430
370.259738	2434.973090
370.646918	2438.922834
371.034035	2438.867381
371.421090	2440.644388
371.808081	2442.716302
372.195010	2442.461724
372.581875	2442.875098
372.968678	2447.402054
373.355418	2444.626899
373.742096	2449.756273
374.128710	2450.179730
374.515262	2450.406582
374.901751	2454.484876
375.288177	2459.649538
375.674540	2462.908644
376.060841	2465.991309
376.447079	2471.564305
376.833254	2474.089923
377.219367	2478.682414
377.605417	2487.297746
377.991404	2489.445277
378.377329	2497.400218
378.763191	2506.028153
379.148991	2512.362363
379.534727	2521.428878
379.920402	2531.612009
380.306013	2537.613502
380.691563	2555.123950
381.077049	2562.073181
381.462474	2573.819069
381.847835	2587.263827
382.233134	2601.396702
382.618371	2614.186109
383.003545	2630.562297
383.388657	2643.959163
383.773706	2662.014056
384.158693	2679.050635
384.543618	2694.710980
384.928480	2708.488453
385.313280	2732.597772
385.698017	2748.767272
386.082692	2770.875253
386.467305	2788.257151
386.851856	2810.483598
387.236344	2840.425532
387.620770	2854.467666
388.005133	2876.883156
388.389435	2909.794329
388.773674	2924.675815
389.157851	2960.977164
389.541965	2985.207470
389.926018	3000.066271
390.310008	3030.325797
390.693936	3054.160372
391.077802	3085.355032
391.461606	3114.681945
391.845348	3129.991929
392.229027	3161.199192
392.612645	3203.580172
392.996200	3236.887076
393.379694	3270.327570
393.763125	3313.227789
394.146494	3339.225020
394.529801	3375.327243
394.913047	3420.311979
395.296230	3425.184254
395.679351	3451.136114
396.062410	3501.277951
396.445408	3482.628203
396.828343	3521.803009
397.211217	3555.646795
397.594028	3528.916077
397.976778	3579.236875
398.359466	3610.998665
398.742092	3621.300262
399.124656	3636.612767
399.507158	3695.289277
399.889598	3699.181048
400.271977	3766.969444
400.654294	3754.147269
401.036549	3813.206907
401.418742	3815.581291
401.800874	3884.922362
402.182944	3910.995209
402.564952	3993.720544
402.946898	3991.759535
403.328783	3984.255778
403.710606	4034.488355
404.092367	4106.060137
404.474067	4170.511289
404.855705	4155.120646
405.237282	4124.299032
405.618797	4220.958115
406.000250	4300.628511
406.381642	4383.747055
406.762972	4383.232858
407.144240	4351.120708
407.525447	4416.335594
407.906593	4435.103810
408.287677	4521.209238
408.668700	4540.907547
409.049661	4584.795832
409.430560	4615.080564
409.811399	4600.672947
410.192176	4651.339063
410.572891	4733.023400
410.953545	4839.462322
411.334138	4739.481118
411.714669	4847.369372
412.095139	4760.225466
412.475547	4870.881313
412.855894	4873.752250
413.236180	4981.534640
413.616405	4902.592692
413.996568	5004.348382
414.376670	5008.608157
414.756711	5003.753526
415.136691	5071.688115
415.516609	5159.363863
415.896466	5194.281415
416.276262	5272.822592
416.655997	5385.792329
417.035670	5477.017049
417.415283	5614.811948
417.794834	5683.926167
418.174324	5646.558614
418.553753	5646.354448
418.933121	5808.971988
419.312428	5817.315098
419.691674	5735.842490
420.070859	5961.005627
420.449983	5831.208518
420.829045	6023.500811
421.208047	5938.557369
421.586988	6089.176963
421.965867	6160.035422
422.344686	6230.286421
422.723444	6376.608432
423.102141	5987.665769
423.480777	6374.165993
423.859352	6171.365415
424.237866	6519.257963
424.616319	6495.146124
424.994712	6639.960830
425.373044	6536.670108
425.751314	6818.621843
426.129524	6536.591970
426.507673	6760.048676
426.885762	6782.822088
427.263789	6796.982690
427.641756	6848.188210
428.019662	6899.441621
428.397508	6903.706437
428.775292	6859.135075
429.153016	6980.889023
429.530679	6889.603809
429.908282	6901.548823
430.285824	6820.343397
430.663305	7026.151023
431.040726	6889.664303
431.418086	6857.746238
431.795385	6932.841786
432.172624	7051.709673
432.549802	6911.298415
432.926920	6981.259548
433.303977	6893.878708
433.680974	6876.098558
434.057910	6997.338308
434.434786	6992.987792
434.811601	6906.889926
435.188355	7120.949921
435.565050	6979.805175
435.941683	6937.419153
436.318257	7137.726881
436.694770	7047.182717
437.071222	7154.594582
437.447614	6932.531755
437.823946	6851.369178
438.200218	6901.911786
438.576429	6759.456340
438.952580	6808.852086
439.328670	6753.263283
439.704700	6745.167190
440.080670	6612.589885
440.456580	6722.421504
440.832429	6641.977291
441.208218	6413.328197
441.583947	6420.733652
441.959616	6426.772954
442.335224	6378.579523
442.710773	6363.524117
443.086261	6398.267750
443.461689	6171.811557
443.837057	6197.725608
444.212365	6247.875007
444.587612	6167.251833
444.962800	6040.227359
445.337927	6030.634044
445.712995	5732.593467
446.088002	5999.860320
446.462949	5955.034380
446.837837	5876.515888
447.212664	5808.886289
447.587431	6100.017965
447.962139	6464.067410
448.336786	6788.916843
448.711374	6620.759075
449.085901	6025.300503
449.460369	5897.540020
449.834776	5712.973296
450.209124	5972.358305
450.583412	5825.582590
450.957640	5861.321851
451.331808	5630.149659
451.705917	5342.771122
452.079965	5217.059868
452.453954	5201.749884
452.827883	5101.589719
453.201752	5011.297613
453.575562	4939.143578
453.949311	4962.164007
454.323001	4901.723092
454.696632	4798.601249
455.070202	4873.870718
455.443713	4811.594823
455.817164	4777.677940
456.190556	4767.182258
456.563888	4662.583357
456.937160	4637.972444
457.310373	4453.405719
457.683526	4376.603740
458.056619	4308.215447
458.429653	4241.344542
458.802628	4197.829302
459.175542	4136.102893
459.548398	4149.545130
459.921194	4168.404087
460.293930	4149.275428
460.666607	4206.855488
461.039224	4248.364348
461.411782	4213.207341
461.784280	4099.418417
462.156719	4011.964480
462.529099	3922.476437
462.901419	3775.199128
463.273680	3668.808096
463.645882	3620.680201
464.018024	3549.791495
464.390106	3520.890560
464.762130	3557.164183
465.134094	3629.469452
465.505999	3750.512597
465.877845	3852.767362
466.249631	3862.995863
466.621358	3754.968977
466.993026	3627.135398
467.364634	3517.175230
467.736184	3412.982142
468.107674	3330.322342
468.479105	3270.478805
468.850477	3212.654249
469.221790	3151.792399
469.593043	3086.390990
469.964238	3037.017929
470.335373	3004.200017
470.706449	2991.851711
471.077467	2986.876092
471.448425	3025.251876
471.819324	3046.694424
472.190164	3018.600073
472.560945	2954.388376
472.931667	2891.240363
473.302330	2856.965557
473.672934	2826.990857
474.043479	2812.883188
474.413965	2795.319808
474.784393	2774.217538
475.154761	2773.663011
475.525070	2759.968716
475.895321	2746.617220
476.265513	2746.072776
476.635645	2737.611199
477.005719	2729.691546
477.375734	2724.554611
477.745691	2723.866493
478.115588	2721.630741
478.485427	2726.737430
478.855207	2736.260170
479.224928	2748.177457
479.594591	2755.358581
479.964194	2743.925244
480.333739	2741.293762
480.703226	2737.875860
481.072653	2736.126579
481.442022	2736.716394
481.811333	2732.549881
482.180584	2721.958416
482.549777	2714.810060
482.918912	2705.620037
483.287988	2706.983669
483.657005	2699.605940
484.025964	2692.878520
484.394864	2689.349713
484.763706	2684.878209
485.132489	2678.246571
485.501213	2673.785150
485.869879	2671.788853
486.238487	2671.902279
486.607036	2666.508245
486.975527	2659.478356
487.343959	2661.895589
487.712333	2662.941628
488.080648	2659.866524
488.448905	2656.625062
488.817104	2654.132212
489.185244	2656.113385
489.553326	2660.060609
489.921350	2668.381033
490.289315	2678.917045
490.657222	2679.889987
491.025070	2683.023065
491.392861	2678.256654
491.760593	2672.229954
492.128267	2665.981444
492.495883	2657.121616
492.863440	2650.394196
493.230939	2643.911272
493.598380	2642.207362
493.965763	2639.485139
494.333088	2634.338121
494.700354	2630.431227
495.067563	2629.586834
495.434713	2627.777060
495.801805	2629.937194
496.168839	2623.819754
496.535815	2622.420834
496.902733	2625.566514
497.269593	2622.587192
497.636395	2622.375463
498.003139	2624.160032
498.369825	2621.200874
498.736453	2622.909826
499.103023	2619.194495
499.469535	2622.443519
499.835989	2620.132150
500.202385	2617.752725
500.568723	2615.746346
500.935003	2619.663322
501.301226	2614.357508
501.667390	2619.013014
502.033497	2619.484362
502.399546	2621.268930
502.765537	2617.619135
503.131470	2620.263220
503.497345	2619.547376
503.863163	2617.362036
504.228923	2619.383538
504.594625	2618.745832
504.960269	2617.019237
505.325856	2621.155504
505.691385	2617.760287
506.056856	2618.526542
506.422270	2620.472428
506.787625	2616.157200
507.152924	2623.476955
507.518164	2621.931842
507.883347	2617.210801
508.248472	2618.390431
508.613540	2621.704990
508.978550	2623.093828
509.343503	2619.900257
509.708398	2623.708848
510.073236	2621.780607
510.438016	2622.009980
510.802738	2620.943776
511.167403	2624.306225
511.532010	2625.178345
511.896561	2628.805455
512.261053	2628.737399
512.625488	2627.323356
512.989866	2625.039713
513.354186	2627.956021
513.718449	2625.642131
514.082655	2627.973665
514.446803	2629.347379
514.810894	2631.431896
515.174927	2631.084057
515.538904	2628.984416
515.902822	2628.003912
516.266684	2626.753705
516.630488	2630.620270
516.994235	2629.400311
517.357925	2632.871146
517.721558	2633.718059
518.085133	2637.201497
518.448651	2630.068264
518.812112	2627.013325
519.175516	2629.561628
519.538863	2628.434930
519.902152	2632.825775
520.265385	2633.034983
520.628560	2634.045734
520.991678	2635.873153
521.354739	2631.653707
521.717743	2634.902731
522.080690	2631.855353
522.443580	2631.794859
522.806413	2637.559419
523.169189	2635.570683
523.531908	2633.770992
523.894569	2634.325518
524.257174	2635.369037
524.619722	2634.554891
524.982213	2633.816362
525.344647	2635.653862
525.707025	2634.595220
526.069345	2634.776702
526.431608	2633.589510
526.793815	2633.004736
527.155964	2633.087915
527.518057	2631.719242
527.880093	2631.951135
528.242072	2630.726135
528.603995	2631.497431
528.965860	2629.559107
529.327669	2627.993829
529.689421	2629.848974
530.051117	2629.319653
530.412755	2629.057513
530.774337	2627.454426
531.135862	2626.526853
531.497331	2625.493417
531.858743	2627.451905
532.220098	2624.827985
532.581396	2621.397479
532.942638	2623.819754
533.303824	2622.229270
533.664953	2622.710700
534.026025	2620.651389
534.387040	2623.343365
534.747999	2622.688015
535.108902	2621.878910
535.469748	2620.628703
535.830537	2620.694238
536.191270	2619.713734
536.551947	2615.945472
536.912567	2614.188629
537.273131	2616.953702
537.633638	2613.339195
537.994089	2618.181223
538.354483	2614.927158
538.714821	2616.111830
539.075103	2619.726337
539.435328	2617.573764
539.795497	2614.213835
540.155609	2618.103085
540.515665	2617.692231
540.875665	2613.694596
541.235609	2612.651077
541.595496	2615.181737
541.955328	2614.758280
542.315102	2614.246603
542.674821	2612.056221
543.034483	2614.239041
543.394090	2613.805502
543.753640	2612.076386
544.113134	2614.954885
544.472571	2612.693927
544.831953	2614.803650
545.191278	2612.479678
545.550548	2610.198556
545.909761	2610.788371
546.268918	2612.673763
546.628019	2615.148969
546.987064	2611.007661
547.346053	2610.531272
547.704986	2613.674432
548.063863	2613.016561
548.422684	2612.046139
548.781449	2610.823659
549.140158	2611.380707
549.498811	2613.455142
549.857408	2607.173864
550.215949	2610.700151
550.574434	2610.314503
550.932864	2611.665532
551.291237	2614.551592
551.649555	2609.875922
552.007817	2610.102774
552.366022	2610.921962
552.724173	2610.536313
553.082267	2612.794750
553.440305	2616.283229
553.798288	2613.634102
554.156215	2611.990686
554.514086	2608.252671
554.871902	2608.058586
555.229661	2608.600510
555.587365	2605.976590
555.945014	2609.530603
556.302606	2611.637806
556.660143	2612.646036
557.017625	2611.133690
557.375050	2611.239554
557.732421	2610.848865
558.089735	2609.936416
558.446994	2611.292487
558.804197	2613.193002
559.161345	2611.821808
559.518437	2610.127980
559.875474	2611.201746
560.232455	2612.094030
560.589381	2608.751745
560.946251	2610.077568
561.303065	2609.722167
561.659825	2611.849534
562.016528	2610.190994
562.373177	2609.119749
562.729770	2611.645367
563.086307	2609.197887
563.442789	2610.690069
563.799216	2613.918928
564.155587	2608.446755
564.511904	2610.707713
564.868164	2611.841972
565.224370	2613.228290
565.580520	2611.506736
565.936615	2612.328444
566.292654	2609.722167
566.648638	2607.602362
567.004567	2609.029008
567.360441	2610.153186
567.716260	2608.953391
568.072023	2610.838783
568.427732	2611.554627
568.783385	2609.921293
569.138982	2609.641509
569.494525	2610.982456
569.850013	2610.160747
570.205445	2610.296859
570.560823	2610.856427
570.916145	2608.217383
571.271412	2610.367435
571.626625	2609.916252
571.981782	2608.726539
572.336884	2609.989348
572.691931	2605.948863
573.046923	2606.727722
573.401860	2604.348297
573.756743	2608.522372
574.111570	2606.354676
574.466342	2606.682351
574.821059	2608.053545
575.175722	2604.116404
575.530330	2604.870057
575.884882	2605.948863
576.239380	2605.187649
576.593823	2605.888370
576.948211	2605.411981
577.302544	2604.771754
577.656823	2605.195211
578.011047	2602.379727
578.365216	2603.030035
578.719330	2601.747062
579.073389	2601.043821
579.427394	2600.108687
579.781344	2600.096084
580.135239	2598.724890
580.489080	2599.702874
580.842866	2599.493666
581.196597	2601.976434
581.550273	2600.441403
581.903895	2597.242791
582.257463	2599.889397
582.610975	2598.069540
582.964434	2602.087340
583.317837	2596.332862
583.671186	2598.787904
584.024481	2599.811259
584.377721	2597.459560
584.730906	2595.748089
585.084037	2601.747062
585.437113	2598.500559
585.790135	2595.370002
586.143103	2595.803541
586.496016	2595.548963
586.848874	2596.365630
587.201679	2596.836978
587.554428	2595.158274
587.907124	2595.367482
588.259765	2595.647266
588.612352	2594.366812
588.964884	2594.697008
589.317362	2597.139447
589.669786	2595.289344
590.022155	2593.174580
590.374470	2591.165680
590.726731	2594.460074
591.078937	2587.727613
591.431090	2591.689960
591.783188	2591.085021
592.135232	2590.303642
592.487222	2592.090732
592.839157	2592.161308
593.191038	2589.144177
593.542866	2591.430340
593.894639	2586.711820
594.246358	2589.285329
594.598022	2586.563106
594.949633	2588.758529
595.301190	2588.756008
595.652692	2588.400607
596.004141	2588.733323
596.355535	2583.465317
596.706876	2586.323652
597.058162	2587.039495
597.409395	2586.605956
597.760573	2586.671491
598.111698	2584.120667
598.462768	2585.983374
598.813785	2584.319793
599.164748	2583.283836
599.515657	2585.469176
599.866511	2583.999680
600.217312	2583.649319
600.568060	2579.349215
600.918753	2586.288363
601.269392	2582.648650
601.619978	2582.250399
601.970510	2583.949268
602.320988	2580.811150
602.671412	2584.292067
603.021783	2581.534555
603.372100	2581.693352
603.722363	2581.761407
604.072572	2581.148907
604.422728	2583.349371
604.772830	2580.743094
605.122878	2581.554720
605.472872	2583.253589
605.822813	2583.964392
606.172701	2580.241499
606.522534	2579.802919
606.872314	2583.540935
607.222041	2580.506160
607.571714	2580.256623
607.921333	2577.277301
608.270899	2580.380131
608.620411	2578.030953
608.969870	2580.927096
609.319276	2580.594380
609.668627	2580.758218
610.017926	2581.763928
610.367171	2581.448856
610.716362	2582.215111
611.065500	2583.934145
611.414585	2581.312745
611.763616	2578.991293
612.112594	2580.705286
612.461518	2583.798033
612.810389	2582.721747
613.159207	2584.186202
613.507971	2583.309042
613.856682	2584.637386
614.205340	2581.441294
614.553945	2582.709144
614.902496	2581.915163
615.250994	2587.352047
615.599439	2583.009093
615.947830	2582.315934
616.296169	2580.735532
616.644454	2582.845255
616.992686	2583.185533
617.340864	2584.886923
617.688990	2583.379618
618.037063	2587.042016
618.385082	2584.942375
618.733048	2585.524629
619.080961	2585.985894
619.428821	2583.810636
619.776628	2584.072776
620.124382	2584.095462
620.472083	2586.142170
620.819731	2582.817529
621.167326	2584.740729
621.514868	2583.919021
621.862357	2583.145204
622.209793	2581.106057
622.557176	2580.738053
622.904506	2579.132446
623.251783	2579.364339
623.599007	2579.374421
623.946179	2578.310737
624.293297	2573.274625
624.640363	2574.998699
624.987376	2573.199007
625.334336	2569.173646
625.681243	2570.933009
626.028097	2569.143399
626.374899	2572.659604
626.721647	2573.587176
627.068343	2570.693554
627.414987	2570.948132
627.761577	2569.889490
628.108115	2570.834706
628.454600	2567.459654
628.801032	2570.887638
629.147412	2566.723645
629.493739	2566.869839
629.840014	2569.002247
630.186236	2568.462843
630.532405	2565.609550
630.878521	2570.723801
631.224585	2567.240364
631.570597	2567.499983
631.916556	2565.977555
632.262462	2567.747000
632.608316	2567.726835
632.954117	2563.726679
633.299866	2567.336146
633.645562	2566.937894
633.991206	2565.314643
634.336797	2561.695094
634.682336	2562.980589
635.027823	2561.533778
635.373257	2563.590568
635.718639	2560.664178
636.063968	2559.877758
636.409245	2557.538663
636.754470	2560.661658
637.099642	2559.212326
637.444762	2557.795762
637.789829	2559.892882
638.134845	2556.626214
638.479808	2557.974723
638.824719	2555.484393
639.169577	2554.226625
639.514383	2556.411965
639.859137	2554.541697
640.203839	2551.897612
640.548489	2554.778631
640.893086	2553.029351
641.237632	2552.883157
641.582125	2554.176213
641.926566	2551.574978
642.270955	2550.818805
642.615292	2549.432488
642.959576	2550.097920
643.303809	2546.571633
643.647990	2553.140256
643.992118	2550.972560
644.336195	2553.014228
