Dividing Wavelength (nm)	Counts (n)	Blue Motor Position (mm): 0.000000	Red Motor Position (mm): 28.000000	
326.493990	2051.510161
326.888308	2051.510161
327.282561	2051.510161
327.676750	2025.558301
328.070874	2028.313291
328.464933	2032.810000
328.858929	2040.533048
329.252859	2052.926725
329.646726	2063.157747
330.040528	2081.252968
330.434265	2096.779722
330.827938	2120.198402
331.221547	2140.907462
331.615091	2155.582261
332.008571	2179.832732
332.401986	2201.771833
332.795338	2221.366798
333.188625	2239.951012
333.581847	2258.550349
333.975006	2277.333688
334.368100	2291.854732
334.761129	2312.820891
335.154095	2325.832109
335.546996	2344.638133
335.939833	2365.722759
336.332606	2377.579553
336.725315	2393.194527
337.117960	2400.864643
337.510540	2413.323854
337.903056	2420.320976
338.295508	2429.120310
338.687896	2432.530651
339.080220	2438.325457
339.472480	2444.531117
339.864676	2448.153186
340.256807	2450.714092
340.648875	2452.927159
341.040879	2452.513784
341.432818	2453.148970
341.824694	2454.807509
342.216506	2455.828343
342.608253	2454.920935
342.999937	2456.019907
343.391557	2454.116871
343.783113	2452.745678
344.174605	2452.493620
344.566033	2449.768876
344.957397	2450.015893
345.348697	2447.848197
345.739934	2449.915070
346.131106	2445.249482
346.522215	2442.146652
346.913260	2440.785540
347.304241	2439.968873
347.695159	2439.825200
348.086012	2436.465271
348.476802	2435.083995
348.867528	2427.555032
349.258191	2428.059147
349.648789	2428.470001
350.039324	2424.714342
350.429796	2427.038313
350.820203	2426.919846
351.210548	2426.224167
351.600828	2428.059147
351.991045	2427.217274
352.381198	2423.728796
352.771288	2427.555032
353.161314	2428.104518
353.551276	2425.402459
353.941175	2428.064188
354.331010	2425.838519
354.720782	2425.972109
355.110490	2428.303643
355.500135	2427.481935
355.889717	2425.916657
356.279235	2426.118303
356.668689	2427.693663
357.058080	2427.502100
357.447408	2430.234405
357.836672	2428.855649
358.225873	2429.054775
358.615010	2432.858326
359.004084	2430.221802
359.393095	2429.778181
359.782043	2432.117276
360.170927	2433.276741
360.559748	2433.027204
360.948505	2432.074426
361.337199	2436.152720
361.725830	2433.601896
362.114398	2438.224634
362.502903	2433.914447
362.891344	2439.134562
363.279722	2437.912082
363.668037	2439.174891
364.056289	2438.406115
364.444478	2436.258584
364.832603	2436.069541
365.220665	2440.084820
365.608665	2439.714295
365.996601	2439.915941
366.384474	2438.247319
366.772284	2440.755293
367.160031	2442.305448
367.547715	2441.728236
367.935336	2442.663370
368.322893	2440.785540
368.710388	2438.300251
369.097820	2441.125818
369.485189	2438.983328
369.872495	2445.214194
370.259738	2442.590273
370.646918	2447.021447
371.034035	2445.584718
371.421090	2446.383741
371.808081	2445.176385
372.195010	2448.521191
372.581875	2450.845163
372.968678	2451.129988
373.355418	2452.818774
373.742096	2459.921760
374.128710	2458.210288
374.515262	2460.496452
374.901751	2463.352265
375.288177	2468.337966
375.674540	2467.599437
376.060841	2474.624285
376.447079	2477.064204
376.833254	2484.394041
377.219367	2487.511995
377.605417	2497.100270
377.991404	2498.569766
378.377329	2505.753410
378.763191	2510.058556
379.148991	2522.076666
379.534727	2533.157122
379.920402	2540.497042
380.306013	2549.261088
380.691563	2561.306926
381.077049	2572.515931
381.462474	2579.578588
381.847835	2596.322780
382.233134	2610.044801
382.618371	2620.399331
383.003545	2638.726446
383.388657	2654.633807
383.773706	2670.636950
384.158693	2685.594053
384.543618	2704.326981
384.928480	2714.086655
385.313280	2737.858216
385.698017	2758.310177
386.082692	2782.084258
386.467305	2797.442133
386.851856	2817.977274
387.236344	2850.422140
387.620770	2865.855632
388.005133	2882.430946
388.389435	2918.449990
388.773674	2932.028338
389.157851	2963.850622
389.541965	2993.222905
389.926018	3004.250429
390.310008	3036.271838
390.693936	3066.546488
391.077802	3091.923656
391.461606	3122.594036
391.845348	3142.277221
392.229027	3169.955676
392.612645	3211.588045
392.996200	3241.066192
393.379694	3278.902573
393.763125	3325.631548
394.146494	3345.216431
394.529801	3381.442163
394.913047	3426.353802
395.296230	3433.857560
395.679351	3457.263637
396.062410	3507.871780
396.445408	3488.178513
396.828343	3532.026469
397.211217	3559.818350
397.594028	3537.780946
397.976778	3583.632761
398.359466	3619.621558
398.742092	3629.847539
399.124656	3641.250629
399.507158	3707.428376
399.889598	3708.653376
400.271977	3772.892800
400.654294	3765.479783
401.036549	3824.821726
401.418742	3818.379131
401.800874	3889.308166
402.182944	3921.264040
402.564952	4004.395187
402.946898	3998.368488
403.328783	3991.323475
403.710606	4042.281979
404.092367	4111.960808
404.474067	4180.092002
404.855705	4159.821522
405.237282	4132.942090
405.618797	4232.313314
406.000250	4307.023214
406.381642	4391.046646
406.762972	4390.335843
407.144240	4362.629662
407.525447	4426.034774
407.906593	4441.674954
408.287677	4522.346019
408.668700	4548.953229
409.049661	4592.115588
409.430560	4626.967605
409.811399	4612.912868
410.192176	4663.301721
410.572891	4742.576386
410.953545	4850.550340
411.334138	4745.011263
411.714669	4856.413202
412.095139	4770.259882
412.475547	4884.626019
412.855894	4886.554261
413.236180	4985.928006
413.616405	4914.257922
413.996568	5022.637688
414.376670	5019.411350
414.756711	5017.331874
415.136691	5086.491463
415.516609	5173.693343
415.896466	5206.738106
416.276262	5289.692813
416.655997	5399.834463
417.035670	5493.456252
417.415283	5634.711903
417.794834	5709.885589
418.174324	5669.526111
418.553753	5670.415875
418.933121	5837.857800
419.312428	5854.778433
419.691674	5774.145177
420.070859	6001.052553
420.449983	5876.089911
420.829045	6077.090797
421.208047	5998.620196
421.586988	6161.300751
421.965867	6236.547534
422.344686	6316.467467
422.723444	6487.607078
423.102141	6098.331699
423.480777	6493.956411
423.859352	6307.151414
424.237866	6675.687487
424.616319	6668.541651
424.994712	6837.715213
425.373044	6748.333034
425.751314	7064.332722
426.129524	6778.663137
426.507673	7047.550721
426.885762	7095.371106
427.263789	7129.146837
427.641756	7220.253090
428.019662	7303.595966
428.397508	7344.862851
428.775292	7319.752864
429.153016	7498.028229
429.530679	7427.477281
429.908282	7477.853531
430.285824	7418.874552
430.663305	7702.341153
431.040726	7587.937208
431.418086	7588.597599
431.795385	7731.940288
432.172624	7917.230418
432.549802	7796.600648
432.926920	7933.646935
433.303977	7877.067545
433.680974	7914.276302
434.057910	8124.187427
434.434786	8173.953698
434.811601	8129.374775
435.188355	8468.160478
435.565050	8358.200309
435.941683	8365.570476
436.318257	8705.538330
436.694770	8655.025968
437.071222	8882.525680
437.447614	8661.307246
437.823946	8626.296433
438.200218	8777.551213
438.576429	8655.179724
438.952580	8824.081063
439.328670	8828.855035
439.704700	8903.829596
440.080670	8794.849932
440.456580	9070.180111
440.832429	9043.643477
441.208218	8779.723950
441.583947	8897.545798
441.959616	9012.852110
442.335224	9046.486688
442.710773	9131.200758
443.086261	9312.757914
443.461689	9025.515488
443.837057	9197.819606
444.212365	9406.735104
444.587612	9389.869923
444.962800	9286.992576
445.337927	9418.604500
445.712995	8964.149522
446.088002	9635.696750
446.462949	9685.909163
446.837837	9674.435496
447.212664	9700.924239
447.587431	10521.800526
447.962139	11527.162878
448.336786	12483.200061
448.711374	12266.483378
449.085901	11049.753006
449.460369	10982.645166
449.834776	10744.644732
450.209124	11656.589462
450.583412	11474.825619
450.957640	11794.074331
451.331808	11380.896320
451.705917	10809.670575
452.079965	10679.785246
452.453954	10881.849816
452.827883	10826.765128
453.201752	10798.953082
453.575562	10795.089037
453.949311	11142.260700
454.323001	11214.513038
454.696632	11112.202820
455.070202	11698.821729
455.443713	11754.080337
455.817164	11920.889597
456.190556	12228.228582
456.563888	12094.990886
456.937160	12343.295439
457.310373	11832.709734
457.683526	11840.440343
458.056619	11848.173473
458.429653	11906.063563
458.802628	12032.092409
459.175542	12072.940879
459.548398	12595.804315
459.921194	13160.259790
460.293930	13411.301690
460.666607	14241.302465
461.039224	15004.152550
461.411782	15353.907804
461.784280	15013.022461
462.156719	14948.231031
462.529099	14859.065622
462.901419	14201.994068
463.273680	13795.130103
463.645882	13979.893432
464.018024	13836.828007
464.390106	14151.073373
464.762130	15140.170443
465.134094	16548.497428
465.505999	18686.811217
465.877845	20812.481792
466.249631	22002.453719
466.621358	21547.691230
466.993026	20757.477762
467.364634	20003.185036
467.736184	19189.958700
468.107674	18543.312252
468.479105	18358.319550
468.850477	18036.235190
469.221790	17573.033810
469.593043	16900.440543
469.964238	16491.807133
470.335373	16483.721122
470.706449	17063.002631
471.077467	17768.436494
471.448425	19967.468461
471.819324	21603.582503
472.190164	21464.139147
472.560945	19826.411935
472.931667	18325.022729
473.302330	17940.733051
473.672934	17359.435080
474.043479	17663.184764
474.413965	17387.179070
474.784393	17146.653017
475.154761	17654.836613
475.525070	17677.186569
475.895321	17446.586548
476.265513	17810.215057
476.635645	18247.714114
477.005719	18187.434517
477.375734	18410.054391
477.745691	18840.316872
478.115588	19254.601416
478.485427	20111.209401
478.855207	21462.389866
479.224928	22793.085603
479.594591	23825.009795
479.964194	23416.252877
480.333739	23669.933821
480.703226	23690.332850
481.072653	23858.556153
481.442022	24108.887251
481.811333	24253.583489
482.180584	23758.000258
482.549777	23406.132760
482.918912	23059.840779
483.287988	22835.373322
483.657005	22547.629302
484.025964	22106.876180
484.394864	22072.591292
484.763706	21835.868790
485.132489	21273.376844
485.501213	21125.073659
485.869879	21069.245401
486.238487	20846.048315
486.607036	20839.220072
486.975527	20418.258520
487.343959	20472.501335
487.712333	20514.887357
488.080648	20292.138933
488.448905	20364.325735
488.817104	20078.409133
489.185244	20402.918289
489.553326	20765.878845
489.921350	21696.992563
490.289315	23024.330892
490.657222	23348.580428
491.025070	23445.799079
491.392861	23037.916801
491.760593	22324.623779
492.128267	21475.995940
492.495883	20654.847432
492.863440	19889.766636
493.230939	19090.229553
493.598380	18534.081899
493.965763	18194.436680
494.333088	17666.930341
494.700354	17319.398236
495.067563	17060.245120
495.434713	16770.656037
495.801805	16682.987851
496.168839	16354.375197
496.535815	16059.303859
496.902733	15876.413318
497.269593	15556.027827
497.636395	15404.223561
498.003139	15292.960254
498.369825	14962.983968
498.736453	14901.880142
499.103023	14602.846457
499.469535	14417.216049
499.835989	14227.545156
500.202385	13954.390235
500.568723	13744.751332
500.935003	13628.961069
501.301226	13351.561497
501.667390	13396.258887
502.033497	13247.315476
502.399546	12946.535032
502.765537	12572.564596
503.131470	12503.132784
503.497345	12431.795416
503.863163	11872.386135
504.228923	11893.556461
504.594625	11798.099692
504.960269	11435.776842
505.325856	11411.952348
505.691385	11104.394073
506.056856	10987.184725
506.422270	10915.421380
506.787625	10581.949053
507.152924	10493.479323
507.518164	10340.150109
507.883347	10035.823213
508.248472	9868.146874
508.613540	9841.340538
508.978550	9696.102376
509.343503	9472.315474
509.708398	9358.183751
510.073236	9288.275550
510.438016	9120.344633
510.802738	8877.865133
511.167403	8795.585941
511.532010	8666.255139
511.896561	8584.895957
512.261053	8545.204432
512.625488	8335.232813
512.989866	8142.784244
513.354186	7986.163156
513.718449	7813.730488
514.082655	7785.920963
514.446803	7579.795744
514.810894	7512.161103
515.174927	7353.858790
515.538904	7203.894546
515.902822	7146.558982
516.266684	6957.994623
516.630488	6856.848912
516.994235	6713.992694
517.357925	6646.831922
517.721558	6544.514143
518.085133	6447.300533
518.448651	6339.319017
518.812112	6199.432039
519.175516	6097.656184
519.538863	6012.233832
519.902152	5904.726185
520.265385	5830.056614
520.628560	5722.148196
520.991678	5605.367346
521.354739	5518.467936
521.717743	5433.501809
522.080690	5324.123894
522.443580	5280.442296
522.806413	5181.204662
523.169189	5091.625878
523.531908	5012.699053
523.894569	4916.770937
524.257174	4837.292105
524.619722	4767.371301
524.982213	4698.783883
525.344647	4623.486688
525.707025	4547.539185
526.069345	4495.464066
526.431608	4416.592693
526.793815	4364.167214
527.155964	4275.160602
527.518057	4218.119946
527.880093	4150.392044
528.242072	4112.659007
528.603995	4040.174777
528.965860	3980.888287
529.327669	3934.106379
529.689421	3885.600397
530.051117	3834.410000
530.412755	3791.156900
530.774337	3747.530755
531.135862	3698.492931
531.497331	3659.613032
531.858743	3620.057618
532.220098	3588.804985
532.581396	3548.886608
532.942638	3508.262470
533.303824	3476.157882
533.664953	3444.083540
534.026025	3408.243457
534.387040	3388.996332
534.747999	3360.423072
535.108902	3340.999506
535.469748	3301.943166
535.830537	3283.026237
536.191270	3263.542177
536.551947	3234.638721
536.912567	3216.392265
537.273131	3198.334852
537.633638	3174.119669
537.994089	3160.508554
538.354483	3139.270173
538.714821	3133.533340
539.075103	3123.264509
539.435328	3107.649535
539.795497	3091.364088
540.155609	3075.313054
540.515665	3071.491859
540.875665	3049.945968
541.235609	3043.029505
541.595496	3034.086498
541.955328	3030.769419
542.315102	3011.786954
542.674821	3003.400994
543.034483	2991.597133
543.394090	2981.779486
543.753640	2975.667087
544.113134	2976.997951
544.472571	2962.449181
544.831953	2963.512865
545.191278	2951.540124
545.550548	2941.326747
545.909761	2938.319698
546.268918	2933.364244
546.628019	2934.753082
546.987064	2925.673964
547.346053	2908.017323
547.704986	2914.079310
548.063863	2905.151427
548.422684	2899.412073
548.781449	2890.723644
549.140158	2889.745660
549.498811	2883.484547
549.857408	2872.242774
550.215949	2873.964328
550.574434	2871.375696
550.932864	2864.602906
551.291237	2864.925539
551.649555	2862.495703
552.007817	2857.194930
552.366022	2851.556399
552.724173	2846.331243
553.082267	2842.570543
553.440305	2842.409226
553.798288	2836.932012
554.156215	2832.551249
554.514086	2831.127123
554.871902	2820.744867
555.229661	2821.841318
555.587365	2810.014771
555.945014	2815.983497
556.302606	2810.256747
556.660143	2808.386478
557.017625	2806.072589
557.375050	2801.275931
557.732421	2801.333904
558.089735	2798.336938
558.446994	2796.811989
558.804197	2798.599078
559.161345	2789.835032
559.518437	2783.979732
559.875474	2783.571399
560.232455	2782.656429
560.589381	2782.749691
560.946251	2777.751387
561.303065	2775.732404
561.659825	2775.535799
562.016528	2769.930036
562.373177	2764.286465
562.729770	2763.656320
563.086307	2760.029210
563.442789	2759.638521
563.799216	2760.402256
564.155587	2757.143150
564.511904	2755.091400
564.868164	2752.843045
565.224370	2753.884044
565.580520	2750.060328
565.936615	2750.219125
566.292654	2744.386510
566.648638	2742.939699
567.004567	2744.114287
567.360441	2742.339801
567.716260	2739.836868
568.072023	2741.318968
568.427732	2737.709502
568.783385	2734.178173
569.138982	2737.031466
569.494525	2734.357134
569.850013	2729.958727
570.205445	2730.800600
570.560823	2727.130640
570.916145	2724.158880
571.271412	2726.820609
571.626625	2726.792883
571.981782	2721.998746
572.336884	2721.492110
572.691931	2717.673436
573.046923	2719.911708
573.401860	2712.145810
573.756743	2716.967674
574.111570	2716.682849
574.466342	2715.077241
574.821059	2713.002807
575.175722	2714.348795
575.530330	2710.474668
575.884882	2709.738659
576.239380	2707.137424
576.593823	2706.310675
576.948211	2705.947712
577.302544	2702.391178
577.656823	2701.907227
578.011047	2703.419573
578.365216	2702.827237
578.719330	2700.029397
579.073389	2698.759026
579.427394	2699.144675
579.781344	2694.186700
580.135239	2696.886238
580.489080	2696.785415
580.842866	2692.979343
581.196597	2693.266689
581.550273	2692.596216
581.903895	2693.455732
582.257463	2695.688964
582.610975	2690.461287
582.964434	2690.544466
583.317837	2688.941379
583.671186	2689.609332
584.024481	2689.316945
584.377721	2686.491378
584.730906	2688.603622
585.084037	2687.890299
585.437113	2687.043385
585.790135	2686.806451
586.143103	2686.196471
586.496016	2685.894002
586.848874	2685.737726
587.201679	2684.658919
587.554428	2683.925431
587.907124	2684.159845
588.259765	2679.685821
588.612352	2684.598425
588.964884	2679.166582
589.317362	2682.231603
589.669786	2680.676407
590.022155	2677.455110
590.374470	2677.752538
590.726731	2675.862106
591.078937	2671.728359
591.431090	2676.207425
591.783188	2676.280521
592.135232	2673.611230
592.487222	2673.286076
592.839157	2675.637774
593.191038	2673.296158
593.542866	2671.753565
593.894639	2671.861950
594.246358	2673.681807
594.598022	2669.260715
594.949633	2667.763492
595.301190	2669.182577
595.652692	2666.014212
596.004141	2666.777946
596.355535	2664.055723
596.706876	2663.274344
597.058162	2663.181083
597.409395	2662.490445
597.760573	2664.680826
598.111698	2660.552121
598.462768	2661.764519
598.813785	2661.351144
599.164748	2659.755619
599.515657	2661.769560
599.866511	2659.150681
600.217312	2659.523726
600.568060	2655.284116
600.918753	2661.822492
601.269392	2660.363078
601.619978	2655.538694
601.970510	2658.707059
602.320988	2659.836277
602.671412	2659.773263
603.021783	2658.651606
603.372100	2656.385608
603.722363	2657.708911
604.072572	2658.709580
604.422728	2659.458191
604.772830	2656.483910
605.122878	2655.949548
605.472872	2654.475010
605.822813	2654.825371
606.172701	2657.066163
606.522534	2657.945845
606.872314	2658.245793
607.222041	2656.325114
607.571714	2658.157573
607.921333	2652.171203
608.270899	2656.867038
608.620411	2651.006697
608.969870	2656.861997
609.319276	2656.927532
609.668627	2656.370484
610.017926	2658.218067
610.367171	2657.313180
610.716362	2660.443737
611.065500	2657.441729
611.414585	2658.838129
611.763616	2655.425268
612.112594	2657.703869
612.461518	2657.842501
612.810389	2661.439364
613.159207	2657.819816
613.507971	2658.457522
613.856682	2660.582368
614.205340	2658.757471
614.553945	2661.449447
614.902496	2658.644045
615.250994	2661.083963
615.599439	2661.779642
615.947830	2660.481545
616.296169	2659.740496
616.644454	2660.416010
616.992686	2662.515651
617.340864	2663.276865
617.688990	2660.715959
618.037063	2665.497493
618.385082	2661.825013
618.733048	2667.002278
619.080961	2665.230312
619.428821	2663.511279
619.776628	2663.478511
620.124382	2663.602019
620.472083	2663.105466
620.819731	2664.970693
621.167326	2661.144457
621.514868	2661.618325
621.862357	2659.102790
622.209793	2659.024652
622.557176	2657.235042
622.904506	2654.265802
623.251783	2653.020637
623.599007	2654.200267
623.946179	2653.519712
624.293297	2651.125164
624.640363	2651.130205
624.987376	2645.947899
625.334336	2643.684421
625.681243	2644.889256
626.028097	2640.420273
626.374899	2644.170892
626.721647	2647.311531
627.068343	2640.770634
627.414987	2644.347332
627.761577	2641.226858
628.108115	2643.523104
628.454600	2641.393216
628.801032	2641.945223
629.147412	2639.991775
629.493739	2640.647125
629.840014	2639.772485
630.186236	2638.739049
630.532405	2635.729480
630.878521	2638.308030
631.224585	2636.442803
631.570597	2634.708646
631.916556	2636.891466
632.262462	2635.842906
632.608316	2636.170581
632.954117	2635.772330
633.299866	2633.337452
633.645562	2633.834006
633.991206	2633.823924
634.336797	2629.886782
634.682336	2630.179169
635.027823	2629.571710
635.373257	2628.845784
635.718639	2627.308232
636.063968	2625.725310
636.409245	2623.383694
636.754470	2623.993674
637.099642	2622.388066
637.444762	2620.195164
637.789829	2620.817747
638.134845	2616.694083
638.479808	2617.520832
638.824719	2618.675256
639.169577	2618.518981
639.514383	2615.214504
639.859137	2616.318517
640.203839	2615.648043
640.548489	2615.698455
640.893086	2616.167282
641.237632	2615.040584
641.582125	2614.980091
641.926566	2610.649739
