Dividing Wavelength (nm)	Counts (n)	Blue Motor Position (mm): 0.000000	Red Motor Position (mm): 15.000000	
326.493990	2053.589637
326.888308	2053.589637
327.282561	2053.589637
327.676750	2028.431758
328.070874	2027.484021
328.464933	2035.315454
328.858929	2043.207380
329.252859	2053.239276
329.646726	2067.651935
330.040528	2085.462332
330.434265	2099.776688
330.827938	2123.729731
331.221547	2141.504839
331.615091	2162.100473
332.008571	2183.061591
332.401986	2202.969107
332.795338	2224.560369
333.188625	2245.075345
333.581847	2261.333066
333.975006	2282.223608
334.368100	2298.352779
334.761129	2310.179326
335.154095	2332.201607
335.546996	2343.907166
335.939833	2357.460308
336.332606	2373.539068
336.725315	2382.320758
337.117960	2393.673437
337.510540	2403.087792
337.903056	2411.672877
338.295508	2418.682601
338.687896	2428.172573
339.080220	2428.578386
339.472480	2433.990065
339.864676	2441.481219
340.256807	2442.741508
340.648875	2446.555141
341.040879	2446.313165
341.432818	2448.528752
341.824694	2449.161417
342.216506	2445.652774
342.608253	2449.605039
342.999937	2447.729729
343.391557	2446.998762
343.783113	2443.139759
344.174605	2443.026333
344.566033	2443.008689
344.957397	2443.573298
345.348697	2438.446445
345.739934	2438.887546
346.131106	2432.626433
346.522215	2435.298244
346.913260	2429.705084
347.304241	2428.162491
347.695159	2429.379929
348.086012	2428.815320
348.476802	2426.080494
348.867528	2422.050092
349.258191	2422.332396
349.648789	2420.628486
350.039324	2416.517425
350.429796	2421.130081
350.820203	2419.728640
351.210548	2421.561100
351.600828	2418.291912
351.991045	2417.268557
352.381198	2413.490212
352.771288	2416.411561
353.161314	2418.102868
353.551276	2418.327200
353.941175	2418.228897
354.331010	2418.173444
354.720782	2415.289904
355.110490	2421.409865
355.500135	2418.758218
355.889717	2423.411203
356.279235	2417.807961
356.668689	2417.220666
357.058080	2420.565472
357.447408	2417.061870
357.836672	2422.818868
358.225873	2419.952972
358.615010	2421.656882
359.004084	2420.003383
359.393095	2421.253589
359.782043	2423.824578
360.170927	2420.303332
360.559748	2422.133271
360.948505	2426.836667
361.337199	2426.619898
361.725830	2421.838363
362.114398	2425.145360
362.502903	2427.292892
362.891344	2429.710125
363.279722	2427.721390
363.668037	2430.436051
364.056289	2428.197779
364.444478	2429.266503
364.832603	2430.826741
365.220665	2429.901689
365.608665	2429.848757
365.996601	2430.239446
366.384474	2430.322625
366.772284	2434.491659
367.160031	2428.885896
367.547715	2433.846392
367.935336	2433.243974
368.322893	2430.501586
368.710388	2428.129723
369.097820	2429.032090
369.485189	2429.309353
369.872495	2433.465785
370.259738	2436.750096
370.646918	2432.807914
371.034035	2438.494336
371.421090	2438.206990
371.808081	2438.587597
372.195010	2439.154727
372.581875	2440.815787
372.968678	2441.937444
373.355418	2443.474996
373.742096	2445.004986
374.128710	2446.797116
374.515262	2451.944134
374.901751	2451.480348
375.288177	2456.947479
375.674540	2457.373457
376.060841	2462.764971
376.447079	2466.210599
376.833254	2473.807618
377.219367	2475.443473
377.605417	2486.072746
377.991404	2487.489310
378.377329	2495.958448
378.763191	2503.038749
379.148991	2508.755417
379.534727	2522.101872
379.920402	2527.054806
380.306013	2537.154757
380.691563	2550.047508
381.077049	2560.036555
381.462474	2571.948801
381.847835	2584.206367
382.233134	2598.770260
382.618371	2610.143103
383.003545	2627.036010
383.388657	2640.478247
383.773706	2660.486586
384.158693	2672.098884
384.543618	2689.836184
384.928480	2705.988041
385.313280	2728.973182
385.698017	2748.588312
386.082692	2771.515479
386.467305	2787.132974
386.851856	2810.975111
387.236344	2836.523679
387.620770	2852.862058
388.005133	2876.260574
388.389435	2909.819535
388.773674	2918.523087
389.157851	2953.372584
389.541965	2981.845021
389.926018	2991.728203
390.310008	3028.700025
390.693936	3055.067780
391.077802	3080.117274
391.461606	3111.299331
391.845348	3127.736013
392.229027	3159.046619
392.612645	3200.169832
392.996200	3229.151425
393.379694	3266.899585
393.763125	3309.346101
394.146494	3335.305523
394.529801	3368.279710
394.913047	3413.758479
395.296230	3418.897936
395.679351	3446.190742
396.062410	3495.281499
396.445408	3473.604537
396.828343	3518.611959
397.211217	3547.757390
397.594028	3522.039943
397.976778	3569.451995
398.359466	3600.238322
398.742092	3610.532358
399.124656	3624.140953
399.507158	3682.146989
399.889598	3685.426260
400.271977	3750.058893
400.654294	3732.157756
401.036549	3788.492650
401.418742	3787.229841
401.800874	3850.924820
402.182944	3872.201010
402.564952	3950.971559
402.946898	3941.479067
403.328783	3927.915842
403.710606	3972.277996
404.092367	4030.614228
404.474067	4081.265222
404.855705	4056.999628
405.237282	4017.759286
405.618797	4102.332204
406.000250	4155.034947
406.381642	4221.936099
406.762972	4205.746434
407.144240	4158.276408
407.525447	4201.718552
407.906593	4200.324673
408.287677	4251.101695
408.668700	4257.970267
409.049661	4270.978964
409.430560	4281.028505
409.811399	4242.738421
410.192176	4262.792131
410.572891	4302.952483
410.953545	4363.849621
411.334138	4253.836521
411.714669	4313.029749
412.095139	4216.025346
412.475547	4276.010036
412.855894	4245.818566
413.236180	4289.800112
413.616405	4203.913974
413.996568	4247.439297
414.376670	4218.860995
414.756711	4181.773227
415.136691	4188.780430
415.516609	4210.553174
415.896466	4198.955999
416.276262	4205.761557
416.655997	4238.271958
417.035670	4256.717540
417.415283	4296.976195
417.794834	4296.840084
418.174324	4230.806009
418.553753	4186.703475
418.933121	4228.323241
419.312428	4186.529555
419.691674	4103.466463
420.070859	4170.607071
420.449983	4061.851738
420.829045	4106.002164
421.208047	4019.092671
421.586988	4040.961197
421.965867	4026.533414
422.344686	4008.763347
422.723444	4022.119884
423.102141	3828.559741
423.480777	3922.557096
423.859352	3809.176505
424.237866	3884.892115
424.616319	3832.307839
424.994712	3832.080987
425.373044	3752.781117
425.751314	3796.235863
426.129524	3664.056809
426.507673	3683.908873
426.885762	3647.700785
427.263789	3611.354066
427.641756	3583.559664
428.019662	3554.459604
428.397508	3514.077441
428.775292	3461.573823
429.153016	3447.670321
429.530679	3391.958009
429.908282	3355.618852
430.285824	3305.358548
430.663305	3305.746717
431.040726	3249.227821
431.418086	3208.449927
431.795385	3188.023172
432.172624	3174.575894
432.549802	3122.402472
432.926920	3104.874380
433.303977	3059.383008
433.680974	3030.436703
434.057910	3022.854807
434.434786	2991.997904
434.811601	2954.857203
435.188355	2952.520629
435.565050	2914.858168
435.941683	2892.835888
436.318257	2889.201216
436.694770	2854.470186
437.071222	2845.217148
437.447614	2804.764409
437.823946	2783.803292
438.200218	2768.707557
438.576429	2743.108577
438.952580	2733.895869
439.328670	2716.977756
439.704700	2699.731969
440.080670	2683.343178
440.456580	2674.374965
440.832429	2661.799807
441.208218	2639.835500
441.583947	2630.159005
441.959616	2624.439816
442.335224	2610.838783
442.710773	2604.179418
443.086261	2598.031731
443.461689	2586.676532
443.837057	2580.632189
444.212365	2577.058011
444.587612	2566.237174
444.962800	2555.023127
445.337927	2557.231153
445.712995	2539.014943
446.088002	2549.392158
446.462949	2548.005841
446.837837	2543.183978
447.212664	2538.987217
447.587431	2543.088196
447.962139	2551.612787
448.336786	2553.752757
448.711374	2552.900802
449.085901	2537.502597
449.460369	2535.768440
449.834776	2531.097811
450.209124	2535.614685
450.583412	2535.967566
450.957640	2533.242822
451.331808	2532.350538
451.705917	2525.295443
452.079965	2519.906450
452.453954	2522.308559
452.827883	2521.592716
453.201752	2518.479803
453.575562	2520.234125
453.949311	2520.017355
454.323001	2520.224042
454.696632	2516.438136
455.070202	2520.839063
455.443713	2519.886285
455.817164	2518.300842
456.190556	2520.612211
456.563888	2518.797396
456.937160	2521.996008
457.310373	2516.382683
457.683526	2514.177178
458.056619	2515.419823
458.429653	2517.615245
458.802628	2515.104751
459.175542	2514.766993
459.548398	2516.112981
459.921194	2518.444515
460.293930	2517.756398
460.666607	2522.956348
461.039224	2525.570186
461.411782	2526.822913
461.784280	2525.741585
462.156719	2523.760412
462.529099	2525.119003
462.901419	2519.795544
463.273680	2517.345543
463.645882	2513.736077
464.018024	2514.751870
464.390106	2516.150790
464.762130	2522.568179
465.134094	2530.069416
465.505999	2536.557381
465.877845	2545.079451
466.249631	2547.287477
466.621358	2546.430481
466.993026	2544.522404
467.364634	2542.412681
467.736184	2534.893800
468.107674	2533.252904
468.479105	2534.404808
468.850477	2532.607637
469.221790	2527.571524
469.593043	2526.800227
469.964238	2523.941893
470.335373	2523.410052
470.706449	2525.759229
471.077467	2527.112779
471.448425	2534.281300
471.819324	2541.623740
472.190164	2541.046528
472.560945	2535.332380
472.931667	2533.794828
473.302330	2529.260311
473.672934	2525.124044
474.043479	2528.927594
474.413965	2524.486338
474.784393	2527.112779
475.154761	2530.626463
475.525070	2528.305012
475.895321	2526.921215
476.265513	2529.320804
476.635645	2529.940866
477.005719	2531.044879
477.375734	2531.319622
477.745691	2532.279962
478.115588	2532.368182
478.485427	2536.852288
478.855207	2541.787578
479.224928	2549.377035
479.594591	2549.969371
479.964194	2552.542880
480.333739	2551.358208
480.703226	2549.495502
481.072653	2554.710576
481.442022	2553.994732
481.811333	2556.434650
482.180584	2551.159083
482.549777	2550.808723
482.918912	2549.001469
483.287988	2551.640513
483.657005	2549.404761
484.025964	2551.413661
484.394864	2551.403579
484.763706	2551.572457
485.132489	2549.654298
485.501213	2550.604556
485.869879	2549.109854
486.238487	2550.039947
486.607036	2549.177909
486.975527	2547.940306
487.343959	2550.717982
487.712333	2551.161603
488.080648	2548.073897
488.448905	2548.257899
488.817104	2551.726213
489.185244	2554.529094
489.553326	2555.955741
489.921350	2561.886658
490.289315	2565.370096
490.657222	2570.544840
491.025070	2571.757238
491.392861	2570.103739
491.760593	2569.105591
492.128267	2564.835733
492.495883	2561.485887
492.863440	2558.914898
493.230939	2559.504713
493.598380	2556.119578
493.965763	2554.703014
494.333088	2553.513302
494.700354	2554.176213
495.067563	2554.715617
495.434713	2551.859803
495.801805	2552.792417
496.168839	2550.962478
496.535815	2551.711089
496.902733	2556.913560
497.269593	2551.330482
497.636395	2551.877447
498.003139	2553.084804
498.369825	2554.022458
498.736453	2552.563044
499.103023	2553.853580
499.469535	2550.899463
499.835989	2554.400545
500.202385	2549.830739
500.568723	2551.007848
500.935003	2549.989535
501.301226	2546.521221
501.667390	2555.645710
502.033497	2558.004970
502.399546	2556.134702
502.765537	2553.377191
503.131470	2554.279557
503.497345	2556.530432
503.863163	2552.973898
504.228923	2555.948179
504.594625	2556.618653
504.960269	2555.857438
505.325856	2557.402552
505.691385	2555.980947
506.056856	2554.506409
506.422270	2559.005639
506.787625	2554.982798
507.152924	2557.268961
507.518164	2555.968344
507.883347	2553.195709
508.248472	2554.488765
508.613540	2555.877603
508.978550	2560.386915
509.343503	2559.083777
509.708398	2558.284754
510.073236	2562.010167
510.438016	2558.284754
510.802738	2557.019424
511.167403	2558.985474
511.532010	2556.164949
511.896561	2561.253993
512.261053	2558.052861
512.625488	2559.552604
512.989866	2558.335165
513.354186	2560.092007
513.718449	2557.228632
514.082655	2561.682492
514.446803	2559.711400
514.810894	2560.482697
515.174927	2557.684857
515.538904	2560.591082
515.902822	2560.339024
516.266684	2555.287788
516.630488	2556.207798
516.994235	2557.077398
517.357925	2559.582851
517.721558	2559.058571
518.085133	2559.867676
518.448651	2557.762994
518.812112	2553.838456
519.175516	2556.908519
519.538863	2556.623694
519.902152	2560.850701
520.265385	2558.441030
520.628560	2557.377346
520.991678	2558.395659
521.354739	2557.490772
521.717743	2556.233004
522.080690	2557.533622
522.443580	2557.238714
522.806413	2558.806513
523.169189	2561.662327
523.531908	2556.689229
523.894569	2558.035217
524.257174	2558.378015
524.619722	2557.193344
524.982213	2558.052861
525.344647	2556.953889
525.707025	2555.600339
526.069345	2557.047151
526.431608	2558.924980
526.793815	2557.793241
527.155964	2556.313663
527.518057	2556.076728
527.880093	2557.946997
528.242072	2556.187634
528.603995	2556.578323
528.965860	2556.066646
529.327669	2554.208981
529.689421	2553.319217
530.051117	2554.428271
530.412755	2555.491955
530.774337	2552.943651
531.135862	2553.581357
531.497331	2557.624363
531.858743	2553.001625
532.220098	2552.061449
532.581396	2552.396686
532.942638	2553.185627
533.303824	2551.164124
533.664953	2551.161603
534.026025	2552.207643
534.387040	2552.905843
534.747999	2551.680842
535.108902	2551.269988
535.469748	2552.946172
535.830537	2551.229659
536.191270	2551.877447
536.551947	2546.465769
536.912567	2547.400903
537.273131	2550.221428
537.633638	2543.113401
537.994089	2548.756973
538.354483	2551.028013
538.714821	2553.180586
539.075103	2552.184958
539.435328	2550.602035
539.795497	2550.261757
540.155609	2551.653116
540.515665	2551.746377
540.875665	2548.618341
541.235609	2550.506253
541.595496	2552.709238
541.955328	2550.743188
542.315102	2550.110523
542.674821	2548.222611
543.034483	2550.410472
543.394090	2547.063145
543.753640	2547.393341
544.113134	2551.043136
544.472571	2548.951058
544.831953	2549.601366
545.191278	2547.564740
545.550548	2548.681356
545.909761	2551.277550
546.268918	2548.948537
546.628019	2549.452652
546.987064	2546.367466
547.346053	2546.773279
547.704986	2545.994421
548.063863	2546.632127
548.422684	2548.076417
548.781449	2548.751932
549.140158	2550.014741
549.498811	2546.916952
549.857408	2544.136756
550.215949	2547.680687
550.574434	2549.064483
550.932864	2546.891746
551.291237	2547.806716
551.649555	2547.443752
552.007817	2547.877292
552.366022	2544.424101
552.724173	2547.703372
553.082267	2549.119936
553.440305	2549.929041
553.798288	2548.391489
554.156215	2547.252189
554.514086	2546.942158
554.871902	2542.707588
555.229661	2544.328319
555.587365	2541.482588
555.945014	2545.265974
556.302606	2544.782023
556.660143	2544.487116
557.017625	2545.833104
557.375050	2545.646581
557.732421	2545.523073
558.089735	2550.002138
558.446994	2549.114895
558.804197	2548.613300
559.161345	2546.422919
559.518437	2545.124822
559.875474	2545.523073
560.232455	2548.928372
560.589381	2545.119781
560.946251	2547.690769
561.303065	2544.865202
561.659825	2548.361242
562.016528	2544.565254
562.373177	2546.853937
562.729770	2543.183977
563.086307	2549.437529
563.442789	2546.609442
563.799216	2547.332847
564.155587	2548.348640
564.511904	2545.823022
564.868164	2548.008362
565.224370	2546.601880
565.580520	2549.137580
565.936615	2549.603887
566.292654	2547.582384
566.648638	2543.534338
567.004567	2545.858310
567.360441	2547.564740
567.716260	2542.173226
568.072023	2548.353681
568.427732	2543.862013
568.783385	2546.407795
569.138982	2545.102137
569.494525	2548.998948
569.850013	2546.836293
570.205445	2548.164638
570.560823	2545.263453
570.916145	2545.220604
571.271412	2543.148689
571.626625	2544.744215
571.981782	2547.229503
572.336884	2541.321271
572.691931	2541.603576
573.046923	2538.455375
573.401860	2540.497043
573.756743	2544.615665
574.111570	2543.844369
574.466342	2543.466282
574.821059	2544.139276
575.175722	2544.681200
575.530330	2543.539379
575.884882	2541.860675
576.239380	2544.645912
576.593823	2544.950902
576.948211	2543.483926
577.302544	2543.100798
577.656823	2540.524769
578.011047	2542.170706
578.365216	2542.979811
578.719330	2542.538710
579.073389	2539.566950
579.427394	2539.062834
579.781344	2540.728936
580.135239	2541.827907
580.489080	2539.445962
580.842866	2538.893956
581.196597	2541.500232
581.550273	2538.883873
581.903895	2541.694317
582.257463	2544.048535
582.610975	2539.035108
582.964434	2537.797505
583.317837	2539.514018
583.671186	2535.418080
584.024481	2536.214582
584.377721	2538.583925
584.730906	2538.110056
585.084037	2538.152906
585.437113	2538.074768
585.790135	2541.500232
586.143103	2537.298430
586.496016	2539.861857
586.848874	2536.771630
587.201679	2540.701209
587.554428	2538.266332
587.907124	2537.628626
588.259765	2539.032587
588.612352	2536.713657
588.964884	2535.539068
589.317362	2538.001671
589.669786	2536.927906
590.022155	2537.522762
590.374470	2534.394726
590.726731	2536.693492
591.078937	2531.412883
591.431090	2536.635519
591.783188	2535.604603
592.135232	2537.840354
592.487222	2534.591331
592.839157	2535.748276
593.191038	2535.508821
593.542866	2536.474202
593.894639	2532.920188
594.246358	2534.815662
594.598022	2534.636701
594.949633	2533.134437
595.301190	2537.144675
595.652692	2535.034952
596.004141	2532.373223
596.355535	2532.710980
596.706876	2531.896834
597.058162	2531.861546
597.409395	2534.785415
597.760573	2530.359282
598.111698	2532.053110
598.462768	2532.370703
598.813785	2531.828778
599.164748	2530.465146
599.515657	2531.218799
599.866511	2528.587317
600.217312	2532.900024
600.568060	2530.843233
600.918753	2531.796011
601.269392	2530.167718
601.619978	2531.067564
601.970510	2535.430683
602.320988	2531.382636
602.671412	2535.052596
603.021783	2531.576721
603.372100	2532.635363
603.722363	2531.556556
604.072572	2534.225847
604.422728	2530.989426
604.772830	2532.133768
605.122878	2533.867925
605.472872	2530.860877
605.822813	2530.729807
606.172701	2529.207378
606.522534	2531.337266
606.872314	2533.825075
607.222041	2531.579241
607.571714	2530.704601
607.921333	2527.841226
608.270899	2528.121010
608.620411	2526.654034
608.969870	2533.522606
609.319276	2529.819879
609.668627	2532.640404
610.017926	2533.189890
610.367171	2529.829961
610.716362	2534.256094
611.065500	2532.849612
611.414585	2533.147040
611.763616	2533.212575
612.112594	2533.762061
612.461518	2530.843233
612.810389	2531.748120
613.159207	2529.265352
613.507971	2530.203006
613.856682	2532.683254
614.205340	2532.421114
614.553945	2535.155940
614.902496	2534.921526
615.250994	2533.373892
615.599439	2531.092770
615.947830	2535.584438
616.296169	2531.906916
616.644454	2532.156453
616.992686	2533.966228
617.340864	2533.167205
617.688990	2533.094108
618.037063	2533.305837
618.385082	2534.059489
618.733048	2535.360107
619.080961	2535.428162
619.428821	2531.853984
619.776628	2533.426824
620.124382	2532.705939
620.472083	2533.333563
620.819731	2533.270548
621.167326	2533.492359
621.514868	2534.230888
621.862357	2529.892975
622.209793	2534.175436
622.557176	2532.751310
622.904506	2531.551515
623.251783	2530.976823
623.599007	2528.846936
623.946179	2530.119827
624.293297	2530.628984
624.640363	2529.857687
624.987376	2528.834333
625.334336	2520.254289
625.681243	2524.952645
626.028097	2523.606657
626.374899	2527.067409
626.721647	2525.809641
627.068343	2527.712676
627.414987	2527.626977
627.761577	2524.952645
628.108115	2526.154960
628.454600	2526.389373
628.801032	2526.001205
629.147412	2524.650175
629.493739	2525.119003
629.840014	2528.594878
630.186236	2524.007428
630.532405	2525.764270
630.878521	2526.235618
631.224585	2527.425331
631.570597	2522.457273
631.916556	2527.805938
632.262462	2525.842408
632.608316	2524.393077
632.954117	2525.476925
633.299866	2523.657068
633.645562	2521.660771
633.991206	2525.711338
634.336797	2525.285361
634.682336	2524.476256
635.027823	2522.442150
635.373257	2521.156656
635.718639	2523.657068
636.063968	2523.165556
636.409245	2520.385359
636.754470	2521.542304
637.099642	2515.772703
637.444762	2519.687159
637.789829	2519.404855
638.134845	2519.916532
638.479808	2515.999555
638.824719	2519.024248
639.169577	2517.925276
639.514383	2518.623476
639.859137	2521.055833
640.203839	2516.957375
640.548489	2519.614063
640.893086	2516.284381
641.237632	2516.841428
641.582125	2518.991480
641.926566	2517.713548
642.270955	2514.908146
642.615292	2512.972343
642.959576	2516.957375
643.303809	2512.014523
643.647990	2519.016686
643.992118	2516.715399
644.336195	2517.539628
