Dividing Wavelength (nm)	Counts (n)	Blue Motor Position (mm): 0.000000	Red Motor Position (mm): 40.500000	
326.493990	2054.587785
326.888308	2054.587785
327.282561	2054.587785
327.676750	2026.705163
328.070874	2028.310771
328.464933	2034.385361
328.858929	2043.078831
329.252859	2048.689635
329.646726	2065.476677
330.040528	2081.734398
330.434265	2099.690988
330.827938	2122.439195
331.221547	2142.941568
331.615091	2160.971255
332.008571	2183.696776
332.401986	2203.722760
332.795338	2222.518702
333.188625	2242.262381
333.581847	2260.944897
333.975006	2279.012393
334.368100	2296.154836
334.761129	2313.420788
335.154095	2331.304281
335.546996	2356.986440
335.939833	2409.457289
336.332606	2425.178128
336.725315	2434.708429
337.117960	2447.046653
337.510540	2455.646862
337.903056	2465.081381
338.295508	2470.732514
338.687896	2481.749956
339.080220	2483.534525
339.472480	2490.428303
339.864676	2491.194558
340.256807	2495.356030
340.648875	2498.685713
341.040879	2499.802328
341.432818	2498.536998
341.824694	2501.231495
342.216506	2501.511279
342.608253	2500.258552
342.999937	2498.877276
343.391557	2497.576659
343.783113	2499.101608
344.174605	2497.191010
344.566033	2495.419045
344.957397	2493.720176
345.348697	2493.488283
345.739934	2490.861842
346.131106	2488.484938
346.522215	2489.533498
346.913260	2483.728609
347.304241	2484.295739
347.695159	2481.460090
348.086012	2482.601911
348.476802	2479.368011
348.867528	2478.135449
349.258191	2475.846765
349.648789	2476.610500
350.039324	2471.113122
350.429796	2476.875160
350.820203	2472.559933
351.210548	2474.594038
351.600828	2470.941722
351.991045	2470.233440
352.381198	2470.717391
352.771288	2472.562453
353.161314	2472.156640
353.551276	2472.789305
353.941175	2469.724284
354.331010	2470.644294
354.720782	2474.210911
355.110490	2470.309058
355.500135	2473.648822
355.889717	2471.239150
356.279235	2473.777371
356.668689	2473.474902
357.058080	2474.498256
357.447408	2475.304841
357.836672	2474.228555
358.225873	2475.413226
358.615010	2477.263329
359.004084	2478.407671
359.393095	2476.918010
359.782043	2476.978504
360.170927	2475.826600
360.559748	2478.717702
360.948505	2481.336582
361.337199	2483.572333
361.725830	2481.757518
362.114398	2481.462610
362.502903	2483.761377
362.891344	2485.102323
363.279722	2480.797178
363.668037	2482.551500
364.056289	2484.925883
364.444478	2482.599391
364.832603	2485.924032
365.220665	2488.023672
365.608665	2485.644247
365.996601	2488.505102
366.384474	2486.309680
366.772284	2489.122644
367.160031	2488.104331
367.547715	2493.425268
367.935336	2489.324290
368.322893	2488.492499
368.710388	2486.564258
369.097820	2489.604074
369.485189	2491.285299
369.872495	2493.654641
370.259738	2492.885865
370.646918	2495.315701
371.034035	2493.982316
371.421090	2495.348469
371.808081	2497.962307
372.195010	2498.516834
372.581875	2500.215703
372.968678	2497.934581
373.355418	2501.833913
373.742096	2503.943636
374.128710	2504.495642
374.515262	2507.424553
374.901751	2510.418998
375.288177	2514.063752
375.674540	2518.744464
376.060841	2524.733354
376.447079	2528.748633
376.833254	2534.172915
377.219367	2536.219623
377.605417	2542.498381
377.991404	2546.145655
378.377329	2553.064639
378.763191	2560.931360
379.148991	2570.723801
379.534727	2580.738053
379.920402	2589.794486
380.306013	2596.708428
380.691563	2610.170830
381.077049	2621.024434
381.462474	2627.683798
381.847835	2642.920686
382.233134	2657.910557
382.618371	2668.446568
383.003545	2684.948785
383.388657	2699.565611
383.773706	2715.417519
384.158693	2732.494428
384.543618	2752.049064
384.928480	2763.787390
385.313280	2786.636420
385.698017	2807.773978
386.082692	2829.582010
386.467305	2844.985255
386.851856	2868.766899
387.236344	2899.361661
387.620770	2912.030081
388.005133	2934.604368
388.389435	2971.460244
388.773674	2980.257057
389.157851	3013.226203
389.541965	3039.982127
389.926018	3054.553583
390.310008	3088.974581
390.693936	3112.065586
391.077802	3142.206645
391.461606	3173.008095
391.845348	3191.201619
392.229027	3221.118347
392.612645	3266.120727
392.996200	3289.705765
393.379694	3329.782938
393.763125	3373.353631
394.146494	3399.895306
394.529801	3437.116666
394.913047	3482.587873
395.296230	3483.533090
395.679351	3511.052748
396.062410	3558.492527
396.445408	3535.799773
396.828343	3582.611927
397.211217	3617.416053
397.594028	3589.004110
397.976778	3636.005308
398.359466	3666.103517
398.742092	3679.225641
399.124656	3694.540666
399.507158	3757.209770
399.889598	3760.310080
400.271977	3827.244000
400.654294	3815.813184
401.036549	3873.368037
401.418742	3875.986917
401.800874	3942.603244
402.182944	3971.478973
402.564952	4057.745718
402.946898	4054.537024
403.328783	4048.003689
403.710606	4096.607973
404.092367	4166.359899
404.474067	4227.118405
404.855705	4215.049883
405.237282	4189.939896
405.618797	4285.215183
406.000250	4364.983881
406.381642	4450.539823
406.762972	4449.418167
407.144240	4416.121345
407.525447	4481.739524
407.906593	4498.274509
408.287677	4584.740380
408.668700	4606.475315
409.049661	4651.069362
409.430560	4683.458775
409.811399	4667.967309
410.192176	4720.133169
410.572891	4801.235252
410.953545	4910.396398
411.334138	4803.781035
411.714669	4912.221295
412.095139	4828.719623
412.475547	4938.828505
412.855894	4945.369402
413.236180	5047.389753
413.616405	4974.335873
413.996568	5081.218416
414.376670	5084.830403
414.756711	5074.095266
415.136691	5148.905989
415.516609	5233.362960
415.896466	5268.696407
416.276262	5346.655331
416.655997	5460.383762
417.035670	5555.147372
417.415283	5700.377973
417.794834	5769.950937
418.174324	5732.538014
418.553753	5727.527107
418.933121	5902.248458
419.312428	5913.293626
419.691674	5835.407799
420.070859	6066.045629
420.449983	5945.466270
420.829045	6139.328882
421.208047	6064.692079
421.586988	6225.698971
421.965867	6297.704292
422.344686	6384.974227
422.723444	6547.778290
423.102141	6163.879302
423.480777	6556.131482
423.859352	6367.698193
424.237866	6744.678198
424.616319	6735.047073
424.994712	6901.377424
425.373044	6813.666388
425.751314	7133.651108
426.129524	6850.262645
426.507673	7121.030579
426.885762	7162.342835
427.263789	7201.759617
427.641756	7289.563914
428.019662	7376.382666
428.397508	7413.818274
428.775292	7391.526292
429.153016	7569.302582
429.530679	7494.968248
429.908282	7553.165849
430.285824	7492.992116
430.663305	7781.083976
431.040726	7659.750965
431.418086	7662.107704
431.795385	7802.541647
432.172624	7994.352510
432.549802	7874.219293
432.926920	8010.080910
433.303977	7949.347609
433.680974	7993.631625
434.057910	8193.694857
434.434786	8253.898836
434.811601	8207.512659
435.188355	8552.027634
435.565050	8436.509593
435.941683	8445.916386
436.318257	8779.323178
436.694770	8735.510510
437.071222	8963.847053
437.447614	8745.338240
437.823946	8705.480357
438.200218	8862.661013
438.576429	8732.904234
438.952580	8904.280779
439.328670	8915.421729
439.704700	8989.193975
440.080670	8876.209114
440.456580	9158.299480
440.832429	9128.218915
441.208218	8868.191159
441.583947	8988.505857
441.959616	9109.826266
442.335224	9131.833423
442.710773	9219.625117
443.086261	9401.025997
443.461689	9109.992624
443.837057	9288.280591
444.212365	9502.905196
444.587612	9484.769645
444.962800	9381.869612
445.337927	9519.631744
445.712995	9050.809478
446.088002	9731.473632
446.462949	9784.612434
446.837837	9774.542729
447.212664	9795.110637
447.587431	10633.709100
447.962139	11662.651450
448.336786	12607.625821
448.711374	12385.293292
449.085901	11165.666777
449.460369	11079.556308
449.834776	10849.583911
450.209124	11779.883482
450.583412	11600.395720
450.957640	11920.698033
451.331808	11518.620643
451.705917	10923.310786
452.079965	10806.237549
452.453954	11011.737665
452.827883	10947.664600
453.201752	10924.094685
453.575562	10925.344891
453.949311	11270.283323
454.323001	11341.910557
454.696632	11262.030954
455.070202	11846.136847
455.443713	11904.863769
455.817164	12087.446799
456.190556	12408.215418
456.563888	12268.031012
456.937160	12532.474820
457.310373	12010.304543
457.683526	12026.232068
458.056619	12046.237887
458.429653	12101.740991
458.802628	12250.339083
459.175542	12302.996455
459.548398	12868.593752
459.921194	13441.941823
460.293930	13716.079769
460.666607	14590.218367
461.039224	15397.533950
461.411782	15752.073258
461.784280	15419.253761
462.156719	15373.522934
462.529099	15280.473316
462.901419	14625.750940
463.273680	14226.184045
463.645882	14449.996152
464.018024	14328.327904
464.390106	14691.490107
464.762130	15777.513441
465.134094	17315.309860
465.505999	19632.750969
465.877845	21926.599477
466.249631	23196.851779
466.621358	22740.665165
466.993026	21915.400554
467.364634	21176.957215
467.736184	20362.962103
468.107674	19744.621734
468.479105	19597.321739
468.850477	19329.386933
469.221790	18887.920488
469.593043	18221.384167
469.964238	17817.829720
470.335373	17878.174852
470.706449	18607.357591
471.077467	19460.134299
471.448425	21964.597174
471.819324	23869.538307
472.190164	23792.169198
472.560945	22026.719313
472.931667	20424.491907
473.302330	20088.803993
473.672934	19522.904226
474.043479	19950.706624
474.413965	19741.498739
474.784393	19542.090858
475.154761	20233.122145
475.525070	20349.897953
475.895321	20189.516164
476.265513	20728.596992
476.635645	21336.159374
477.005719	21392.794217
477.375734	21755.595977
477.745691	22402.650758
478.115588	23049.045148
478.485427	24263.312916
478.855207	26090.690856
479.224928	27920.186081
479.594591	29371.861948
479.964194	29023.619041
480.333739	29497.490023
480.703226	29722.532172
481.072653	30146.404990
481.442022	30693.118124
481.811333	31100.249271
482.180584	30677.389724
482.549777	30448.498655
482.918912	30217.200434
483.287988	30154.160805
483.657005	29987.502779
484.025964	29633.328954
484.394864	29822.856174
484.763706	29755.108108
485.132489	29202.426247
485.501213	29293.872778
485.869879	29474.441867
486.238487	29374.627021
486.607036	29674.933597
486.975527	29344.720376
487.343959	29703.683297
487.712333	30068.849358
488.080648	30017.737100
488.448905	30464.784102
488.817104	30329.686220
489.185244	31180.484275
489.553326	32141.613024
489.921350	34048.860485
490.289315	36608.723120
490.657222	37546.526449
491.025070	38143.094075
491.392861	37861.270889
491.760593	37086.858918
492.128267	36071.663795
492.495883	35089.374803
492.863440	34167.062939
493.230939	33171.598892
493.598380	32600.174022
493.965763	32434.456171
494.333088	31927.497576
494.700354	31730.726218
495.067563	31697.421835
495.434713	31560.355382
495.801805	31851.245083
496.168839	31691.458150
496.535815	31538.549871
496.902733	31659.986226
497.269593	31476.894039
497.636395	31635.221558
498.003139	31914.125915
498.369825	31654.307367
498.736453	32082.195464
499.103023	31914.914856
499.469535	31999.502897
499.835989	32114.821812
500.202385	31991.454695
500.568723	32042.887067
500.935003	32351.362832
501.301226	32208.476368
501.667390	32951.315593
502.033497	33169.595034
502.399546	32962.965699
502.765537	32551.088307
503.131470	33046.555592
503.497345	33490.532532
503.863163	32412.461617
504.228923	33194.092521
504.594625	33596.278295
504.960269	33053.719071
505.325856	33735.197372
505.691385	33385.936151
506.056856	33726.297215
506.422270	34230.095007
506.787625	33734.962958
507.152924	34201.438568
507.518164	34383.323398
507.883347	33965.636076
508.248472	34106.546408
508.613540	34782.807114
508.978550	35027.625710
509.343503	34863.959609
509.708398	35219.988579
510.073236	35819.603582
510.438016	35917.338952
510.802738	35589.905927
511.167403	36134.148897
511.532010	36400.891470
511.896561	36925.892355
512.261053	37685.642131
512.625488	37470.430232
512.989866	37383.021665
513.354186	37428.185363
513.718449	37395.682523
514.082655	38287.641599
514.446803	37981.199939
514.810894	38626.220615
515.174927	38608.858881
515.538904	38629.562900
515.902822	39266.021176
516.266684	38945.804563
516.630488	39318.234927
516.994235	39317.168723
517.357925	39896.866127
517.721558	40157.602166
518.085133	40544.046937
518.448651	40718.256612
518.812112	40607.842739
519.175516	40771.070260
519.538863	41237.666857
519.902152	41296.981073
520.265385	41840.853517
520.628560	41856.965045
520.991678	41808.408651
521.354739	42041.262068
521.717743	42413.710076
522.080690	42308.967502
522.443580	43011.472455
522.806413	43018.930842
523.169189	43156.939990
523.531908	43356.322666
523.894569	43224.594796
524.257174	43409.436263
524.619722	43771.597797
524.982213	43924.284264
525.344647	43968.628774
525.707025	44083.589767
526.069345	44531.982758
526.431608	44433.329897
526.793815	44825.617366
527.155964	44380.170930
527.518057	44620.507940
527.880093	44478.959901
528.242072	45124.577954
528.603995	44839.462895
528.965860	44754.000214
529.327669	44958.842459
529.689421	45045.613320
530.051117	45001.046999
530.412755	45275.207631
530.774337	45330.786352
531.135862	45268.689419
531.497331	45418.361277
531.858743	45416.415391
532.220098	45835.229412
532.581396	45530.395880
532.942638	45313.412015
533.303824	45569.684112
533.664953	45624.836856
534.026025	45281.904804
534.387040	45870.288116
534.747999	45911.577687
535.108902	46259.339164
535.469748	45570.105048
535.830537	45851.766917
536.191270	46099.164062
536.551947	45833.820409
536.912567	46093.487723
537.273131	46237.400062
537.633638	45864.889040
537.994089	46042.869497
538.354483	45796.833463
538.714821	46443.374047
539.075103	46730.384579
539.435328	46590.278311
539.795497	46349.729573
540.155609	46468.030330
540.515665	47061.868171
540.875665	46353.018926
541.235609	46627.444218
541.595496	46769.924870
541.955328	47342.715893
542.315102	46774.875283
542.674821	46684.270625
543.034483	46570.592605
543.394090	46570.963130
543.753640	46563.512305
544.113134	47633.915624
544.472571	46721.174391
544.831953	47861.942136
545.191278	47108.249307
545.550548	46807.042885
545.909761	47447.173642
546.268918	47574.281295
546.628019	47992.235799
546.987064	47420.382430
547.346053	46747.484173
547.704986	47657.757762
548.063863	47290.290414
548.422684	47491.586207
548.781449	47062.364725
549.140158	47598.309955
549.498811	47345.186058
549.857408	46747.332939
550.215949	47584.396370
550.574434	47418.348324
550.932864	47381.084115
551.291237	48088.446220
551.649555	47813.108479
552.007817	47995.205038
552.366022	47689.194397
552.724173	47770.145245
553.082267	48159.791150
553.440305	48538.923727
553.798288	47766.760111
554.156215	48170.717851
554.514086	48352.753916
554.871902	47936.747818
555.229661	48131.175040
555.587365	47798.786561
555.945014	47931.744473
556.302606	47961.888052
556.660143	48058.869770
557.017625	48267.999517
557.375050	47948.203840
557.732421	48350.508082
558.089735	48422.309236
558.446994	48278.006207
558.804197	48748.020707
559.161345	48616.423906
559.518437	47959.811097
559.875474	48211.773008
560.232455	48420.486859
560.589381	48447.951065
560.946251	48304.348757
561.303065	48940.315520
561.659825	48612.433833
562.016528	48406.981608
562.373177	47990.983072
562.729770	48629.888828
563.086307	48123.388978
563.442789	48683.405717
563.799216	48526.658600
564.155587	48436.923541
564.511904	48386.597702
564.868164	48439.428995
565.224370	48763.698695
565.580520	48462.071337
565.936615	48668.408285
566.292654	48306.004776
566.648638	48666.979117
567.004567	48600.695506
567.360441	48688.378816
567.716260	48392.153054
568.072023	48771.683883
568.427732	48669.325775
568.783385	48208.246720
569.138982	48617.507754
569.494525	48753.139998
569.850013	48350.442547
570.205445	48476.599943
570.560823	48235.819311
570.916145	48105.692007
571.271412	48339.785548
571.626625	47977.253489
571.981782	48037.039053
572.336884	47632.441087
572.691931	47959.054924
573.046923	47589.271166
573.401860	47417.660207
573.756743	47425.718491
574.111570	47551.220537
574.466342	47481.398035
574.821059	47614.746637
575.175722	47094.749097
575.530330	47179.112807
575.884882	46824.180288
576.239380	46699.991463
576.593823	46794.707182
576.948211	46727.924496
577.302544	46252.641991
577.656823	46229.467807
578.011047	46468.713407
578.365216	46324.415419
578.719330	46009.025711
579.073389	45961.366642
579.427394	45993.929976
579.781344	45883.198511
580.135239	45638.024514
580.489080	45690.760025
580.842866	45174.840778
581.196597	45642.821172
581.550273	45617.862419
581.903895	45529.367484
582.257463	45956.224666
582.610975	45373.288320
582.964434	45662.675757
583.317837	45137.984903
583.671186	45108.181601
584.024481	45352.972470
584.377721	44867.526999
584.730906	45069.281537
585.084037	45178.258681
585.437113	44892.730247
585.790135	44994.990053
586.143103	44521.587898
586.496016	44675.680848
586.848874	44763.001194
587.201679	44754.902581
587.554428	44207.501328
587.907124	44455.503413
588.259765	44210.813367
588.612352	44337.789950
588.964884	43767.184266
589.317362	44031.940625
589.669786	44007.934651
590.022155	43871.644536
590.374470	44325.774359
590.726731	43837.752858
591.078937	43173.384234
591.431090	43480.781193
591.783188	42971.682628
592.135232	42751.827826
592.487222	42968.660456
592.839157	43112.605563
593.191038	42729.185484
593.542866	42491.643794
593.894639	41859.346990
594.246358	42115.611526
594.598022	42087.751589
594.949633	41614.387243
595.301190	41568.631210
595.652692	41493.427277
596.004141	41951.668161
596.355535	40823.309217
596.706876	40798.340382
597.058162	40470.592285
597.409395	40930.113622
597.760573	41121.087654
598.111698	40686.199914
598.462768	40563.707437
598.813785	40552.891642
599.164748	40118.767637
599.515657	40340.835505
599.866511	39824.606228
600.217312	40449.452206
600.568060	39384.077437
600.918753	40149.954736
601.269392	40010.854177
601.619978	39697.783400
601.970510	39856.703255
602.320988	39923.987535
602.671412	40129.989246
603.021783	39965.138474
603.372100	39507.005974
603.722363	39563.789531
604.072572	39535.700222
604.422728	39475.765944
604.772830	39219.082993
605.122878	39350.165596
605.472872	39155.919856
605.822813	39360.353767
606.172701	39048.263495
606.522534	39289.732243
606.872314	39429.465466
607.222041	39235.398687
607.571714	39478.979679
607.921333	38932.503479
608.270899	39062.134229
608.620411	39366.201506
608.969870	39084.925286
609.319276	39036.729335
609.668627	39005.567442
610.017926	39314.822066
610.367171	39391.941637
610.716362	39364.162359
611.065500	39209.724091
611.414585	39339.780819
611.763616	39419.723436
612.112594	39249.092982
612.461518	39302.551897
612.810389	39586.320968
613.159207	39323.460083
613.507971	39215.526459
613.856682	39616.419177
614.205340	39367.812155
614.553945	39947.577614
614.902496	39262.550342
615.250994	39567.494779
615.599439	39565.309439
615.947830	39583.548333
616.296169	39493.551134
616.644454	39444.606572
616.992686	39495.391156
617.340864	39810.783384
617.688990	39253.488868
618.037063	39804.686109
618.385082	39521.635402
618.733048	39758.153738
619.080961	39535.954800
619.428821	39485.480247
619.776628	39443.376530
620.124382	39208.335253
620.472083	39229.243438
620.819731	39261.600084
621.167326	38798.837285
621.514868	38717.773010
621.862357	38147.500043
622.209793	38177.499950
622.557176	37718.880978
622.904506	37441.967877
623.251783	37051.747281
623.599007	36692.973403
623.946179	36544.347585
624.293297	36235.443321
624.640363	35681.470925
624.987376	35466.521166
625.334336	35234.088686
625.681243	34802.381915
626.028097	34628.641068
626.374899	34392.092485
626.721647	34275.851039
627.068343	33976.731655
627.414987	33657.407327
627.761577	33342.352855
628.108115	33539.582958
628.454600	32811.693275
628.801032	32913.441404
629.147412	32719.498133
629.493739	32550.997566
629.840014	32082.316452
630.186236	32331.170491
630.532405	31765.084202
630.878521	31877.259957
631.224585	31581.450091
631.570597	31220.508516
631.916556	31264.696750
632.262462	31093.484042
632.608316	30948.639089
632.954117	30743.259961
633.299866	30615.302874
633.645562	30477.117285
633.991206	29973.291767
634.336797	29568.154397
634.682336	29398.383459
635.027823	29134.403437
635.373257	28958.386510
635.718639	28622.552402
636.063968	28463.962743
636.409245	27870.528195
636.754470	27748.789371
