Dividing Wavelength (nm)	Counts (n)	Blue Motor Position (mm): 0.000000	Red Motor Position (mm): 3.000000	
326.493990	2057.027703
326.888308	2057.027703
327.282561	2057.027703
327.676750	2030.049969
328.070874	2031.912675
328.464933	2038.584642
328.858929	2046.834490
329.252859	2058.040975
329.646726	2069.053376
330.040528	2089.407035
330.434265	2103.650815
330.827938	2125.446243
331.221547	2144.963071
331.615091	2165.619198
332.008571	2188.264062
332.401986	2205.824921
332.795338	2226.710421
333.188625	2246.849831
333.581847	2264.269538
333.975006	2283.062960
334.368100	2298.430917
334.761129	2315.870789
335.154095	2333.368634
335.546996	2348.424040
335.939833	2359.340658
336.332606	2372.994624
336.725315	2385.161448
337.117960	2395.589075
337.510540	2404.249778
337.903056	2413.553227
338.295508	2421.240987
338.687896	2427.431523
339.080220	2434.249684
339.472480	2439.028698
339.864676	2441.135900
340.256807	2445.022630
340.648875	2447.076900
341.040879	2446.708896
341.432818	2451.490430
341.824694	2450.779628
342.216506	2450.961109
342.608253	2450.608228
342.999937	2447.555810
343.391557	2449.965481
343.783113	2445.589760
344.174605	2447.303752
344.566033	2444.687393
344.957397	2442.436518
345.348697	2441.246806
345.739934	2439.230344
346.131106	2436.243460
346.522215	2435.583069
346.913260	2432.545774
347.304241	2429.939497
347.695159	2430.226843
348.086012	2430.816658
348.476802	2427.968406
348.867528	2423.111255
349.258191	2422.891964
349.648789	2423.330545
350.039324	2416.552713
350.429796	2421.278795
350.820203	2422.745771
351.210548	2418.226377
351.600828	2418.985070
351.991045	2419.811819
352.381198	2421.117478
352.771288	2418.397776
353.161314	2419.526994
353.551276	2417.770152
353.941175	2421.732499
354.331010	2419.776531
354.720782	2417.810481
355.110490	2419.821902
355.500135	2416.416602
355.889717	2420.441964
356.279235	2419.942889
356.668689	2421.956830
357.058080	2420.494896
357.447408	2421.727458
357.836672	2421.906419
358.225873	2423.509506
358.615010	2420.787283
359.004084	2421.568662
359.393095	2420.852818
359.782043	2423.605288
360.170927	2423.393559
360.559748	2424.316090
360.948505	2425.538570
361.337199	2425.911616
361.725830	2427.197110
362.114398	2424.931111
362.502903	2426.103179
362.891344	2429.137954
363.279722	2424.991605
363.668037	2428.157450
364.056289	2427.726431
364.444478	2427.880186
364.832603	2431.595517
365.220665	2429.266503
365.608665	2430.186514
365.996601	2431.318253
366.384474	2430.279775
366.772284	2430.002512
367.160031	2431.900506
367.547715	2430.884714
367.935336	2430.652821
368.322893	2431.509817
368.710388	2428.701894
369.097820	2430.930084
369.485189	2427.439085
369.872495	2434.496701
370.259738	2434.925199
370.646918	2432.933943
371.034035	2433.385126
371.421090	2435.204983
371.808081	2435.542740
372.195010	2436.936619
372.581875	2434.368151
372.968678	2437.327308
373.355418	2437.100457
373.742096	2438.070879
374.128710	2438.549788
374.515262	2441.526590
374.901751	2438.461568
375.288177	2440.193204
375.674540	2439.684048
376.060841	2445.816612
376.447079	2445.312496
376.833254	2445.461210
377.219367	2446.557661
377.605417	2448.740481
377.991404	2449.605039
378.377329	2449.983125
378.763191	2451.641665
379.148991	2452.813733
379.534727	2454.121913
379.920402	2452.342385
380.306013	2455.830864
380.691563	2456.642489
381.077049	2455.843467
381.462474	2458.091821
381.847835	2461.441668
382.233134	2463.357306
382.618371	2464.400825
383.003545	2469.510035
383.388657	2466.870991
383.773706	2469.651187
384.158693	2470.712350
384.543618	2473.104377
384.928480	2470.772844
385.313280	2474.495736
385.698017	2474.117649
386.082692	2483.524442
386.467305	2477.601087
386.851856	2479.549493
387.236344	2482.654843
387.620770	2480.719040
388.005133	2478.790799
388.389435	2484.709113
388.773674	2479.181488
389.157851	2484.875472
389.541965	2483.829432
389.926018	2487.131388
390.310008	2484.598208
390.693936	2486.753301
391.077802	2485.548466
391.461606	2489.193220
391.845348	2484.890595
392.229027	2489.162973
392.612645	2482.397744
392.996200	2487.897643
393.379694	2484.762046
393.763125	2482.624596
394.146494	2482.586788
394.529801	2484.308342
394.913047	2480.857672
395.296230	2480.154431
395.679351	2476.444142
396.062410	2477.013792
396.445408	2471.594552
396.828343	2473.348873
397.211217	2470.482977
397.594028	2469.953656
397.976778	2468.232102
398.359466	2466.213120
398.742092	2465.557770
399.124656	2464.625157
399.507158	2463.259004
399.889598	2465.192286
400.271977	2460.645166
400.654294	2459.422686
401.036549	2457.799434
401.418742	2457.847325
401.800874	2458.106945
402.182944	2454.628548
402.564952	2454.772221
402.946898	2458.958900
403.328783	2457.312963
403.710606	2455.845987
404.092367	2455.969495
404.474067	2455.503189
404.855705	2450.610749
405.237282	2453.912705
405.618797	2453.678291
406.000250	2452.942283
406.381642	2452.985132
406.762972	2453.917746
407.144240	2451.472786
407.525447	2452.070163
407.906593	2446.376180
408.287677	2453.748867
408.668700	2454.409258
409.049661	2454.371450
409.430560	2455.311625
409.811399	2453.711058
410.192176	2454.573096
410.572891	2455.258693
410.953545	2456.821450
411.334138	2455.072170
411.714669	2454.368929
412.095139	2454.462190
412.475547	2454.724330
412.855894	2454.104268
413.236180	2454.716769
413.616405	2455.041923
413.996568	2454.643672
414.376670	2455.150308
414.756711	2455.777932
415.136691	2456.118209
415.516609	2457.565021
415.896466	2458.175000
416.276262	2456.937397
416.655997	2459.208437
417.035670	2456.337500
417.415283	2455.147787
417.794834	2457.199537
418.174324	2455.407407
418.553753	2459.226081
418.933121	2455.679629
419.312428	2459.105093
419.691674	2458.631225
420.070859	2458.205247
420.449983	2455.530915
420.829045	2456.750874
421.208047	2458.482511
421.586988	2459.853704
421.965867	2460.279682
422.344686	2458.348920
422.723444	2458.293467
423.102141	2460.572069
423.480777	2457.665844
423.859352	2459.694908
424.237866	2459.082408
424.616319	2456.571913
424.994712	2459.730196
425.373044	2460.025104
425.751314	2456.982767
426.129524	2455.518312
426.507673	2457.242387
426.885762	2454.280709
427.263789	2459.465536
427.641756	2460.463684
428.019662	2463.047275
428.397508	2459.982254
428.775292	2459.886472
429.153016	2462.699436
429.530679	2458.948817
429.908282	2463.241360
430.285824	2461.550053
430.663305	2462.308746
431.040726	2460.287244
431.418086	2458.323714
431.795385	2460.176338
432.172624	2462.427213
432.549802	2461.557614
432.926920	2463.127934
433.303977	2463.868983
433.680974	2462.281020
434.057910	2461.073664
434.434786	2464.763788
434.811601	2461.323201
435.188355	2462.371761
435.565050	2463.385033
435.941683	2462.412090
436.318257	2460.148612
436.694770	2464.516772
437.071222	2461.739096
437.447614	2460.919908
437.823946	2465.431741
438.200218	2465.167081
438.576429	2462.891000
438.952580	2463.664817
439.328670	2463.707667
439.704700	2463.233798
440.080670	2464.620115
440.456580	2464.889817
440.832429	2468.499283
441.208218	2466.432410
441.583947	2466.253449
441.959616	2463.195989
442.335224	2466.986937
442.710773	2465.635908
443.086261	2463.591720
443.461689	2468.711012
443.837057	2466.442493
444.212365	2464.983078
444.587612	2463.601802
444.962800	2461.764302
445.337927	2465.041052
445.712995	2460.909826
446.088002	2465.918212
446.462949	2467.049952
446.837837	2465.895527
447.212664	2468.383337
447.587431	2465.484673
447.962139	2463.909313
448.336786	2466.734879
448.711374	2466.230764
449.085901	2467.622123
449.460369	2465.328397
449.834776	2465.313274
450.209124	2469.136989
450.583412	2466.767647
450.957640	2467.591876
451.331808	2467.385188
451.705917	2471.254274
452.079965	2469.711681
452.453954	2467.846454
452.827883	2466.024077
453.201752	2468.925261
453.575562	2466.563480
453.949311	2469.504993
454.323001	2466.344190
454.696632	2466.603809
455.070202	2469.525158
455.443713	2468.491722
455.817164	2467.475929
456.190556	2467.201186
456.563888	2471.213945
456.937160	2466.974334
457.310373	2469.492391
457.683526	2469.872998
458.056619	2469.888121
458.429653	2469.683954
458.802628	2468.428707
459.175542	2469.762092
459.548398	2467.208748
459.921194	2472.963225
460.293930	2471.246712
460.666607	2469.769654
461.039224	2470.228399
461.411782	2469.031125
461.784280	2470.520786
462.156719	2469.830148
462.529099	2470.634212
462.901419	2468.224540
463.273680	2469.384006
463.645882	2467.997688
464.018024	2469.419294
464.390106	2464.307564
464.762130	2470.911475
465.134094	2471.685292
465.505999	2470.626650
465.877845	2473.608493
466.249631	2471.163533
466.621358	2470.704788
466.993026	2468.368213
467.364634	2476.849955
467.736184	2473.996662
468.107674	2471.236630
468.479105	2472.270066
468.850477	2471.844089
469.221790	2470.979531
469.593043	2471.917186
469.964238	2473.482464
470.335373	2474.026908
470.706449	2470.664459
471.077467	2472.406178
471.448425	2473.661425
471.819324	2472.413739
472.190164	2473.729480
472.560945	2473.724439
472.931667	2473.381641
473.302330	2471.297124
473.672934	2471.826445
474.043479	2470.326702
474.413965	2472.149079
474.784393	2472.769141
475.154761	2472.209572
475.525070	2472.373410
475.895321	2472.917855
476.265513	2472.524645
476.635645	2475.788792
477.005719	2471.355097
477.375734	2472.776702
477.745691	2474.762917
478.115588	2473.099336
478.485427	2476.267701
478.855207	2475.869450
479.224928	2474.709985
479.594591	2472.769141
479.964194	2472.867443
480.333739	2474.160499
480.703226	2472.018009
481.072653	2476.809625
481.442022	2474.780561
481.811333	2472.234778
482.180584	2472.222175
482.549777	2472.675879
482.918912	2469.106742
483.287988	2473.812659
483.657005	2474.775520
484.025964	2474.447845
484.394864	2473.449696
484.763706	2475.057824
485.132489	2474.672176
485.501213	2472.171764
485.869879	2475.945068
486.238487	2474.737711
486.607036	2474.664614
486.975527	2475.587146
487.343959	2473.111939
487.712333	2475.483802
488.080648	2473.313585
488.448905	2474.314254
488.817104	2474.858699
489.185244	2477.832980
489.553326	2474.117649
489.921350	2477.863227
490.289315	2475.393061
490.657222	2474.911631
491.025070	2475.677886
491.392861	2475.093112
491.760593	2473.989100
492.128267	2476.721405
492.495883	2474.823411
492.863440	2471.269397
493.230939	2475.476240
493.598380	2474.946919
493.965763	2475.660242
494.333088	2473.295941
494.700354	2472.466671
495.067563	2476.033288
495.434713	2473.883236
495.801805	2477.659060
496.168839	2475.987917
496.535815	2476.681076
496.902733	2473.074130
497.269593	2475.597228
497.636395	2475.604790
498.003139	2476.250057
498.369825	2478.100161
498.736453	2476.484471
499.103023	2474.725108
499.469535	2475.743421
499.835989	2477.722074
500.202385	2474.601600
500.568723	2472.703606
500.935003	2476.459265
501.301226	2471.521455
501.667390	2474.276446
502.033497	2476.159317
502.399546	2475.314923
502.765537	2475.453555
503.131470	2476.068576
503.497345	2476.509677
503.863163	2477.641416
504.228923	2475.433390
504.594625	2476.940695
504.960269	2474.442804
505.325856	2476.827269
505.691385	2475.365335
506.056856	2477.152424
506.422270	2473.424491
506.787625	2477.190232
507.152924	2477.381796
507.518164	2476.328195
507.883347	2475.829121
508.248472	2476.429018
508.613540	2477.701910
508.978550	2478.243834
509.343503	2477.812815
509.708398	2477.318782
510.073236	2475.748462
510.438016	2477.457414
510.802738	2475.793833
511.167403	2473.300982
511.532010	2475.549337
511.896561	2476.532362
512.261053	2476.008082
512.625488	2477.674183
512.989866	2478.687455
513.354186	2476.323154
513.718449	2476.534883
514.082655	2476.499594
514.446803	2478.150572
514.810894	2479.799030
515.174927	2477.482619
515.538904	2479.799030
515.902822	2476.103864
516.266684	2477.631333
516.630488	2477.482619
516.994235	2476.310551
517.357925	2475.279635
517.721558	2479.925058
518.085133	2477.530510
518.448651	2473.742083
518.812112	2475.314923
519.175516	2476.499594
519.538863	2472.607824
519.902152	2479.947744
520.265385	2478.624441
520.628560	2478.425315
520.991678	2475.526652
521.354739	2481.596201
521.717743	2475.786271
522.080690	2476.280304
522.443580	2479.105871
522.806413	2478.823566
523.169189	2477.490181
523.531908	2478.967239
523.894569	2475.851806
524.257174	2479.564616
524.619722	2476.010603
524.982213	2480.565285
525.344647	2478.248875
525.707025	2476.423977
526.069345	2479.582260
526.431608	2478.412712
526.793815	2478.354739
527.155964	2480.225007
527.518057	2477.061683
527.880093	2479.904894
528.242072	2479.231900
528.603995	2480.837507
528.965860	2477.631333
529.327669	2475.975314
529.689421	2478.455562
530.051117	2479.635192
530.412755	2479.335243
530.774337	2476.776858
531.135862	2476.880202
531.497331	2476.202166
531.858743	2478.077476
532.220098	2478.158134
532.581396	2475.254429
532.942638	2478.150572
533.303824	2478.069914
533.664953	2478.886581
534.026025	2476.260140
534.387040	2477.371714
534.747999	2477.051601
535.108902	2480.345995
535.469748	2478.195943
535.830537	2477.255768
536.191270	2479.683083
536.551947	2476.638226
536.912567	2471.607155
537.273131	2476.214769
537.633638	2472.345684
537.994089	2478.773155
538.354483	2475.385499
538.714821	2480.439256
539.075103	2477.996817
539.435328	2476.726446
539.795497	2478.311889
540.155609	2479.322641
540.515665	2480.726602
540.875665	2478.702579
541.235609	2479.378093
541.595496	2475.914821
541.955328	2479.965388
542.315102	2479.584781
542.674821	2477.076807
543.034483	2479.221817
543.394090	2479.811633
543.753640	2478.269039
544.113134	2478.848772
544.472571	2480.126705
544.831953	2478.253916
545.191278	2479.874647
545.550548	2479.080665
545.909761	2478.682414
546.268918	2476.706282
546.628019	2477.356591
546.987064	2479.118474
547.346053	2477.611169
547.704986	2478.609317
548.063863	2477.525469
548.422684	2478.178299
548.781449	2481.076962
549.140158	2474.974645
549.498811	2479.000007
549.857408	2477.270891
550.215949	2479.506643
550.574434	2479.206694
550.932864	2479.120994
551.291237	2478.538741
551.649555	2480.426653
552.007817	2479.466313
552.366022	2477.235603
552.724173	2479.375573
553.082267	2478.788278
553.440305	2478.687455
553.798288	2478.730305
554.156215	2479.620069
554.514086	2477.732157
554.871902	2473.217803
555.229661	2477.679224
555.587365	2473.288379
555.945014	2477.893473
556.302606	2477.084368
556.660143	2477.800212
557.017625	2478.654688
557.375050	2479.819194
557.732421	2478.725264
558.089735	2479.335243
558.446994	2480.575367
558.804197	2478.024543
559.161345	2480.570326
559.518437	2478.100161
559.875474	2479.126036
560.232455	2480.708958
560.589381	2480.517394
560.946251	2478.314410
561.303065	2477.459934
561.659825	2477.772486
562.016528	2479.955305
562.373177	2479.433546
562.729770	2479.448669
563.086307	2479.405820
563.442789	2476.166878
563.799216	2479.398258
564.155587	2478.261478
564.511904	2479.093268
564.868164	2479.980511
565.224370	2479.867085
565.580520	2479.181488
565.936615	2480.101499
566.292654	2477.767445
566.648638	2480.494709
567.004567	2477.711992
567.360441	2478.195943
567.716260	2476.570171
568.072023	2479.907414
568.427732	2480.729122
568.783385	2480.106540
569.138982	2478.440439
569.494525	2478.939513
569.850013	2481.182826
570.205445	2478.178299
570.560823	2479.504122
570.916145	2479.143680
571.271412	2479.360449
571.626625	2480.494709
571.981782	2482.138125
572.336884	2475.461117
572.691931	2476.459265
573.046923	2478.289204
573.401860	2473.197639
573.756743	2480.620738
574.111570	2480.618217
574.466342	2478.889101
574.821059	2480.086375
575.175722	2479.839359
575.530330	2479.216776
575.884882	2480.461941
576.239380	2478.959678
576.593823	2479.862044
576.948211	2478.770634
577.302544	2480.116622
577.656823	2478.511015
578.011047	2480.116622
578.365216	2480.600573
578.719330	2480.325830
579.073389	2479.090747
579.427394	2478.788278
579.781344	2480.237610
580.135239	2479.957826
580.489080	2481.691983
580.842866	2480.814822
581.196597	2485.535863
581.550273	2479.191571
581.903895	2481.402117
582.257463	2477.948926
582.610975	2478.730305
582.964434	2479.100830
583.317837	2481.175265
583.671186	2477.447331
584.024481	2477.860706
584.377721	2479.552013
584.730906	2479.695686
585.084037	2479.761221
585.437113	2478.992445
585.790135	2481.588639
586.143103	2479.022692
586.496016	2480.393886
586.848874	2479.806591
587.201679	2477.815336
587.554428	2479.030254
587.907124	2478.710140
588.259765	2477.349029
588.612352	2481.142497
588.964884	2481.873464
589.317362	2480.081334
589.669786	2478.682414
590.022155	2475.115798
590.374470	2474.367186
590.726731	2477.200315
591.078937	2473.185036
591.431090	2478.309369
591.783188	2479.920017
592.135232	2478.695017
592.487222	2480.167034
592.839157	2478.190902
593.191038	2477.691827
593.542866	2478.657208
593.894639	2479.715851
594.246358	2477.570840
594.598022	2480.280460
594.949633	2482.443115
595.301190	2478.909266
595.652692	2479.574698
596.004141	2479.640233
596.355535	2477.152424
596.706876	2478.188381
597.058162	2480.756849
597.409395	2475.917341
597.760573	2478.289204
598.111698	2478.546303
598.462768	2478.337095
598.813785	2477.147383
599.164748	2480.116622
599.515657	2479.433546
599.866511	2474.732670
600.217312	2479.917497
600.568060	2477.117136
600.918753	2480.837507
601.269392	2477.895994
601.619978	2479.393217
601.970510	2480.464462
602.320988	2476.663432
602.671412	2480.025882
603.021783	2479.650316
603.372100	2477.258288
603.722363	2476.955819
604.072572	2480.532518
604.422728	2479.304997
604.772830	2478.662249
605.122878	2480.419092
605.472872	2481.593680
605.822813	2479.983032
606.172701	2477.732157
606.522534	2478.712661
606.872314	2479.206694
607.222041	2478.117805
607.571714	2477.076807
607.921333	2474.382310
608.270899	2478.768114
608.620411	2474.480612
608.969870	2479.496560
609.319276	2479.302476
609.668627	2480.030923
610.017926	2479.821715
610.367171	2477.492702
610.716362	2477.885912
611.065500	2478.049749
611.414585	2479.057980
611.763616	2480.035964
612.112594	2478.261478
612.461518	2480.376242
612.810389	2478.571509
613.159207	2478.982363
613.507971	2477.263329
613.856682	2478.049749
614.205340	2478.994966
614.553945	2477.888432
614.902496	2477.996817
615.250994	2479.670480
615.599439	2477.711992
615.947830	2479.819194
616.296169	2480.086375
616.644454	2476.449183
616.992686	2480.474544
617.340864	2479.098309
617.688990	2481.127374
618.037063	2475.312403
618.385082	2479.509163
618.733048	2481.434884
619.080961	2479.811632
619.428821	2478.183340
619.776628	2477.505305
620.124382	2477.578401
620.472083	2477.825418
620.819731	2479.718371
621.167326	2477.689307
621.514868	2480.391365
621.862357	2475.955150
622.209793	2479.284832
622.557176	2479.312558
622.904506	2479.657877
623.251783	2478.019502
623.599007	2477.437249
623.946179	2477.714513
624.293297	2481.787765
624.640363	2476.865078
624.987376	2477.585963
625.334336	2474.299131
625.681243	2474.470530
626.028097	2473.893318
626.374899	2479.436067
626.721647	2477.654019
627.068343	2480.857672
627.414987	2478.596714
627.761577	2479.410861
628.108115	2476.628144
628.454600	2478.473206
628.801032	2478.901704
629.147412	2479.214256
629.493739	2477.275932
629.840014	2478.364821
630.186236	2477.863227
630.532405	2478.873978
630.878521	2480.051087
631.224585	2479.607466
631.570597	2479.292394
631.916556	2480.729123
632.262462	2477.800212
632.608316	2481.071921
632.954117	2477.961529
633.299866	2476.885243
633.645562	2477.946406
633.991206	2478.049749
634.336797	2477.704430
634.682336	2478.818525
635.027823	2480.845069
635.373257	2476.912969
635.718639	2477.565798
636.063968	2478.747949
636.409245	2479.965388
636.754470	2479.068062
637.099642	2477.659060
637.444762	2480.114102
637.789829	2478.130408
638.134845	2478.392548
638.479808	2480.073772
638.824719	2479.481437
639.169577	2476.532362
639.514383	2479.176447
639.859137	2477.361632
640.203839	2477.848103
640.548489	2479.219297
640.893086	2477.356591
641.237632	2477.419605
641.582125	2479.322641
641.926566	2476.393730
642.270955	2476.113946
642.615292	2474.336939
642.959576	2475.705613
643.303809	2472.824593
643.647990	2478.125367
643.992118	2478.601756
644.336195	2475.231744
