Dividing Wavelength (nm)	Counts (n)	Slit_number_9_of_a_total_of_40	
326.493990	1939.130238
326.888308	1939.130238
327.282561	1939.130238
327.676750	1920.755233
328.070874	1916.797927
328.464933	1922.771694
328.858929	1932.400298
329.252859	1954.052054
329.646726	1971.746504
330.040528	1987.222846
330.434265	2009.731598
330.827938	2022.435306
331.221547	2041.642102
331.615091	2072.645198
332.008571	2089.407035
332.401986	2115.041302
332.795338	2125.879783
333.188625	2149.598412
333.581847	2166.284631
333.975006	2183.172496
334.368100	2205.882894
334.761129	2220.603063
335.154095	2236.885990
335.546996	2251.228073
335.939833	2269.149375
336.332606	2284.575306
336.725315	2299.144240
337.117960	2296.674075
337.510540	2303.958542
337.903056	2312.982208
338.295508	2323.644248
338.687896	2324.602067
339.080220	2330.601040
339.472480	2337.356187
339.864676	2342.044460
340.256807	2338.540858
340.648875	2350.110306
341.040879	2346.405058
341.432818	2348.018227
341.824694	2345.951354
342.216506	2348.850017
342.608253	2343.103102
342.999937	2344.111333
343.391557	2340.733760
343.783113	2345.472444
344.174605	2333.726556
344.566033	2338.893738
344.957397	2335.818635
345.348697	2332.768737
345.739934	2339.145796
346.131106	2326.920998
346.522215	2328.130875
346.913260	2323.619042
347.304241	2326.769763
347.695159	2324.803713
348.086012	2325.585092
348.476802	2328.004846
348.867528	2323.745071
349.258191	2322.207519
349.648789	2317.998156
350.039324	2316.712662
350.429796	2325.862356
350.820203	2317.897333
351.210548	2315.527990
351.600828	2321.073260
351.991045	2313.889615
352.381198	2314.847435
352.771288	2311.116981
353.161314	2313.209060
353.551276	2323.089721
353.941175	2313.990438
354.331010	2314.897846
354.720782	2316.334575
355.110490	2328.206492
355.500135	2314.444142
355.889717	2314.948258
356.279235	2312.276446
356.668689	2315.502785
357.058080	2318.351037
357.447408	2319.888588
357.836672	2314.897846
358.225873	2320.720379
358.615010	2305.848975
359.004084	2319.056798
359.393095	2320.594350
359.782043	2318.401448
360.170927	2324.929742
360.559748	2326.215237
360.948505	2329.038283
361.337199	2321.174083
361.725830	2319.157621
362.114398	2330.449806
362.502903	2326.442088
362.891344	2335.289313
363.279722	2327.248673
363.668037	2328.105669
364.056289	2327.198262
364.444478	2330.197748
364.832603	2332.592296
365.220665	2322.711635
365.608665	2323.442602
365.996601	2334.306288
366.384474	2334.457523
366.772284	2331.281596
367.160031	2334.835610
367.547715	2321.829433
367.935336	2331.357213
368.322893	2327.248673
368.710388	2337.255363
369.097820	2326.316060
369.485189	2332.541885
369.872495	2333.071206
370.259738	2337.633450
370.646918	2329.970896
371.034035	2331.155567
371.421090	2333.348469
371.808081	2331.810917
372.195010	2334.104642
372.581875	2331.155567
372.968678	2332.113387
373.355418	2332.289827
373.742096	2343.481188
374.128710	2335.163285
374.515262	2326.643735
374.901751	2336.423573
375.288177	2337.658656
375.674540	2334.734787
376.060841	2337.860302
376.447079	2326.416883
376.833254	2333.928202
377.219367	2329.618015
377.605417	2343.985304
377.991404	2337.179746
378.377329	2339.246619
378.763191	2325.711121
379.148991	2339.801146
379.534727	2345.346415
379.920402	2339.851558
380.306013	2339.675117
380.691563	2337.557833
381.077049	2339.675117
381.462474	2340.859788
381.847835	2330.273365
382.233134	2338.061948
382.618371	2338.717298
383.003545	2341.615962
383.388657	2338.591269
383.773706	2348.799606
384.158693	2335.289313
384.543618	2341.288287
384.928480	2339.801146
385.313280	2341.868019
385.698017	2343.002279
386.082692	2333.776967
386.467305	2342.901456
386.851856	2336.322750
387.236344	2353.286233
387.620770	2344.086127
388.005133	2334.457523
388.389435	2339.322237
388.773674	2343.355160
389.157851	2350.211129
389.541965	2344.917917
389.926018	2342.800633
390.310008	2346.883967
390.693936	2332.693119
391.077802	2342.044460
391.461606	2346.001765
391.845348	2342.649398
392.229027	2342.573781
392.612645	2343.254337
392.996200	2346.833556
393.379694	2342.296517
393.763125	2344.010510
394.146494	2349.933865
394.529801	2341.187463
394.913047	2345.976560
395.296230	2348.245079
395.679351	2342.573781
396.062410	2349.253310
396.445408	2354.622138
396.828343	2352.303208
397.211217	2344.867506
397.594028	2346.228617
397.976778	2339.448265
398.359466	2348.623165
398.742092	2339.801146
399.124656	2343.254337
399.507158	2342.422546
399.889598	2340.128821
400.271977	2346.984790
400.654294	2353.286233
401.036549	2349.051663
401.418742	2351.547035
401.800874	2345.169975
402.182944	2348.219873
402.564952	2345.472444
402.946898	2351.799092
403.328783	2348.673577
403.710606	2341.137052
404.092367	2347.488906
404.474067	2337.532627
404.855705	2348.850017
405.237282	2352.303208
405.618797	2345.094358
406.000250	2356.562983
406.381642	2347.463700
406.762972	2354.092817
407.144240	2350.160717
407.525447	2354.092817
407.906593	2359.461646
408.287677	2358.075329
408.668700	2347.715758
409.049661	2352.580471
409.430560	2347.211642
409.811399	2356.008456
410.192176	2349.429750
410.572891	2352.580471
410.953545	2346.077383
411.334138	2350.866479
411.714669	2352.605677
412.095139	2350.135512
412.475547	2346.783144
412.855894	2350.135512
413.236180	2345.951354
413.616405	2352.076356
413.996568	2358.150946
414.376670	2359.713704
414.756711	2355.781604
415.136691	2359.083560
415.516609	2349.631396
415.896466	2354.244052
416.276262	2347.841787
416.655997	2353.361850
417.035670	2352.882940
417.415283	2355.504340
417.794834	2354.697756
418.174324	2363.267717
418.553753	2359.133971
418.933121	2359.537263
419.312428	2349.984277
419.691674	2353.790348
420.070859	2358.024917
420.449983	2364.376771
420.829045	2344.842300
421.208047	2358.251769
421.586988	2357.596419
421.965867	2352.404031
422.344686	2352.656088
422.723444	2357.142715
423.102141	2361.805783
423.480777	2360.595906
423.859352	2356.436954
424.237866	2356.562983
424.616319	2356.739423
424.994712	2352.605677
425.373044	2347.866992
425.751314	2364.452388
426.129524	2353.034175
426.507673	2361.578931
426.885762	2360.671523
427.263789	2358.907119
427.641756	2359.335617
428.019662	2363.948273
428.397508	2363.343335
428.775292	2352.530060
429.153016	2359.738910
429.530679	2355.756398
429.908282	2363.166894
430.285824	2362.940042
430.663305	2359.612881
431.040726	2365.662265
431.418086	2355.151460
431.795385	2361.604137
432.172624	2353.765142
432.549802	2358.503827
432.926920	2360.091790
433.303977	2363.847450
433.680974	2352.025944
434.057910	2356.386542
434.434786	2362.259487
434.811601	2360.873169
435.188355	2356.941069
435.565050	2362.662779
435.941683	2356.159690
436.318257	2358.100535
436.694770	2362.183869
437.071222	2363.040865
437.447614	2357.873683
437.823946	2367.855167
438.200218	2362.435927
438.576429	2358.529033
438.952580	2371.837679
439.328670	2366.544467
439.704700	2361.150433
440.080670	2358.377798
440.456580	2362.435927
440.832429	2363.166894
441.208218	2369.140662
441.583947	2352.151973
441.959616	2359.587675
442.335224	2364.175125
442.710773	2374.711137
443.086261	2361.856194
443.461689	2367.124200
443.837057	2358.655062
444.212365	2365.788294
444.587612	2367.376258
444.962800	2365.737883
445.337927	2373.652494
445.712995	2366.191587
446.088002	2366.040352
446.462949	2369.191073
446.837837	2364.603623
447.212664	2374.837165
447.587431	2371.888090
447.962139	2366.368027
448.336786	2367.023377
448.711374	2363.519775
449.085901	2368.132431
449.460369	2366.846937
449.834776	2373.425642
450.209124	2365.006915
450.583412	2363.217306
450.957640	2367.351052
451.331808	2368.283665
451.705917	2372.997144
452.079965	2359.688498
452.453954	2369.543954
452.827883	2378.214738
453.201752	2370.174098
453.575562	2365.309385
453.949311	2363.368540
454.323001	2375.442104
454.696632	2368.661752
455.070202	2370.829448
455.443713	2377.181302
455.817164	2372.543440
456.190556	2374.282638
456.563888	2360.217819
456.937160	2368.636546
457.310373	2372.014119
457.683526	2373.652494
458.056619	2371.888090
458.429653	2370.300127
458.802628	2371.913296
459.175542	2374.005375
459.548398	2367.275435
459.921194	2377.307331
460.293930	2385.423588
460.666607	2372.367000
461.039224	2382.776983
461.411782	2376.551158
461.784280	2377.609800
462.156719	2376.173071
462.529099	2380.256406
462.901419	2370.980683
463.273680	2365.359796
463.645882	2378.693648
464.018024	2374.534696
464.390106	2375.568133
464.762130	2383.936448
465.134094	2376.173071
465.505999	2380.079965
465.877845	2386.204967
466.249631	2376.425129
466.621358	2377.559388
466.993026	2394.270813
467.364634	2384.566592
467.736184	2381.037785
468.107674	2379.676673
468.479105	2392.304763
468.850477	2385.877292
469.221790	2379.500233
469.593043	2375.341281
469.964238	2383.608773
470.335373	2374.685931
470.706449	2383.432333
471.077467	2382.524925
471.448425	2386.356202
471.819324	2390.515154
472.190164	2379.953937
472.560945	2376.576363
472.931667	2384.112888
473.302330	2378.189533
473.672934	2379.248175
474.043479	2384.667415
474.413965	2379.626262
474.784393	2383.255892
475.154761	2387.339227
475.525070	2388.372663
475.895321	2383.558362
476.265513	2388.775956
476.635645	2392.355175
477.005719	2393.892727
477.375734	2401.076371
477.745691	2392.002294
478.115588	2401.454458
478.485427	2397.497152
478.855207	2399.614437
479.224928	2409.343863
479.594591	2407.932340
479.964194	2409.495098
480.333739	2403.924623
480.703226	2414.258988
481.072653	2403.924623
481.442022	2409.772362
481.811333	2410.780592
482.180584	2414.914338
482.549777	2415.897363
482.918912	2403.244067
483.287988	2415.821746
483.657005	2411.965263
484.025964	2415.620100
484.394864	2406.772875
484.763706	2417.636562
485.132489	2411.587177
485.501213	2419.048085
485.869879	2420.207550
486.238487	2416.225038
486.607036	2416.426685
486.975527	2422.224012
487.343959	2421.795513
487.712333	2415.821746
488.080648	2412.343350
488.448905	2424.215267
488.817104	2423.711152
489.185244	2431.474529
489.553326	2427.819692
489.921350	2427.819692
490.289315	2443.648915
490.657222	2439.338729
491.025070	2436.162802
491.392861	2438.910231
491.760593	2437.448296
492.128267	2439.994079
492.495883	2435.406629
492.863440	2430.365475
493.230939	2436.087185
493.598380	2436.616506
493.965763	2423.786769
494.333088	2439.363935
494.700354	2440.472988
495.067563	2436.540888
495.434713	2431.524940
495.801805	2442.338215
496.168839	2442.943154
496.535815	2441.834100
496.902733	2441.909717
497.269593	2442.413833
497.636395	2454.008487
498.003139	2448.916921
498.369825	2452.143260
498.736453	2453.000256
499.103023	2448.715275
499.469535	2455.697273
499.835989	2458.142233
500.202385	2466.888635
500.568723	2456.680298
500.935003	2457.940587
501.301226	2452.445729
501.667390	2467.846454
502.033497	2476.945737
502.399546	2470.316619
502.765537	2469.736887
503.131470	2476.063535
503.497345	2491.716317
503.863163	2492.195227
504.228923	2483.877323
504.594625	2495.396360
504.960269	2501.546567
505.325856	2510.519821
505.691385	2508.402537
506.056856	2519.165400
506.422270	2518.005935
506.787625	2532.171577
507.152924	2537.767258
507.518164	2546.967363
507.883347	2548.908208
508.248472	2555.184444
508.613540	2568.593913
508.978550	2579.659246
509.343503	2593.749271
509.708398	2595.816144
510.073236	2610.763165
510.438016	2623.391256
510.802738	2635.237967
511.167403	2647.437560
511.532010	2662.107317
511.896561	2680.658763
512.261053	2694.698377
512.625488	2701.352700
512.989866	2706.872763
513.354186	2742.564133
513.718449	2752.268354
514.082655	2780.322375
514.446803	2780.876902
514.810894	2813.593990
515.174927	2834.640808
515.538904	2850.091944
515.902822	2874.919627
516.266684	2897.277144
516.630488	2923.062646
516.994235	2948.974177
517.357925	2983.455669
517.721558	3019.449508
518.085133	3039.563712
518.448651	3084.480392
518.812112	3111.954681
519.175516	3139.756644
519.538863	3180.060669
519.902152	3211.265412
520.265385	3254.846187
520.628560	3293.108544
520.991678	3329.278823
521.354739	3377.699106
521.717743	3423.951692
522.080690	3459.290181
522.443580	3531.076212
522.806413	3569.061306
523.169189	3626.127167
523.531908	3676.412677
523.894569	3715.809294
524.257174	3777.765075
524.619722	3827.722910
524.982213	3888.241962
525.344647	3943.871094
525.707025	4009.733769
526.069345	4077.184408
526.431608	4140.753358
526.793815	4207.195765
527.155964	4263.177779
527.518057	4332.619673
527.880093	4382.224627
528.242072	4479.821365
528.603995	4540.290006
528.965860	4602.875931
529.327669	4687.063200
529.689421	4759.529787
530.051117	4833.307073
530.412755	4930.072021
530.774337	5007.050440
531.135862	5078.281944
531.497331	5172.828785
531.858743	5230.650819
532.220098	5356.730077
532.581396	5417.097894
532.942638	5465.946675
533.303824	5598.150935
533.664953	5678.078429
534.026025	5743.033696
534.387040	5873.322317
534.747999	5974.271423
535.108902	6073.607360
535.469748	6116.583196
535.830537	6229.656277
536.191270	6334.386248
536.551947	6407.029275
536.912567	6529.302462
537.273131	6654.071019
537.633638	6693.442431
537.994089	6812.917777
538.354483	6879.990329
538.714821	7046.222377
539.075103	7185.232194
539.435328	7262.563494
539.795497	7350.985333
540.155609	7452.010056
540.515665	7621.191179
540.875665	7640.750856
541.235609	7790.800800
541.595496	7911.889315
541.955328	8068.039056
542.315102	8100.151206
542.674821	8170.122421
543.034483	8280.574102
543.394090	8372.474337
543.753640	8472.717681
544.113134	8727.447185
544.472571	8686.034106
544.831953	8992.359819
545.191278	8952.005383
545.550548	9012.045525
545.909761	9192.291981
546.268918	9313.657760
546.628019	9475.655238
546.987064	9490.148556
547.346053	9469.555442
547.704986	9688.770017
548.063863	9762.093600
548.422684	9878.594665
548.781449	9951.439338
549.140158	10112.882290
549.498811	10182.853506
549.857408	10152.329319
550.215949	10402.143698
550.574434	10514.057313
550.932864	10560.914838
551.291237	10769.265727
551.649555	10822.223048
552.007817	10957.477206
552.366022	10991.328554
552.724173	11102.990112
553.082267	11269.020513
553.440305	11433.588981
553.798288	11396.990204
554.156215	11551.904862
554.514086	11699.282994
554.871902	11729.983621
555.229661	11821.026860
555.587365	11882.428113
555.945014	11984.914771
556.302606	12100.331988
556.660143	12223.159702
557.017625	12339.963237
557.375050	12382.258517
557.732421	12571.226169
558.089735	12686.769415
558.446994	12749.027665
558.804197	13005.773631
559.161345	13050.665106
559.518437	12990.902227
559.875474	13154.008760
560.232455	13315.048419
560.589381	13450.882310
560.946251	13474.096823
561.303065	13749.797527
561.659825	13802.830465
562.016528	13852.359802
562.373177	13860.022356
562.729770	14101.291979
563.086307	14107.643833
563.442789	14324.741123
563.799216	14416.994238
564.155587	14491.326052
564.511904	14607.247385
564.868164	14742.098250
565.224370	14959.044306
565.580520	14943.416729
565.936615	15143.197656
566.292654	15166.588610
566.648638	15366.798035
567.004567	15450.052690
567.360441	15597.934938
567.716260	15647.867567
568.072023	15862.620721
568.427732	15955.932479
568.783385	15910.511683
569.138982	16148.126469
569.494525	16273.071467
569.850013	16272.617763
570.205445	16426.977894
570.560823	16497.150756
570.916145	16584.589569
571.271412	16714.071606
571.626625	16720.625106
571.981782	16847.737800
572.336884	16856.358173
572.691931	17056.038277
573.046923	17061.734781
573.401860	17083.890652
573.756743	17166.968867
574.111570	17342.627873
574.466342	17371.438067
574.821059	17539.837812
575.175722	17474.277606
575.530330	17584.477229
575.884882	17595.895442
576.239380	17651.827044
576.593823	17750.356396
576.948211	17831.392944
577.302544	17721.571408
577.656823	17808.228842
578.011047	17991.147110
578.365216	18007.102362
578.719330	17981.014390
579.073389	18040.777269
579.427394	18135.147669
579.781344	18216.360658
580.135239	18116.268548
580.489080	18258.177029
580.842866	18107.471735
581.196597	18381.382829
581.550273	18438.700748
581.903895	18435.045912
582.257463	18647.530546
582.610975	18510.688425
582.964434	18636.969329
583.317837	18521.904992
583.671186	18507.840173
584.024481	18663.813473
584.377721	18558.327329
584.730906	18681.936421
585.084037	18779.835629
585.437113	18677.626235
585.790135	18741.900946
586.143103	18608.663250
586.496016	18750.496113
586.848874	18739.960102
587.201679	18790.548081
587.554428	18574.358198
587.907124	18730.533144
588.259765	18654.512544
588.612352	18779.507954
588.964884	18542.069608
589.317362	18672.484258
589.669786	18668.048042
590.022155	18582.978571
590.374470	18781.474004
590.726731	18591.498121
591.078937	18371.476962
591.431090	18467.737794
591.783188	18343.019648
592.135232	18196.725363
592.487222	18316.351944
592.839157	18358.596813
593.191038	18224.451710
593.542866	18114.100852
593.894639	17862.799333
594.246358	17946.079194
594.598022	17975.922825
594.949633	17790.483981
595.301190	17767.445908
595.652692	17703.876958
596.004141	17856.901183
596.355535	17427.344463
596.706876	17366.396913
597.058162	17275.202440
597.409395	17490.182446
597.760573	17511.935025
598.111698	17295.644319
598.462768	17261.540913
598.813785	17244.300167
599.164748	17007.063467
599.515657	17118.548585
599.866511	16890.259933
600.217312	17080.689519
600.568060	16630.363246
600.918753	16875.464146
601.269392	16824.548492
601.619978	16667.566962
601.970510	16706.283023
602.320988	16713.239815
602.671412	16770.230060
603.021783	16629.228987
603.372100	16421.634271
603.722363	16404.897640
604.072572	16408.980975
604.422728	16348.487129
604.772830	16201.562700
605.122878	16162.418140
605.472872	16075.735500
605.822813	16126.424302
606.172701	15988.095040
606.522534	15999.059550
606.872314	16032.608429
607.222041	15863.628952
607.571714	15940.178873
607.921333	15655.278063
608.270899	15693.565627
608.620411	15735.785290
608.969870	15572.477112
609.319276	15474.729138
609.668627	15434.601554
610.017926	15495.297046
610.367171	15452.573267
610.716362	15434.223467
611.065500	15301.288240
611.414585	15277.317554
611.763616	15275.301092
612.112594	15140.752696
612.461518	15135.635925
612.810389	15133.190965
613.159207	14988.182175
613.507971	14904.549433
613.856682	14967.992354
614.205340	14838.132231
614.553945	14925.596250
614.902496	14667.690819
615.250994	14688.914077
615.599439	14612.641419
615.947830	14578.487602
616.296169	14503.979348
616.644454	14411.726233
616.992686	14390.175300
617.340864	14421.102779
617.688990	14230.975662
618.037063	14282.118167
618.385082	14142.831087
618.733048	14130.429848
619.080961	14024.616029
619.428821	13925.759002
619.776628	13842.025437
620.124382	13690.337117
620.472083	13598.361265
620.819731	13543.437894
621.167326	13340.254188
621.514868	13260.906427
621.862357	13014.822502
622.209793	12917.326587
622.557176	12724.426835
622.904506	12561.395919
623.251783	12355.263138
623.599007	12219.731717
623.946179	12075.554717
624.293297	11988.292344
624.640363	11767.489806
624.987376	11635.789662
625.334336	11528.740760
625.681243	11366.869310
626.028097	11250.040569
626.374899	11137.345575
626.721647	11054.947915
627.068343	10924.936558
627.414987	10807.023969
627.761577	10667.131950
628.108115	10671.290902
628.454600	10458.831473
628.801032	10431.735271
629.147412	10330.181227
629.493739	10245.237785
629.840014	10060.958406
630.186236	10078.930119
630.532405	9906.295806
630.878521	9859.765956
631.224585	9775.326629
631.570597	9667.395525
631.916556	9609.775137
632.262462	9511.497842
632.608316	9475.125917
632.954117	9349.575981
633.299866	9276.731308
633.645562	9174.446296
633.991206	9017.313531
634.336797	8883.244044
634.682336	8815.919435
635.027823	8705.190490
635.373257	8612.307231
635.718639	8520.129733
636.063968	8422.659023
636.409245	8284.758260
636.754470	8210.552475
637.099642	8121.450081
637.444762	7960.939742
637.789829	7935.129035
638.134845	7836.851740
638.479808	7763.326512
638.824719	7705.832152
639.169577	7573.627892
639.514383	7525.686519
639.859137	7447.624252
640.203839	7403.640185
640.548489	7320.637587
640.893086	7263.143227
641.237632	7168.193094
641.582125	7151.431258
